ppg
3.099706744868035
3.0576735092864125
3.0127077223851417
2.963831867057673
2.9071358748778104
2.8426197458455524
2.773216031280548
2.696969696969697
2.6158357771261
2.5317693059628543
2.444770283479961
2.356793743890518
2.2688172043010755
2.1808406647116323
2.104594330400782
2.035190615835777
1.9589442815249267
1.8797653958944285
1.8005865102639296
1.7243401759530792
1.6500488758553276
1.576735092864125
1.5073313782991202
1.439882697947214
1.3743890518084063
1.3128054740957966
1.2551319648093842
1.2101661779081134
1.1730205278592376
1.1329423264907137
1.093841642228739
1.0596285434995112
1.0332355816226784
1.0156402737047898
1.007820136852395
1.0127077223851415
1.0303030303030305
1.0606060606060606
1.1026392961876832
1.1505376344086022
1.2043010752688172
1.267839687194526
1.3372434017595307
1.412512218963832
1.490713587487781
1.5698924731182795
1.6500488758553276
1.729227761485826
1.8074291300097751
1.8836754643206255
1.9579667644183771
2.029325513196481
2.088954056695992
2.142717497556207
2.19941348973607
2.2561094819159337
2.310850439882698
2.3626588465298144
2.4086021505376345
2.4486803519061584
2.482893450635386
2.5102639296187683
2.5317693059628543
2.548387096774193
2.558162267839687
2.5650048875855327
2.572825024437928
2.579667644183773
2.5865102639296187
2.591397849462365
2.5943304007820136
2.595307917888563
2.592375366568915
2.58455522971652
2.5718475073313782
2.5532746823069403
2.530791788856305
2.504398826979472
2.4711632453567938
2.4301075268817205
2.3812316715542523
2.3255131964809386
2.2629521016617797
2.193548387096774
2.120234604105572
2.043010752688172
1.962854349951124
1.8797653958944285
1.7956989247311828
1.7223851417399805
1.6549364613880744
1.5796676441837731
1.501466275659824
1.4213098729227762
1.3421309872922775
1.2649071358748778
1.1896383186705768
1.1163245356793745
1.0469208211143697
0.9804496578690128
0.9178885630498532
0.8699902248289345
0.83088954056696
0.7849462365591398
0.7380254154447703
0.6930596285434996
0.6520039100684262
0.6148582600195504
0.5826001955034213
0.5571847507331378
0.5405669599217986
0.533724340175953
0.5395894428152492
0.5591397849462365
0.5904203323558163
0.6314760508308895
0.6832844574780058
0.7438905180840665
0.8123167155425219
0.8875855327468231
0.9687194525904204
1.053763440860215
1.142717497556207
1.2326490713587488
1.3235581622678396
1.414467253176931
1.495601173020528
1.5708699902248289
1.651026392961877
1.732160312805474
1.812316715542522
1.8905180840664717
1.9667644183773216
2.038123167155425
2.1055718475073317
2.167155425219941
2.222873900293255
2.2737047898338223
2.318670576735093
2.3519061583577714
2.3792766373411536
2.407624633431085
2.4359726295210167
2.463343108504399
2.4916911045943304
2.5190615835777126
2.544477028347996
2.56891495601173
2.591397849462365
2.6099706744868034
2.624633431085044
2.632453567937439
2.634408602150537
2.633431085043988
2.627565982404692
2.616813294232649
2.601173020527859
2.578690127077224
2.549364613880743
2.5131964809384164
2.4711632453567938
2.4242424242424243
2.3734115347018574
2.318670576735093
2.267839687194526
2.218963831867057
2.163245356793744
2.104594330400782
2.043010752688172
1.9794721407624636
1.9149560117302051
1.8494623655913975
1.7849462365591398
1.721407624633431
1.6578690127077225
1.5962854349951123
1.5464320625610948
1.5034213098729228
1.4545454545454546
1.404692082111437
1.356793743890518
1.3118279569892473
1.270772238514174
1.2326490713587488
1.2756598240469208
1.3636363636363635
1.4037145650048877
1.4242424242424243
1.4389051808406648
1.4545454545454546
1.474095796676442
1.499511241446725
1.5317693059628543
1.5708699902248289
1.6177908113391983
1.6695992179863148
1.7253176930596286
1.7849462365591398
1.8455522971652003
1.90811339198436
1.9696969696969695
2.021505376344086
2.069403714565005
2.121212121212121
2.174975562072336
2.228739002932551
2.281524926686217
2.332355816226784
2.3812316715542523
2.4281524926686218
2.474095796676442
2.517106549364614
2.5562072336265884
2.591397849462365
2.616813294232649
2.636363636363636
2.6559139784946235
2.673509286412512
2.687194525904203
2.696969696969697
2.7038123167155423
2.708699902248289
2.7116324535679373
2.7145650048875853
2.716520039100684
2.718475073313783
2.716520039100684
2.7116324535679373
2.70772238514174
2.701857282502444
2.6940371456500487
2.6823069403714563
2.665689149560117
2.6451612903225805
2.619745845552297
2.590420332355816
2.5562072336265884
2.517106549364614
2.474095796676442
2.432062561094819
2.3900293255131966
2.3421309872922778
2.290322580645161
2.2355816226783967
2.1788856304985336
2.1221896383186705
2.065493646138808
2.0097751710654936
1.9550342130987293
1.900293255131965
2.040078201368524
1.9775171065493649
1.9130009775171064
1.8494623655913975
1.7859237536656891
1.7243401759530792
1.664711632453568
1.607038123167155
1.5503421309872922
1.4965786901270772
1.444770283479961
1.404692082111437
1.3724340175953078
1.3372434017595307
1.303030303030303
1.2717497556207231
1.2453567937438903
1.224828934506354
1.2121212121212122
1.2072336265884651
1.2121212121212122
1.227761485826002
1.2531769305962854
1.289345063538612
1.3313782991202343
1.3792766373411536
1.4349951124144673
1.4965786901270772
1.563049853372434
1.632453567937439
1.7038123167155426
1.7761485826001957
1.8484848484848484
1.9188660801564028
1.9872922776148585
2.0547409579667644
2.1114369501466275
2.163245356793744
2.218963831867057
2.275659824046921
2.3313782991202348
2.3841642228739004
2.434017595307918
2.4789833822091887
2.5190615835777126
2.5532746823069403
2.581622678396872
2.6050830889540566
2.6236559139784945
2.635386119257087
2.6422287390029324
2.649071358748778
2.6559139784946235
2.66177908113392
2.667644183773216
2.673509286412512
2.679374389051808
2.6832844574780057
2.684261974584555
2.6823069403714563
2.675464320625611
2.6637341153470184
2.6471163245356792
2.625610948191593
2.5972629521016617
2.5620723362658846
2.520039100684262
2.472140762463343
2.418377321603128
2.3597262952101663
2.297165200391007
2.2297165200391005
2.160312805474096
2.088954056695992
2.026392961876833
1.967741935483871
1.9012707722385145
1.83088954056696
1.7595307917888563
1.689149560117302
1.6207233626588464
1.5532746823069403
1.4887585532746823
1.4271749755620724
1.3685239491691104
1.3128054740957966
1.2697947214076246
1.2336265884652982
1.1935483870967742
1.1534701857282503
1.1163245356793745
1.083088954056696
1.0547409579667644
1.032258064516129
1.0175953079178883
1.0117302052785924
1.0156402737047898
1.0312805474095796
1.0576735092864125
1.0928641251221896
1.1348973607038124
1.1857282502443791
1.2434017595307918
1.3069403714565004
1.375366568914956
1.447702834799609
1.521994134897361
1.598240469208211
1.6744868035190617
1.7517106549364614
1.828934506353861
1.8973607038123168
1.9608993157380252
2.029325513196481
2.099706744868035
2.16911045943304
2.2385141739980448
2.3059628543499517
2.3704789833822093
2.43108504398827
2.487781036168133
2.539589442815249
2.5855327468230693
2.6265884652981426
2.656891495601173
2.6803519061583576
2.7038123167155423
2.727272727272727
2.748778103616813
2.768328445747801
2.7869012707722387
2.8044965786901277
2.820136852394917
2.832844574780059
2.8426197458455524
2.850439882697948
2.852394916911046
2.849462365591398
2.84652981427175
2.841642228739003
2.832844574780059
2.819159335288368
2.80058651026393
2.7781036168132944
2.750733137829912
2.718475073313783
2.6803519061583576
2.638318670576735
2.591397849462365
2.5464320625610948
2.5004887585532747
2.447702834799609
2.391006842619746
2.3313782991202348
2.270772238514174
2.210166177908113
2.1485826001955037
2.0879765395894427
2.0283479960899315
1.9696969696969695
1.9120234604105573
1.8641251221896384
1.822091886608016
1.775171065493646
1.7272727272727273
1.6793743890518085
1.6334310850439884
1.5913978494623655
1.5532746823069403
1.521016617790811
1.495601173020528
1.478983382209189
1.4711632453567938
1.474095796676442
1.4868035190615836
1.5083088954056696
1.5395894428152492
1.581622678396872
1.632453567937439
1.6911045943304008
1.7556207233626588
1.825024437927664
1.8963831867057677
1.9696969696969695
2.042033235581622
2.113391984359726
2.174975562072336
2.23069403714565
2.291300097751711
2.35386119257087
2.41544477028348
2.47702834799609
2.536656891495601
2.5943304007820136
2.649071358748778
2.6989247311827955
2.7438905180840663
2.782991202346041
2.809384164222874
2.8260019550342133
2.841642228739003
2.8533724340175954
2.860215053763441
2.8641251221896384
2.866080156402737
2.8670576735092865
2.8670576735092865
2.868035190615836
2.8699902248289346
2.8719452590420333
2.8729227761485827
2.8699902248289346
2.863147605083089
2.8563049853372435
2.877810361681329
2.911045943304008
2.9149560117302054
2.902248289345064
2.878787878787879
2.84652981427175
2.806451612903226
2.7595307917888565
2.708699902248289
2.659824046920821
2.6099706744868034
2.5513196480938416
2.487781036168133
2.420332355816227
2.3489736070381237
2.2766373411534704
2.203323558162268
2.129032258064516
2.056695992179863
1.9853372434017595
1.9159335288367547
1.8494623655913975
1.793743890518084
1.7458455522971652
1.6920821114369502
1.6363636363636365
1.581622678396872
1.5278592375366569
1.47702834799609
1.4291300097751711
1.3861192570869991
1.3470185728250244
1.3128054740957966
1.284457478005865
1.267839687194526
1.2619745845552297
1.2590420332355816
1.2649071358748778
1.281524926686217
1.310850439882698
1.3528836754643203
1.4056695992179864
1.4672531769305963
1.5347018572825024
1.6080156402737047
1.6842619745845553
1.7624633431085044
1.833822091886608
1.900293255131965
1.9726295210166176
2.04594330400782
2.118279569892473
2.190615835777126
2.260997067448681
2.329423264907136
2.3958944281524928
2.4604105571847508
2.5219941348973607
2.579667644183773
2.6265884652981426
2.665689149560117
2.704789833822092
2.740957966764418
2.771260997067449
2.7947214076246336
2.812316715542522
2.8240469208211145
2.83088954056696
2.834799608993157
2.8377321603128056
2.8396871945259043
2.841642228739003
2.8406647116324537
2.8377321603128056
2.835777126099707
2.834799608993157
2.831867057673509
2.8260019550342133
2.8152492668621703
2.80058651026393
2.7810361681329425
2.755620723362659
2.724340175953079
2.686217008797654
2.64613880742913
2.603128054740958
2.550342130987292
2.489736070381232
2.4242424242424243
2.35386119257087
2.281524926686217
2.207233626588465
2.1309872922776147
2.053763440860215
1.9765395894428155
1.900293255131965
1.825024437927664
1.761485826001955
1.7038123167155426
1.6392961876832846
1.5728250244379276
1.5073313782991202
1.444770283479961
1.3870967741935485
1.3372434017595307
1.2971652003910068
1.2688172043010753
1.2531769305962854
1.2502443792766371
1.2609970674486803
1.2834799608993157
1.3157380254154447
1.356793743890518
1.4056695992179864
1.4613880742913
1.521016617790811
1.5835777126099706
1.6480938416422288
1.7126099706744868
1.7771260997067448
1.8406647116324533
1.903225806451613
1.956989247311828
2.004887585532747
2.0557184750733137
2.10752688172043
2.157380254154448
2.206256109481916
2.251221896383187
2.2932551319648096
2.3304007820136854
2.364613880742913
2.3949169110459434
2.421309872922776
2.441837732160313
2.458455522971652
2.4789833822091887
2.5004887585532747
2.52297165200391
2.544477028347996
2.5640273704789838
2.5806451612903225
2.595307917888563
2.606060606060606
2.610948191593353
2.608993157380254
2.5992179863147604
2.5855327468230693
2.567937438905181
2.5434995112414467
2.5112414467253177
2.474095796676442
2.432062561094819
2.3851417399804498
2.334310850439883
2.2795698924731185
2.222873900293255
2.163245356793744
2.101661779081134
2.048875855327468
2.0
1.946236559139785
1.8905180840664717
1.8347996089931573
1.780058651026393
1.726295210166178
1.6735092864125125
1.6226783968719452
1.5747800586510263
1.5288367546432062
1.4858260019550342
1.444770283479961
1.414467253176931
1.391006842619746
1.3655913978494625
1.3421309872922775
1.3235581622678396
1.3088954056695992
1.2991202346041055
1.295210166177908
1.2971652003910068
1.3040078201368523
1.3147605083088951
1.3304007820136852
1.3499511241446724
1.3743890518084063
1.4027370478983383
1.435972629521017
1.4750733137829912
1.520039100684262
1.5718475073313782
1.6314760508308896
1.6979472140762464
1.7712609970674489
1.8494623655913975
1.9315738025415443
2.005865102639296
2.0762463343108504
2.1544477028347995
2.2355816226783967
2.318670576735093
2.4027370478983383
2.4858260019550342
2.567937438905181
2.649071358748778
2.7282502443792764
2.8044965786901277
2.877810361681329
2.948191593352884
3.003910068426197
3.050830889540567
3.101661779081134
3.150537634408602
3.1955034213098727
3.2346041055718477
3.2668621700879767
3.291300097751711
3.30791788856305
3.317693059628544
3.3225806451612905
3.32355816226784
3.317693059628544
3.3098729227761488
3.304985337243402
3.302052785923754
3.2991202346041058
3.2961876832844577
3.2932551319648096
3.2883675464320627
3.2825024437927666
3.274682306940372
3.264907135874878
3.251221896383187
3.233626588465298
3.2111436950146626
3.182795698924731
3.150537634408602
3.112414467253177
3.067448680351906
3.016617790811339
2.959921798631476
2.898338220918866
2.831867057673509
2.760508308895406
2.686217008797654
2.6099706744868034
2.541544477028348
2.47702834799609
2.404692082111437
2.3284457478005867
2.2521994134897363
2.174975562072336
2.096774193548387
2.0195503421309877
1.945259042033236
1.8729227761485825
1.739980449657869
1.5796676441837731
1.4721407624633431
1.4007820136852396
1.3479960899315735
1.295210166177908
1.2453567937438903
1.198435972629521
1.1564027370478984
1.1192570869990224
1.088954056695992
1.0664711632453567
1.053763440860215
1.0527859237536656
1.0625610948191593
1.083088954056696
1.1124144672531768
1.152492668621701
1.2013685239491692
1.2590420332355816
1.3235581622678396
1.392961876832845
1.4652981427174976
1.5376344086021505
1.6099706744868034
1.6803519061583578
1.7497556207233629
1.8172043010752688
1.873900293255132
1.924731182795699
1.9804496578690127
2.0361681329423265
2.090909090909091
2.142717497556207
2.190615835777126
2.2346041055718477
2.2737047898338223
2.30791788856305
2.3362658846529816
2.358748778103617
2.3734115347018574
2.3822091886608017
2.389051808406647
2.393939393939394
2.396871945259042
2.39980449657869
2.4027370478983383
2.406647116324536
2.409579667644184
2.4115347018572826
2.4115347018572826
2.410557184750733
2.406647116324536
2.398826979472141
2.3870967741935485
2.3714565004887587
2.350928641251222
2.324535679374389
2.29227761485826
2.254154447702835
2.210166177908113
2.160312805474096
2.1055718475073317
2.046920821114369
1.9843597262952104
1.9286412512218964
1.8748778103616808
1.812316715542522
1.7458455522971652
1.6764418377321604
1.607038123167155
1.5386119257087
1.4721407624633431
1.409579667644184
1.3509286412512218
1.2971652003910068
1.2502443792766371
1.2111436950146628
1.1837732160312806
1.166177908113392
1.1495601173020529
1.1368523949169111
1.1290322580645162
1.1251221896383188
1.1270772238514175
1.133919843597263
1.1466275659824048
1.164222873900293
1.1857282502443791
1.2101661779081134
1.2355816226783969
1.2619745845552297
1.289345063538612
1.3176930596285434
1.346041055718475
1.375366568914956
1.4037145650048877
1.43108504398827
1.457478005865103
1.4819159335288368
1.5063538611925709
1.530791788856305
1.555229716520039
1.5786901270772238
1.6021505376344083
1.6285434995112416
1.656891495601173
1.686217008797654
1.7145650048875856
1.7419354838709675
1.7673509286412512
1.7927663734115349
1.8172043010752688
1.8416422287390029
1.865102639296188
1.884652981427175
1.902248289345064
1.919843597262952
1.93841642228739
1.956989247311828
1.9736070381231672
1.988269794721408
2.002932551319648
2.01564027370479
2.026392961876833
2.035190615835777
2.0410557184750733
2.0439882697947214
2.0439882697947214
2.042033235581622
2.038123167155425
2.0303030303030303
2.0195503421309877
2.004887585532747
1.9853372434017595
1.9618768328445748
1.935483870967742
1.905180840664712
1.871945259042033
1.8347996089931573
1.801564027370479
1.7702834799608993
1.7331378299120237
1.694037145650049
1.6529814271749756
1.6109481915933528
1.56891495601173
1.5278592375366569
1.487781036168133
1.4496578690127078
1.4134897360703813
1.3792766373411536
1.3470185728250244
1.3225806451612905
1.3040078201368523
1.2825024437927663
1.2619745845552297
1.2443792766373412
1.2297165200391007
1.2189638318670577
1.2121212121212122
1.2101661779081134
1.2140762463343109
1.2228739002932552
1.238514173998045
1.260019550342131
1.2873900293255132
1.3225806451612905
1.3665689149560116
1.4203323558162269
1.482893450635386
1.5532746823069403
1.629521016617791
1.710654936461388
1.7956989247311828
1.881720430107527
1.9696969696969695
2.04594330400782
2.115347018572825
2.1925708699902247
2.272727272727273
2.3519061583577714
2.43108504398827
2.5083088954056696
2.582600195503421
2.653958944281525
2.7233626588465296
2.788856304985337
2.850439882697948
2.9071358748778104
2.949169110459433
2.981427174975562
3.016617790811339
3.0498533724340176
3.078201368523949
3.101661779081134
3.1192570869990224
3.1300097751710654
3.134897360703812
3.1358748778103616
3.133919843597263
3.1309872922776147
3.124144672531769
3.115347018572825
3.1094819159335287
3.1055718475073317
3.1006842619745845
3.0948191593352883
3.086021505376344
3.0733137829912023
3.056695992179863
3.0361681329423265
3.0097751710654936
2.9775171065493646
2.9393939393939394
2.8993157380254155
2.854349951124145
2.8025415444770285
2.744868035190616
2.6823069403714563
2.6158357771261
2.5464320625610948
2.474095796676442
2.39980449657869
2.324535679374389
2.249266862170088
2.1730205278592374
2.1055718475073317
2.043010752688172
1.975562072336266
1.906158357771261
1.836754643206256
1.76930596285435
1.7038123167155426
1.640273704789834
1.5777126099706744
1.5180840664711632
1.4604105571847508
1.4056695992179864
1.35386119257087
1.3128054740957966
1.2805474095796676
1.2473118279569892
1.2179863147605083
1.1945259042033236
1.1788856304985338
1.1730205278592376
1.1788856304985338
1.195503421309873
1.2228739002932552
1.260019550342131
1.305962854349951
1.35386119257087
1.4027370478983383
1.4604105571847508
1.521994134897361
1.56891495601173
1.606060606060606
1.6559139784946235
1.7116324535679377
1.7702834799608993
1.827956989247312
1.8856304985337244
1.9413489736070384
1.994134897360704
2.038123167155425
2.0772238514174
2.1192570869990224
2.160312805474096
2.1974584555229715
2.2297165200391005
2.2580645161290325
2.281524926686217
2.3010752688172045
2.317693059628544
2.3313782991202348
2.343108504398827
2.3499511241446727
2.35386119257087
2.358748778103617
2.363636363636364
2.367546432062561
2.36950146627566
2.36950146627566
2.366568914956012
2.360703812316716
2.3499511241446727
2.334310850439883
2.314760508308896
2.290322580645161
2.2639296187683287
2.2355816226783967
2.20039100684262
2.1593352883675463
2.112414467253177
2.060606060606061
2.003910068426197
1.943304007820137
1.8797653958944285
1.8142717497556209
1.747800586510264
1.6803519061583578
1.6217008797653958
1.56891495601173
1.5083088954056696
1.444770283479961
1.3812316715542523
1.316715542521994
1.2531769305962854
1.1906158357771262
1.130987292277615
1.0733137829912025
1.018572825024438
0.9657869012707724
0.916911045943304
0.8807429130009775
0.852394916911046
0.820136852394917
0.7878787878787878
0.7595307917888563
0.7370478983382209
0.7223851417399805
0.7155425219941349
0.7194525904203324
0.7341153470185728
0.7595307917888563
0.7956989247311828
0.8377321603128055
0.884652981427175
0.9393939393939394
1.0
1.064516129032258
1.1319648093841643
1.2023460410557183
1.2746823069403714
1.3479960899315735
1.4213098729227762
1.4946236559139785
1.565982404692082
1.6363636363636365
1.696969696969697
1.7526881720430108
1.812316715542522
1.871945259042033
1.9305962854349952
1.9872922776148585
2.0410557184750733
2.089931573802541
2.133919843597263
2.1730205278592374
2.207233626588465
2.236559139784946
2.2580645161290325
2.2737047898338223
2.289345063538612
2.304007820136853
2.3196480938416424
2.335288367546432
2.3499511241446727
2.363636363636364
2.377321603128055
2.388074291300098
2.396871945259042
2.401759530791789
2.401759530791789
2.3958944281524928
2.3851417399804498
2.3704789833822093
2.350928641251222
2.326490713587488
2.297165200391007
2.26197458455523
2.220918866080156
2.175953079178885
2.126099706744868
2.072336265884653
2.0175953079178885
1.967741935483871
1.919843597262952
1.8670576735092863
1.8113391984359728
1.75366568914956
1.6959921798631477
1.6392961876832846
1.58455522971652
1.5317693059628543
1.482893450635386
1.4379276637341154
1.396871945259042
1.359726295210166
1.332355816226784
1.310850439882698
1.2883675464320623
1.267839687194526
1.2502443792766371
1.2365591397849462
1.2258064516129032
1.2209188660801564
1.2218963831867058
1.23069403714565
1.2473118279569892
1.2717497556207231
1.3010752688172045
1.3362658846529814
1.380254154447703
1.4320625610948192
1.490713587487781
1.555229716520039
1.6236559139784943
1.694037145650049
1.7653958944281525
1.836754643206256
1.9071358748778104
1.975562072336266
2.034213098729228
2.0869990224828934
2.145650048875855
2.2052785923753664
2.2639296187683287
2.320625610948192
2.375366568914956
2.426197458455523
2.472140762463343
2.5131964809384164
2.548387096774193
2.576735092864125
2.5992179863147604
2.6129032258064515
2.619745845552297
2.625610948191593
2.63049853372434
2.633431085043988
2.635386119257087
2.6373411534701856
2.6392961876832843
2.6422287390029324
2.6451612903225805
2.6471163245356792
2.6480938416422286
2.6451612903225805
2.6392961876832843
2.633431085043988
2.6236559139784945
2.610948191593353
2.5943304007820136
2.572825024437928
2.5464320625610948
2.515151515151515
2.4780058651026398
2.4349951124144678
2.386119257086999
2.332355816226784
2.281524926686217
2.23069403714565
2.1730205278592374
2.110459433040078
2.04594330400782
1.9794721407624636
1.9130009775171064
1.8465298142717497
1.780058651026393
1.715542521994135
1.6520039100684265
1.5894428152492668
1.5366568914956011
1.4897360703812317
1.436950146627566
1.3822091886608017
1.3284457478005864
1.2776148582600195
1.2297165200391007
1.18475073313783
1.144672531769306
1.1114369501466277
1.0840664711632453
1.064516129032258
1.0547409579667644
1.056695992179863
1.0694037145650048
1.0909090909090908
1.1221896383186705
1.163245356793744
1.2130987292277615
1.267839687194526
1.3284457478005864
1.393939393939394
1.4613880742913
1.5298142717497556
1.5992179863147604
1.6608015640273706
1.718475073313783
1.7810361681329423
1.8465298142717497
1.9130009775171064
1.978494623655914
2.0410557184750733
2.101661779081134
2.1593352883675463
2.2140762463343107
2.264907135874878
2.3098729227761488
2.3499511241446727
2.3792766373411536
2.39980449657869
2.419354838709677
2.4359726295210167
2.449657869012708
2.4604105571847508
2.469208211143695
2.47702834799609
2.4838709677419355
2.4916911045943304
2.5865102639296187
2.7233626588465296
2.790811339198436
2.8211143695014664
2.834799608993157
2.8367546432062563
2.831867057673509
2.8211143695014664
2.8044965786901277
2.7839687194525906
2.757575757575758
2.7253176930596283
2.687194525904203
2.643206256109482
2.5943304007820136
2.5464320625610948
2.4975562072336266
2.4408602150537635
