ppg
1.2404692082111437
1.2287390029325511
1.219941348973607
1.2130987292277615
1.2043010752688172
1.195503421309873
1.1867057673509287
1.176930596285435
1.1681329423264908
1.1612903225806452
1.1564027370478984
1.1515151515151516
1.1466275659824048
1.1407624633431086
1.1368523949169111
1.1329423264907137
1.126099706744868
1.118279569892473
1.110459433040078
1.1036168132942326
1.096774193548387
1.0909090909090908
1.086021505376344
1.083088954056696
1.0801564027370478
1.0772238514173995
1.0742913000977516
1.0733137829912025
1.0742913000977516
1.0742913000977516
1.0733137829912025
1.0713587487781036
1.067448680351906
1.0625610948191593
1.056695992179863
1.050830889540567
1.0449657869012707
1.0391006842619743
1.032258064516129
1.0303030303030305
1.032258064516129
1.0391006842619743
1.056695992179863
1.0909090909090908
1.1466275659824048
1.227761485826002
1.335288367546432
1.4682306940371457
1.6226783968719452
1.790811339198436
1.9667644183773216
2.1417399804496577
2.2883675464320627
2.4134897360703813
2.5425219941348973
2.662756598240469
2.7673509286412514
2.855327468230694
2.9257086999022484
2.978494623655914
3.016617790811339
3.042033235581622
3.0557184750733137
3.0576735092864125
3.046920821114369
3.0254154447702835
2.997067448680352
2.960899315738025
2.9159335288367547
2.863147605083089
2.8044965786901277
2.739980449657869
2.6715542521994133
2.60019550342131
2.5268817204301075
2.455522971652004
2.3919843597262958
2.332355816226784
2.26197458455523
2.189638318670577
2.131964809384164
2.086021505376344
2.048875855327468
2.0175953079178885
1.989247311827957
1.964809384164223
1.9442815249266865
1.924731182795699
1.9071358748778104
1.8914956011730208
1.87683284457478
1.86119257086999
1.844574780058651
1.8269794721407624
1.8084066471163245
1.7888563049853372
1.7683284457478006
1.7468230694037146
1.7233626588465298
1.6989247311827955
1.6744868035190617
1.6529814271749756
1.632453567937439
1.6099706744868034
1.5865102639296187
1.563049853372434
1.5386119257087
1.5131964809384164
1.487781036168133
1.4643206256109482
1.4408602150537635
1.418377321603128
1.3978494623655917
1.3782991202346042
1.3626588465298142
1.348973607038123
1.332355816226784
1.3147605083088951
1.2971652003910068
1.278592375366569
1.260019550342131
1.2424242424242424
1.2258064516129032
1.2101661779081134
1.1974584555229717
1.1867057673509287
1.1798631476050832
1.1749755620723363
1.1671554252199414
1.1593352883675463
1.1505376344086022
1.141739980449658
1.1319648093841643
1.1231671554252198
1.1133919843597262
1.104594330400782
1.0957966764418376
1.0879765395894427
1.0811339198435972
1.078201368523949
1.0762463343108504
1.072336265884653
1.067448680351906
1.06158357771261
1.056695992179863
1.0518084066471165
1.0469208211143697
1.043010752688172
1.0391006842619743
1.0342130987292275
1.0283479960899315
1.0254154447702837
1.0234604105571847
1.021505376344086
1.0205278592375366
1.018572825024438
1.0166177908113392
1.013685239491691
1.0097751710654936
1.0058651026392962
1.0019550342130987
0.997067448680352
0.9931573802541545
0.9902248289345064
0.989247311827957
0.989247311827957
0.9882697947214076
0.9872922776148584
0.9902248289345064
1.0019550342130987
1.029325513196481
1.0762463343108504
1.1456500488758554
1.241446725317693
1.3616813294232648
1.504398826979472
1.640273704789834
1.775171065493646
1.9305962854349952
2.09188660801564
2.2482893450635384
2.393939393939394
2.5249266862170088
2.6392961876832843
2.735092864125122
2.812316715542522
2.8719452590420333
2.9159335288367547
2.945259042033236
2.9550342130987293
2.9501466275659824
2.9374389051808407
2.916911045943304
2.887585532746823
2.850439882697948
2.8044965786901277
2.7517106549364616
2.69208211143695
2.627565982404692
2.558162267839687
2.4858260019550342
2.419354838709677
2.356793743890518
2.291300097751711
2.228739002932551
2.1710654936461387
2.1192570869990224
2.072336265884653
2.029325513196481
1.991202346041056
1.9589442815249267
1.9315738025415443
1.9071358748778104
1.884652981427175
1.8670576735092863
1.8523949169110456
1.8387096774193548
1.826001955034213
1.812316715542522
1.7976539589442817
1.7820136852394917
1.7663734115347018
1.7497556207233629
1.7311827956989247
1.7096774193548387
1.6852394916911049
1.6637341153470186
1.6441837732160314
1.6217008797653958
1.5992179863147604
1.5777126099706744
1.5562072336265884
1.533724340175953
1.5102639296187683
1.4858260019550342
1.4623655913978495
1.4389051808406648
1.414467253176931
1.391006842619746
1.3724340175953078
1.3558162267839686
1.3372434017595307
1.3196480938416422
1.303030303030303
1.2873900293255132
1.2717497556207231
1.2561094819159335
1.2394916911045943
1.2218963831867058
1.2052785923753666
1.1906158357771262
1.1798631476050832
1.1730205278592376
1.1652003910068427
1.1564027370478984
1.147605083088954
1.1378299120234605
1.1290322580645162
1.1192570869990224
1.110459433040078
1.1006842619745845
1.0928641251221896
1.0850439882697946
1.078201368523949
1.075268817204301
1.0733137829912025
1.0694037145650048
1.064516129032258
1.0586510263929618
1.0527859237536656
1.0469208211143697
1.0410557184750733
1.035190615835777
1.0283479960899315
1.0224828934506354
1.0166177908113392
1.0156402737047898
1.0166177908113392
1.0166177908113392
1.0146627565982405
1.010752688172043
1.0058651026392962
1.0019550342130987
0.9980449657869012
0.9941348973607038
0.9921798631476052
0.9912023460410556
0.9902248289345064
0.9902248289345064
0.9912023460410556
0.9921798631476052
0.9912023460410556
0.989247311827957
0.9872922776148584
0.9872922776148584
0.989247311827957
0.997067448680352
1.0156402737047898
1.050830889540567
1.1065493646138806
1.1867057673509287
1.273704789833822
1.3743890518084063
1.5063538611925709
1.6598240469208212
1.826001955034213
1.997067448680352
2.164222873900293
2.321603128054741
2.462365591397849
2.5855327468230693
2.6901270772238512
2.7751710654936463
2.832844574780059
2.870967741935484
2.9042033235581624
2.927663734115347
2.9393939393939394
2.93841642228739
2.9266862170087977
2.905180840664712
2.874877810361681
2.835777126099707
2.787878787878788
2.732160312805474
2.670576735092864
2.6099706744868034
2.549364613880743
2.4838709677419355
2.4173998044965788
2.350928641251222
2.286412512218964
2.225806451612903
2.16911045943304
2.12316715542522
2.085043988269794
2.047898338220919
2.013685239491691
1.986314760508309
1.962854349951124
1.9403714565004888
1.920821114369501
1.903225806451613
1.8875855327468232
1.871945259042033
1.855327468230694
1.8377321603128052
1.8191593352883677
1.801564027370479
1.7839687194525904
1.7653958944281525
1.747800586510264
1.7302052785923754
1.710654936461388
1.689149560117302
1.6656891495601174
1.6412512218963833
1.616813294232649
1.5933528836754642
1.56891495601173
1.543499511241447
1.517106549364614
1.4926686217008798
1.4721407624633431
1.4535679374389052
1.4320625610948192
1.4105571847507332
1.3900293255131966
1.370478983382209
1.3509286412512218
1.3333333333333333
1.316715542521994
1.3010752688172045
1.2854349951124144
1.2717497556207231
1.2590420332355816
1.249266862170088
1.241446725317693
1.23069403714565
1.2179863147605083
1.206256109481916
1.1945259042033236
1.181818181818182
1.1691104594330402
1.1564027370478984
1.1456500488758554
1.1358748778103618
1.126099706744868
1.1192570869990224
1.115347018572825
1.110459433040078
1.104594330400782
1.0987292277614855
1.0928641251221896
1.0869990224828934
1.0811339198435972
1.0742913000977516
1.0684261974584557
1.0625610948191593
1.056695992179863
1.0527859237536656
1.050830889540567
1.0518084066471165
1.0527859237536656
1.050830889540567
1.0488758553274682
1.04594330400782
1.0420332355816226
1.0361681329423265
1.0303030303030305
1.024437927663734
1.018572825024438
1.0127077223851415
1.0117302052785924
1.0117302052785924
1.0097751710654936
1.007820136852395
1.0058651026392962
1.0039100684261977
1.0019550342130987
1.0009775171065494
1.0019550342130987
1.0097751710654936
1.0283479960899315
1.0625610948191593
1.1173020527859236
1.1837732160312806
1.2668621700879763
1.3812316715542523
1.521016617790811
1.6793743890518085
1.8494623655913975
2.0234604105571847
2.1925708699902247
2.350928641251222
2.493646138807429
2.6177908113391983
2.7223851417399803
2.795698924731183
2.84652981427175
2.89345063538612
2.929618768328446
2.9530791788856305
2.9667644183773216
2.9687194525904204
2.9589442815249267
2.93841642228739
2.9071358748778104
2.868035190615836
2.822091886608016
2.7673509286412514
2.7116324535679373
2.6529814271749754
2.5884652981427174
2.5210166177908118
2.452590420332356
2.3841642228739004
2.317693059628544
2.2551319648093844
2.1974584555229715
2.144672531769306
2.096774193548387
2.0557184750733137
2.022482893450636
1.994134897360704
1.9687194525904204
1.9442815249266865
1.921798631476051
1.9012707722385145
1.8836754643206255
1.8670576735092863
1.8494623655913975
1.83088954056696
1.812316715542522
1.7947214076246334
1.7781036168132942
1.7634408602150538
1.7468230694037146
1.721407624633431
1.6959921798631477
1.6695992179863148
1.643206256109482
1.616813294232649
1.5894428152492668
1.5708699902248289
1.5483870967741935
1.520039100684262
1.4965786901270772
1.4819159335288368
1.466275659824047
1.4408602150537635
1.4164222873900294
1.3988269794721409
1.3734115347018572
1.3440860215053765
1.324535679374389
1.3079178885630498
1.2873900293255132
1.2697947214076246
1.2541544477028348
1.241446725317693
1.23069403714565
1.2179863147605083
1.206256109481916
1.195503421309873
1.1857282502443791
1.1759530791788857
1.166177908113392
1.1564027370478984
1.1495601173020529
1.1397849462365592
1.126099706744868
1.1163245356793745
1.1094819159335287
1.1026392961876832
1.096774193548387
1.0899315738025417
1.0840664711632453
1.0811339198435972
1.078201368523949
1.075268817204301
1.0703812316715542
1.0635386119257086
1.056695992179863
1.0527859237536656
1.0527859237536656
1.050830889540567
1.0488758553274682
1.04594330400782
1.043010752688172
1.0410557184750733
1.0381231671554252
1.0361681329423265
1.035190615835777
1.0332355816226784
1.029325513196481
1.024437927663734
1.021505376344086
1.0205278592375366
1.0166177908113392
1.0117302052785924
1.007820136852395
1.0048875855327468
1.002932551319648
1.0019550342130987
1.0019550342130987
1.002932551319648
1.007820136852395
1.0205278592375366
1.0410557184750733
1.075268817204301
1.1300097751710656
1.209188660801564
1.3147605083088951
1.444770283479961
1.595307917888563
1.761485826001955
1.935483870967742
2.10850439882698
2.2737047898338223
2.426197458455523
2.563049853372434
2.6666666666666665
2.7468230694037143
2.823069403714565
2.889540566959922
2.9423264907135875
2.981427174975562
3.004887585532747
3.01564027370479
3.01564027370479
3.003910068426197
2.9824046920821115
2.9530791788856305
2.917888563049853
2.875855327468231
2.8269794721407626
2.771260997067449
2.70772238514174
2.6402737047898337
2.5698924731182795
2.4995112414467253
2.43108504398827
2.3655913978494625
2.304007820136853
2.247311827956989
2.1974584555229715
2.155425219941349
2.118279569892473
2.081133919843597
2.0449657869012707
2.0146627565982405
1.989247311827957
1.9696969696969695
1.9521016617790807
1.9345063538611929
1.9159335288367547
1.8963831867057677
1.8758553274682308
1.858260019550342
1.8416422287390029
1.8240469208211143
1.804496578690127
1.7839687194525904
1.761485826001955
1.7380254154447703
1.7126099706744868
1.686217008797654
1.6608015640273706
1.635386119257087
1.6099706744868034
1.58455522971652
1.5620723362658846
1.5405669599217986
1.517106549364614
1.4936461388074291
1.4721407624633431
1.4516129032258065
1.4320625610948192
1.414467253176931
1.3958944281524928
1.3773216031280548
1.3607038123167154
1.3450635386119256
1.3313782991202343
1.3186705767350928
1.3049853372434017
1.2913000977517106
1.278592375366569
1.2658846529814272
1.2541544477028348
1.241446725317693
1.2297165200391007
1.217008797653959
1.2052785923753666
1.195503421309873
1.1857282502443791
1.1788856304985338
1.173998044965787
1.166177908113392
1.155425219941349
1.144672531769306
1.133919843597263
1.1231671554252198
1.1133919843597262
1.1055718475073313
1.0987292277614855
1.0928641251221896
1.0879765395894427
1.086021505376344
1.086021505376344
1.0840664711632453
1.0801564027370478
1.075268817204301
1.0694037145650048
1.0625610948191593
1.0557184750733135
1.0488758553274682
1.043010752688172
1.0371456500488758
1.032258064516129
1.0283479960899315
1.0283479960899315
1.0283479960899315
1.024437927663734
1.0195503421309873
1.0146627565982405
1.0117302052785924
1.0097751710654936
1.0068426197458455
1.0039100684261977
1.002932551319648
1.0039100684261977
1.0068426197458455
1.0156402737047898
1.032258064516129
1.06158357771261
1.1114369501466277
1.18475073313783
1.2854349951124144
1.4105571847507332
1.5562072336265884
1.7165200391006843
1.884652981427175
2.0547409579667644
2.219941348973607
2.3734115347018574
2.4946236559139785
2.590420332355816
2.684261974584555
2.768328445747801
2.8377321603128056
2.89247311827957
2.9335288367546437
2.961876832844575
2.9775171065493646
2.9804496578690127
2.9716520039100685
2.9501466275659824
2.918866080156403
2.8807429130009776
2.834799608993157
2.782991202346041
2.7253176930596283
2.66177908113392
2.595307917888563
2.5268817204301075
2.4574780058651027
2.389051808406647
2.32355816226784
2.2629521016617797
2.206256109481916
2.158357771260997
2.1163245356793743
2.075268817204301
2.037145650048876
2.003910068426197
1.975562072336266
1.9501466275659824
1.9286412512218964
1.9090909090909087
1.8905180840664717
1.8729227761485825
1.855327468230694
1.8387096774193548
1.823069403714565
1.8054740957966764
1.7869012707722385
1.7673509286412512
1.7458455522971652
1.7223851417399805
1.696969696969697
1.672531769305963
1.6480938416422288
1.6236559139784943
1.6001955034213098
1.576735092864125
1.5562072336265884
1.5356793743890518
1.512218963831867
1.4887585532746823
1.4643206256109482
1.439882697947214
1.4164222873900294
1.3949169110459434
1.375366568914956
1.3587487781036167
1.3411534701857282
1.3235581622678396
1.3088954056695992
1.2981427174975562
1.2854349951124144
1.270772238514174
1.2551319648093842
1.238514173998045
1.2228739002932552
1.2072336265884651
1.1935483870967742
1.1798631476050832
1.1671554252199414
1.1564027370478984
1.1495601173020529
1.144672531769306
1.1368523949169111
1.1290322580645162
1.1202346041055715
1.1124144672531768
1.1055718475073313
1.0987292277614855
1.0909090909090908
1.0821114369501466
1.0742913000977516
1.067448680351906
1.06158357771261
1.0586510263929618
1.056695992179863
1.053763440860215
1.0498533724340176
1.0449657869012707
1.0391006842619743
1.0332355816226784
1.0273704789833822
1.021505376344086
1.0156402737047898
1.0117302052785924
1.007820136852395
1.0068426197458455
1.0068426197458455
1.0058651026392962
1.0048875855327468
1.0058651026392962
1.0068426197458455
1.0068426197458455
1.0068426197458455
1.0058651026392962
1.0039100684261977
1.0009775171065494
0.9980449657869012
0.9951124144672532
0.9951124144672532
0.9980449657869012
1.002932551319648
1.0156402737047898
1.043010752688172
1.0899315738025417
1.160312805474096
1.2561094819159335
1.3763440860215057
1.5180840664711632
1.6764418377321604
1.8435972629521016
1.989247311827957
2.120234604105572
2.260997067448681
2.398826979472141
2.525904203323558
2.638318670576735
2.7311827956989245
2.803519061583578
2.857282502443793
2.89345063538612
2.913000977517106
2.917888563049853
2.9100684261974585
2.8914956011730206
2.863147605083089
2.8289345063538613
2.7859237536656893
2.736070381231672
2.679374389051808
2.618768328445748
2.555229716520039
2.4887585532746823
2.4222873900293256
2.357771260997068
2.2932551319648096
2.2355816226783967
2.1837732160312804
2.131964809384164
2.083088954056696
2.037145650048876
1.997067448680352
1.962854349951124
1.9335288367546437
1.90811339198436
1.8885630498533723
1.8748778103616808
1.8621700879765395
1.8494623655913975
1.8377321603128052
1.825024437927664
1.8093841642228736
1.7927663734115349
1.7741935483870968
1.7546432062561097
1.7341153470185728
1.7126099706744868
1.6901270772238517
1.6666666666666667
1.643206256109482
1.619745845552297
1.6001955034213098
1.5806451612903225
1.5581622678396871
1.5347018572825024
1.5102639296187683
1.487781036168133
1.4652981427174976
1.4437927663734116
1.423264907135875
1.401759530791789
1.3812316715542523
1.359726295210166
1.33822091886608
1.321603128054741
1.3088954056695992
1.2932551319648091
1.2776148582600195
1.2619745845552297
1.2473118279569892
1.2336265884652982
1.2218963831867058
1.2101661779081134
1.1974584555229717
1.1857282502443791
1.173998044965787
1.1652003910068427
1.1573802541544478
1.1485826001955035
1.1397849462365592
1.1300097751710656
1.1221896383186705
1.1143695014662756
1.10752688172043
1.1016617790811338
1.0957966764418376
1.088954056695992
1.083088954056696
1.0772238514173995
1.0742913000977516
1.0733137829912025
1.072336265884653
1.0703812316715542
1.0684261974584557
1.0654936461388074
1.0606060606060606
1.0557184750733135
1.0518084066471165
1.0478983382209188
1.043010752688172
1.0391006842619743
1.0381231671554252
1.0381231671554252
1.0342130987292275
1.029325513196481
1.024437927663734
1.0205278592375366
1.0175953079178883
1.0146627565982405
1.0127077223851415
1.0127077223851415
1.0127077223851415
1.0117302052785924
1.0097751710654936
1.010752688172043
1.0127077223851415
1.013685239491691
1.0156402737047898
1.021505376344086
1.0381231671554252
1.0703812316715542
1.1221896383186705
1.198435972629521
1.3010752688172045
1.4271749755620724
1.5728250244379276
1.710654936461388
1.844574780058651
1.997067448680352
2.15347018572825
2.304007820136853
2.441837732160313
2.563049853372434
2.667644183773216
2.7546432062561097
2.822091886608016
2.870967741935484
2.9012707722385143
2.9149560117302054
2.913000977517106
2.900293255131965
2.881720430107527
2.8563049853372435
2.822091886608016
2.780058651026393
2.730205278592375
2.673509286412512
2.610948191593353
2.544477028347996
2.4750733137829912
2.404692082111437
2.3421309872922778
2.2854349951124147
2.2277614858260018
2.172043010752688
2.120234604105572
2.074291300097752
2.0332355816226784
1.9980449657869013
1.9687194525904204
1.943304007820137
1.919843597262952
1.8993157380254155
1.881720430107527
1.866080156402737
1.8504398826979471
1.8347996089931573
1.8191593352883677
1.8035190615835777
1.7869012707722385
1.7712609970674489
1.7546432062561097
1.737047898338221
1.715542521994135
1.6920821114369502
1.667644183773216
1.6471163245356797
1.6275659824046922
1.606060606060606
1.58455522971652
1.5610948191593352
1.5376344086021505
1.5151515151515151
1.4936461388074291
1.4721407624633431
1.4496578690127078
1.4271749755620724
1.4056695992179864
1.3890518084066472
1.3743890518084063
1.356793743890518
1.3391984359726294
1.3206256109481915
1.303030303030303
1.284457478005865
1.2658846529814272
1.2482893450635386
1.2316715542521994
1.2179863147605083
1.206256109481916
1.195503421309873
1.1886608015640274
1.1837732160312806
1.176930596285435
1.1691104594330402
1.160312805474096
1.1515151515151516
1.142717497556207
1.1329423264907137
1.1251221896383188
1.118279569892473
1.1114369501466277
1.104594330400782
1.1016617790811338
1.099706744868035
1.096774193548387
1.0928641251221896
1.0117302052785924
1.0127077223851415
1.0146627565982405
1.021505376344086
1.0381231671554252
1.0703812316715542
1.1221896383186705
1.198435972629521
1.3010752688172045
1.4076246334310851
1.521994134897361
1.6656891495601174
1.826001955034213
1.9931573802541545
2.158357771260997
2.315738025415445
2.4594330400782014
2.5865102639296187
2.695014662756598
2.7839687194525906
2.8533724340175954
2.897360703812317
2.920821114369501
2.9374389051808407
2.945259042033236
2.943304007820137
2.932551319648094
2.913000977517106
2.8836754643206257
2.84652981427175
2.80058651026393
2.747800586510264
2.687194525904203
2.621700879765396
2.5591397849462365
2.4975562072336266
2.43108504398827
2.3655913978494625
2.3010752688172045
2.2404692082111435
2.185728250244379
2.133919843597263
2.0879765395894427
2.047898338220919
2.013685239491691
1.9843597262952104
1.959921798631476
1.9403714565004888
1.9227761485826005
1.9100684261974583
1.8983382209188664
1.8826979472140764
1.866080156402737
1.8484848484848484
1.828934506353861
1.8084066471163245
1.7869012707722385
1.7653958944281525
1.7438905180840665
1.7243401759530792
1.7057673509286413
1.6852394916911049
1.6608015640273706
1.635386119257087
1.6099706744868034
1.58455522971652
1.5610948191593352
1.5366568914956011
1.512218963831867
1.4887585532746823
1.4643206256109482
1.4428152492668622
1.4242424242424243
1.404692082111437
1.383186705767351
1.3636363636363635
1.3440860215053765
1.3255131964809383
1.3088954056695992
1.2913000977517106
1.2746823069403714
1.2580645161290325
1.241446725317693
1.2267839687194526
1.217008797653959
1.209188660801564
1.2013685239491692
1.1925708699902249
1.1837732160312806
1.173998044965787
1.164222873900293
1.155425219941349
1.1456500488758554
1.1358748778103618
1.1270772238514175
1.118279569892473
1.1133919843597262
1.110459433040078
1.1065493646138806
1.1016617790811338
1.0957966764418376
1.0899315738025417
1.0840664711632453
1.0791788856304985
1.0742913000977516
1.0713587487781036
1.0694037145650048
1.0664711632453567
1.0635386119257086
1.0635386119257086
1.064516129032258
1.0635386119257086
1.06158357771261
1.0576735092864125
1.0547409579667644
1.050830889540567
1.04594330400782
1.0420332355816226
1.0381231671554252
1.0342130987292275
1.0303030303030305
1.029325513196481
1.0303030303030305
1.0303030303030305
1.0283479960899315
1.0254154447702837
1.0205278592375366
1.0156402737047898
1.0127077223851415
1.0117302052785924
1.0156402737047898
1.029325513196481
1.0586510263929618
1.1085043988269794
1.1691104594330402
1.2473118279569892
1.3548387096774193
1.4868035190615836
1.6392961876832846
1.8064516129032255
1.9804496578690127
2.1544477028347995
2.320625610948192
2.472140762463343
2.6070381231671558
2.724340175953079
2.8084066471163247
2.8690127077223853
2.924731182795699
2.9696969696969697
3.002932551319648
3.024437927663734
3.034213098729228
3.03128054740958
3.016617790811339
2.991202346041056
2.9579667644183774
2.9159335288367547
2.8690127077223853
2.817204301075269
2.758553274682307
2.6940371456500487
2.6265884652981426
2.558162267839687
2.489736070381232
2.4242424242424243
2.3626588465298144
2.304007820136853
2.2482893450635384
2.198435972629521
2.1544477028347995
2.118279569892473
2.088954056695992
2.0625610948191597
2.0391006842619745
2.0175953079178885
1.9990224828934504
1.9804496578690127
1.962854349951124
1.9442815249266865
1.9257086999022484
1.90811339198436
1.889540566959922
1.8729227761485825
1.855327468230694
1.833822091886608
1.8113391984359728
1.7878787878787878
1.7624633431085044
1.7360703812316716
1.7096774193548387
1.683284457478006
1.6559139784946235
1.6285434995112416
1.6021505376344083
1.576735092864125
1.555229716520039
1.5347018572825024
1.5131964809384164
1.4926686217008798
1.4711632453567938
1.4506353861192571
1.4301075268817205
1.409579667644184
1.3900293255131966
1.3695014662756595
1.3499511241446724
1.3313782991202343
1.3176930596285434
1.3079178885630498
1.295210166177908
1.2805474095796676
1.2658846529814272
1.2502443792766371
1.2346041055718475
1.219941348973607
1.2082111436950147
1.1974584555229717
1.187683284457478
1.1779081133919844
1.1681329423264908
1.1622678396871946
1.1583577712609971
