ppg
1.3284457478005864
1.303030303030303
1.2805474095796676
1.2668621700879763
1.2717497556207231
1.2942326490713587
1.3391984359726294
1.4193548387096775
1.5347018572825024
1.678396871945259
1.8377321603128052
2.0
2.1515151515151514
2.281524926686217
2.383186705767351
2.455522971652004
2.498533724340176
2.515151515151515
2.512218963831867
2.4916911045943304
2.458455522971652
2.4164222873900294
2.366568914956012
2.3118279569892475
2.2551319648093844
2.198435972629521
2.139784946236559
2.0821114369501466
2.024437927663734
1.9716520039100685
1.921798631476051
1.8670576735092863
1.8074291300097751
1.7438905180840665
1.678396871945259
1.6138807429130009
1.5513196480938416
1.4897360703812317
1.4301075268817205
1.3734115347018572
1.3186705767350928
1.2658846529814272
1.224828934506354
1.1935483870967742
1.1700879765395895
1.1583577712609971
1.1593352883675463
1.1730205278592376
1.2003910068426198
1.238514173998045
1.284457478005865
1.3333333333333333
1.3773216031280548
1.414467253176931
1.4418377321603129
1.458455522971652
1.4672531769305963
1.4682306940371457
1.4633431085043989
1.452590420332356
1.436950146627566
1.4193548387096775
1.3988269794721409
1.375366568914956
1.3499511241446724
1.3235581622678396
1.300097751710655
1.2873900293255132
1.2834799608993157
1.295210166177908
1.3333333333333333
1.404692082111437
1.512218963831867
1.6520039100684265
1.8142717497556209
1.9843597262952104
2.1485826001955037
2.2932551319648096
2.407624633431085
2.482893450635386
2.527859237536657
2.5532746823069403
2.558162267839687
2.541544477028348
2.5083088954056696
2.464320625610948
2.4144672531769307
2.358748778103617
2.3010752688172045
2.243401759530792
2.187683284457478
2.1309872922776147
2.0791788856304985
2.03128054740958
1.978494623655914
1.921798631476051
1.865102639296188
1.8093841642228736
1.7517106549364614
1.689149560117302
1.6256109481915937
1.564027370478983
1.5034213098729228
1.4437927663734116
1.3958944281524928
1.3528836754643203
1.3079178885630498
1.267839687194526
1.2336265884652982
1.2130987292277615
1.2101661779081134
1.2238514173998043
1.252199413489736
1.2913000977517106
1.3362658846529814
1.3812316715542523
1.4203323558162269
1.4496578690127078
1.4711632453567938
1.4868035190615836
1.4946236559139785
1.4936461388074291
1.487781036168133
1.478005865102639
1.4633431085043989
1.4457478005865103
1.4271749755620724
1.4076246334310851
1.3900293255131966
1.375366568914956
1.359726295210166
1.3421309872922775
1.3284457478005864
1.324535679374389
1.3401759530791788
1.3841642228739004
1.4652981427174976
1.581622678396872
1.7272727272727273
1.916911045943304
2.124144672531769
2.300097751710655
2.429130009775171
2.5190615835777126
2.589442815249267
2.634408602150537
2.653958944281525
2.650048875855328
2.627565982404692
2.591397849462365
2.5454545454545454
2.4946236559139785
2.4379276637341154
2.3812316715542523
2.3313782991202348
2.2825024437927666
2.2277614858260018
2.1710654936461387
2.114369501466276
2.0557184750733137
1.9960899315738023
1.9374389051808407
1.87683284457478
1.8132942326490715
1.7497556207233629
1.6881720430107527
1.6265884652981428
1.573802541544477
1.5268817204301075
1.4760508308895406
1.4271749755620724
1.3841642228739004
1.348973607038123
1.324535679374389
1.3147605083088951
1.3196480938416422
1.3391984359726294
1.370478983382209
1.4105571847507332
1.4467253176930597
1.478983382209189
1.5112414467253177
1.541544477028348
1.5650048875855327
1.581622678396872
1.590420332355816
1.5894428152492668
1.5806451612903225
1.565982404692082
1.5483870967741935
1.5298142717497556
1.5083088954056696
1.4887585532746823
1.4711632453567938
1.4486803519061584
1.4242424242424243
1.401759530791789
1.388074291300098
1.3919843597262953
1.4173998044965788
1.4711632453567938
1.5581622678396871
1.6793743890518085
1.8240469208211143
1.9589442815249267
2.0879765395894427
2.2267839687194524
2.3519061583577714
2.4516129032258065
2.5249266862170088
2.5698924731182795
2.587487781036168
2.582600195503421
2.5620723362658846
2.527859237536657
2.4819159335288368
2.429130009775171
2.378299120234604
2.3313782991202348
2.278592375366569
2.219941348973607
2.1622678396871944
2.1065493646138806
2.047898338220919
1.988269794721408
1.9286412512218964
1.866080156402737
1.8005865102639296
1.7360703812316716
1.6823069403714566
1.6334310850439884
1.5786901270772238
1.52297165200391
1.4672531769305963
1.412512218963832
1.3616813294232648
1.3196480938416422
1.2864125122189638
1.2649071358748778
1.2590420332355816
1.267839687194526
1.2864125122189638
1.3118279569892473
1.348973607038123
1.392961876832845
1.4349951124144673
1.4731182795698925
1.5053763440860215
1.5298142717497556
1.547409579667644
1.5562072336265884
1.555229716520039
1.5464320625610948
1.5317693059628543
1.5180840664711632
1.5024437927663734
1.4809384164222874
1.456500488758553
1.43108504398827
1.404692082111437
1.380254154447703
1.3607038123167154
1.3558162267839686
1.3773216031280548
1.4301075268817205
1.5161290322580645
1.6129032258064515
1.7233626588465298
1.8631476050830889
2.016617790811339
2.167155425219941
2.302052785923754
2.409579667644184
2.486803519061584
2.535679374389052
2.5591397849462365
2.558162267839687
2.539589442815249
2.5083088954056696
2.472140762463343
2.432062561094819
2.3851417399804498
2.334310850439883
2.280547409579668
2.222873900293255
2.167155425219941
2.115347018572825
2.0625610948191597
2.005865102639296
1.949169110459433
1.8934506353861196
1.8455522971652003
1.7976539589442817
1.7419354838709675
1.6842619745845553
1.624633431085044
1.564027370478983
1.5053763440860215
1.4486803519061584
1.3949169110459434
1.346041055718475
1.3069403714565004
1.2805474095796676
1.2688172043010753
1.2697947214076246
1.281524926686217
1.305962854349951
1.3421309872922775
1.3870967741935485
1.4320625610948192
1.4711632453567938
1.504398826979472
1.5298142717497556
1.5454545454545454
1.5513196480938416
1.5513196480938416
1.547409579667644
1.5386119257087
1.5249266862170088
1.5073313782991202
1.490713587487781
1.4731182795698925
1.452590420332356
1.4291300097751711
1.4037145650048877
1.3822091886608017
1.375366568914956
1.393939393939394
1.4457478005865103
1.5151515151515151
1.608993157380254
1.739980449657869
1.8934506353861196
2.058651026392962
2.219941348973607
2.361681329423265
2.4750733137829912
2.557184750733138
2.6080156402737047
2.63049853372434
2.6265884652981426
2.6041055718475072
2.570869990224829
2.5268817204301075
2.4750733137829912
2.418377321603128
2.361681329423265
2.3059628543499517
2.251221896383187
2.196480938416422
2.1436950146627565
2.09188660801564
2.037145650048876
1.9794721407624636
1.9266862170087975
1.8748778103616808
1.81524926686217
1.750733137829912
1.683284457478006
1.616813294232649
1.555229716520039
1.4975562072336266
1.4428152492668622
1.393939393939394
1.3528836754643203
1.3196480938416422
1.2981427174975562
1.289345063538612
1.2903225806451613
1.3020527859237536
1.3264907135874875
1.3626588465298142
1.4066471163245358
1.4506353861192571
1.490713587487781
1.525904203323558
1.5542521994134897
1.5728250244379276
1.5826001955034212
1.585532746823069
1.585532746823069
1.5806451612903225
1.56891495601173
1.5532746823069403
1.5356793743890518
1.5151515151515151
1.490713587487781
1.4652981427174976
1.4389051808406648
1.4173998044965788
1.409579667644184
1.4193548387096775
1.4516129032258065
1.5161290322580645
1.6177908113391983
1.7605083088954057
1.9286412512218964
2.096774193548387
2.2551319648093844
2.3919843597262958
2.5024437927663734
2.5835777126099706
2.634408602150537
2.656891495601173
2.656891495601173
2.638318670576735
2.6050830889540566
2.5620723362658846
2.5131964809384164
2.4604105571847508
2.406647116324536
2.35386119257087
2.3010752688172045
2.249266862170088
2.19941348973607
2.1515151515151514
2.10752688172043
2.0635386119257086
2.0127077223851417
1.9579667644183771
1.900293255131965
1.8387096774193548
1.7771260997067448
1.7165200391006843
1.6549364613880744
1.5972629521016617
1.542521994134897
1.490713587487781
1.4437927663734116
1.4086021505376345
1.3851417399804498
1.370478983382209
1.3695014662756595
1.3812316715542523
1.4066471163245358
1.4437927663734116
1.4868035190615836
1.5268817204301075
1.5620723362658846
1.5913978494623655
1.611925708699902
1.6256109481915937
1.632453567937439
1.632453567937439
1.629521016617791
1.624633431085044
1.6158357771260996
1.6021505376344083
1.5835777126099706
1.5610948191593352
1.5376344086021505
1.512218963831867
1.4868035190615836
1.4643206256109482
1.4516129032258065
1.4545454545454546
1.478983382209189
1.5288367546432062
1.606060606060606
1.7145650048875856
1.847507331378299
1.9931573802541545
2.1388074291300097
2.271749755620724
2.383186705767351
2.469208211143695
2.5239491691104594
2.552297165200391
2.5640273704789838
2.5562072336265884
2.533724340175953
2.496578690127077
2.4486803519061584
2.396871945259042
2.3421309872922778
2.2844574780058653
2.225806451612903
2.16911045943304
2.1221896383186705
2.0772238514174
2.0254154447702835
1.9726295210166176
1.919843597262952
1.866080156402737
1.8103616813294232
1.750733137829912
1.6852394916911049
1.619745845552297
1.5581622678396871
1.498533724340176
1.4408602150537635
1.3949169110459434
1.356793743890518
1.321603128054741
1.2932551319648091
1.273704789833822
1.267839687194526
1.2756598240469208
1.2971652003910068
1.3294232649071358
1.3695014662756595
1.4134897360703813
1.456500488758553
1.4926686217008798
1.521016617790811
1.542521994134897
1.5581622678396871
1.565982404692082
1.5650048875855327
1.5571847507331378
1.544477028347996
1.530791788856305
1.512218963831867
1.4897360703812317
1.466275659824047
1.4408602150537635
1.418377321603128
1.3978494623655917
1.3743890518084063
1.3548387096774193
1.348973607038123
1.3636363636363635
1.4056695992179864
1.478983382209189
1.5786901270772238
1.7008797653958945
1.8377321603128052
1.975562072336266
2.089931573802541
2.1837732160312804
2.267839687194526
2.329423264907136
2.3685239491691106
2.386119257086999
2.383186705767351
2.364613880742913
2.332355816226784
2.290322580645161
2.2404692082111435
2.1847507331378297
2.1309872922776147
2.085043988269794
2.0391006842619745
1.989247311827957
1.93841642228739
1.8866080156402736
1.8318670576735088
1.7741935483870968
1.7165200391006843
1.6588465298142718
1.6021505376344083
1.547409579667644
1.4946236559139785
1.4506353861192571
1.414467253176931
1.3782991202346042
1.3470185728250244
1.3255131964809383
1.3147605083088951
1.316715542521994
1.332355816226784
1.359726295210166
1.3978494623655917
1.4428152492668622
1.4897360703812317
1.5317693059628543
1.565982404692082
1.5933528836754642
1.6148582600195502
1.6285434995112416
1.6334310850439884
1.6314760508308896
1.6226783968719452
1.6080156402737047
1.5913978494623655
1.573802541544477
1.5562072336265884
1.541544477028348
1.530791788856305
1.520039100684262
1.5053763440860215
1.4897360703812317
1.479960899315738
1.4868035190615836
1.5180840664711632
1.5786901270772238
1.6735092864125125
1.7976539589442817
1.9423264907135875
2.096774193548387
2.247311827956989
2.3655913978494625
2.4545454545454546
2.525904203323558
2.572825024437928
2.593352883675464
2.590420332355816
2.5698924731182795
2.535679374389052
2.490713587487781
2.4389051808406648
2.386119257086999
2.3304007820136854
2.278592375366569
2.231671554252199
2.1818181818181817
2.132942326490713
2.083088954056696
2.0283479960899315
1.9736070381231672
1.920821114369501
1.8670576735092863
1.8113391984359728
1.7546432062561097
1.696969696969697
1.6373411534701858
1.5865102639296187
1.543499511241447
1.495601173020528
1.4496578690127078
1.4105571847507332
1.3812316715542523
1.3616813294232648
1.35386119257087
1.359726295210166
1.3782991202346042
1.4066471163245358
1.4418377321603129
1.478005865102639
1.5102639296187683
1.542521994134897
1.5718475073313782
1.5923753665689149
1.606060606060606
1.6129032258064515
1.6129032258064515
1.6099706744868034
1.603128054740958
1.5933528836754642
1.5806451612903225
1.5650048875855327
1.5503421309872922
1.5347018572825024
1.5141739980449658
1.490713587487781
1.469208211143695
1.457478005865103
1.4643206256109482
1.500488758553275
1.5698924731182795
1.6735092864125125
1.8132942326490715
1.9716520039100685
2.110459433040078
2.231671554252199
2.3528836754643208
2.4574780058651027
2.5347018572825024
2.582600195503421
2.6041055718475072
2.6041055718475072
2.58455522971652
2.549364613880743
2.505376344086021
2.455522971652004
2.4027370478983383
2.3548387096774195
2.310850439882698
2.2639296187683287
2.2170087976539588
2.172043010752688
2.126099706744868
2.0772238514174
2.026392961876833
1.9765395894428155
1.9237536656891496
1.866080156402737
1.8084066471163245
1.7595307917888563
1.7145650048875856
1.6627565982404693
1.608993157380254
1.5571847507331378
1.5083088954056696
1.4633431085043989
1.4281524926686218
1.4076246334310851
1.3988269794721409
1.4027370478983383
1.4203323558162269
1.4437927663734116
1.474095796676442
1.5141739980449658
1.5562072336265884
1.5943304007820136
1.6256109481915937
1.6480938416422288
1.6588465298142718
1.6608015640273706
1.6588465298142718
1.6520039100684265
1.6392961876832846
1.6236559139784943
1.6099706744868034
1.5962854349951123
1.5786901270772238
1.5571847507331378
1.5347018572825024
1.5141739980449658
1.4975562072336266
1.487781036168133
1.4936461388074291
1.5239491691104594
1.5865102639296187
1.6803519061583578
1.7820136852394917
1.889540566959922
2.0195503421309877
2.155425219941349
2.2825024437927666
2.389051808406647
2.472140762463343
2.525904203323558
2.5513196480938416
2.5532746823069403
2.5376344086021505
2.50733137829912
2.466275659824047
2.4222873900293256
2.378299120234604
2.332355816226784
2.2844574780058653
2.2355816226783967
2.187683284457478
2.1407624633431084
2.090909090909091
2.0391006842619745
1.9853372434017595
1.927663734115347
1.868035190615836
1.8162267839687196
1.7702834799608993
1.7194525904203324
1.6666666666666667
1.6138807429130009
1.563049853372434
1.512218963831867
1.4652981427174976
1.4252199413489737
1.3919843597262953
1.3695014662756595
1.3587487781036167
1.3587487781036167
1.3685239491691104
1.3870967741935485
1.4164222873900294
1.4535679374389052
1.4936461388074291
1.5317693059628543
1.5650048875855327
1.5923753665689149
1.6129032258064515
1.624633431085044
1.6285434995112416
1.624633431085044
1.6158357771260996
1.6050830889540566
1.590420332355816
1.5728250244379276
1.5513196480938416
1.5278592375366569
1.504398826979472
1.482893450635386
1.4711632453567938
1.474095796676442
1.5024437927663734
1.5610948191593352
1.6490713587487782
1.7458455522971652
1.8543499511241448
1.989247311827957
2.133919843597263
2.274682306940372
2.3978494623655915
2.4946236559139785
2.5640273704789838
2.6050830889540566
2.6207233626588464
2.6148582600195502
2.589442815249267
2.557184750733138
2.5190615835777126
2.472140762463343
2.4222873900293256
2.372434017595308
2.3225806451612905
2.271749755620724
2.217986314760508
2.163245356793744
2.10850439882698
2.0527859237536656
1.9951124144672527
1.935483870967742
1.8826979472140764
1.8347996089931573
1.782991202346041
1.729227761485826
1.6744868035190617
1.6207233626588464
1.56891495601173
1.5180840664711632
1.4711632453567938
1.4320625610948192
1.4037145650048877
1.388074291300098
1.3851417399804498
1.391006842619746
1.4076246334310851
1.435972629521017
1.474095796676442
1.5161290322580645
1.5571847507331378
1.5933528836754642
1.6217008797653958
1.6422287390029326
1.6549364613880744
1.6588465298142718
1.6578690127077225
1.6559139784946235
1.6500488758553276
1.6383186705767352
1.6226783968719452
1.606060606060606
1.5865102639296187
1.5650048875855327
1.544477028347996
1.5327468230694037
1.5366568914956011
1.5610948191593352
1.6158357771260996
1.686217008797654
1.7771260997067448
1.902248289345064
2.046920821114369
2.1974584555229715
2.3391984359726297
2.4613880742913
2.558162267839687
2.627565982404692
2.670576735092864
2.687194525904203
2.681329423264907
2.656891495601173
2.6236559139784945
2.5835777126099706
2.535679374389052
2.482893450635386
2.4271749755620724
2.3714565004887587
2.318670576735093
2.267839687194526
2.217986314760508
2.1681329423264906
2.120234604105572
2.071358748778104
2.0254154447702835
1.9804496578690127
1.9286412512218964
1.871945259042033
1.8142717497556209
1.7575757575757576
1.699902248289345
1.643206256109482
1.5894428152492668
1.5395894428152492
1.4965786901270772
1.4623655913978495
1.4408602150537635
1.4330400782013686
1.436950146627566
1.4506353861192571
1.4750733137829912
1.5053763440860215
1.5376344086021505
1.5698924731182795
1.6011730205278591
1.629521016617791
1.6500488758553276
1.66177908113392
1.6656891495601174
1.6666666666666667
1.664711632453568
1.6578690127077225
1.6451612903225807
1.629521016617791
1.6109481915933528
1.5894428152492668
1.565982404692082
1.541544477028348
1.520039100684262
1.5083088954056696
1.5131964809384164
1.541544477028348
1.5865102639296187
1.653958944281525
1.7575757575757576
1.8885630498533723
2.027370478983382
2.1652003910068425
2.2961876832844577
2.4086021505376345
2.493646138807429
2.552297165200391
2.58455522971652
2.591397849462365
2.579667644183773
2.5542521994134897
2.5180840664711632
2.474095796676442
2.4222873900293256
2.3685239491691106
2.313782991202346
2.2551319648093844
2.19941348973607
2.146627565982405
2.09188660801564
2.0361681329423265
1.988269794721408
1.946236559139785
1.8983382209188664
1.844574780058651
1.7888563049853372
1.7331378299120237
1.6774193548387095
1.6226783968719452
1.5708699902248289
1.5180840664711632
1.4652981427174976
1.4173998044965788
1.3763440860215057
1.3479960899315735
1.3304007820136852
1.3206256109481915
1.321603128054741
1.3343108504398826
1.3577712609970674
1.391006842619746
1.43108504398827
1.4721407624633431
1.5073313782991202
1.5356793743890518
1.5562072336265884
1.56891495601173
1.5728250244379276
1.5718475073313782
1.5650048875855327
1.5542521994134897
1.542521994134897
1.5278592375366569
1.5073313782991202
1.4848484848484849
1.4613880742913
1.436950146627566
1.4134897360703813
1.3958944281524928
1.3900293255131966
1.404692082111437
1.4457478005865103
1.5180840664711632
1.6187683284457477
1.7419354838709675
1.878787878787879
2.0175953079178885
2.144672531769306
2.251221896383187
2.335288367546432
2.396871945259042
2.432062561094819
2.4486803519061584
2.450635386119257
2.4359726295210167
2.407624633431085
2.372434017595308
2.3313782991202348
2.2854349951124147
2.2346041055718477
2.179863147605083
2.124144672531769
2.0684261974584555
2.013685239491691
1.967741935483871
1.924731182795699
1.873900293255132
1.8191593352883677
1.7634408602150538
1.70772238514174
1.6520039100684265
1.5972629521016617
1.5454545454545454
1.4946236559139785
1.4437927663734116
1.3988269794721409
1.3665689149560116
1.346041055718475
1.332355816226784
1.3284457478005864
1.3362658846529814
1.3528836754643203
1.375366568914956
1.4037145650048877
1.435972629521017
1.4711632453567938
1.504398826979472
1.5317693059628543
1.5513196480938416
1.564027370478983
1.573802541544477
1.5786901270772238
1.576735092864125
1.5679374389051808
1.555229716520039
1.541544477028348
1.5239491691104594
1.5024437927663734
1.478983382209189
1.455522971652004
1.434017595307918
1.4213098729227762
1.4252199413489737
1.4516129032258065
1.5083088954056696
1.5972629521016617
1.7165200391006843
1.858260019550342
2.0117302052785924
2.163245356793744
2.3010752688172045
2.41544477028348
2.498533724340176
2.5513196480938416
2.5747800586510263
2.576735092864125
2.5640273704789838
2.5376344086021505
2.4995112414467253
2.452590420332356
2.40078201368524
2.347018572825025
2.29227761485826
2.236559139784946
2.1818181818181817
2.1300097751710654
2.0840664711632453
2.042033235581622
1.9980449657869013
1.951124144672532
1.902248289345064
1.8533724340175952
1.8025415444770283
1.7487781036168133
1.694037145650049
1.6392961876832846
1.58455522971652
1.5347018572825024
1.4897360703812317
1.4545454545454546
1.426197458455523
1.4007820136852396
1.3851417399804498
1.380254154447703
1.3870967741935485
1.4056695992179864
1.434017595307918
1.4682306940371457
1.504398826979472
1.5376344086021505
1.5669599217986314
1.587487781036168
1.6011730205278591
1.6099706744868034
1.6129032258064515
1.608993157380254
1.6011730205278591
1.590420332355816
1.5777126099706744
1.564027370478983
1.5503421309872922
1.5347018572825024
1.5141739980449658
1.4916911045943304
1.474095796676442
1.4652981427174976
1.4682306940371457
1.4936461388074291
1.5483870967741935
1.635386119257087
1.7526881720430108
1.8905180840664717
2.035190615835777
2.174975562072336
2.2991202346041058
2.398826979472141
2.464320625610948
2.5034213098729228
2.525904203323558
2.527859237536657
2.5131964809384164
2.486803519061584
2.450635386119257
2.4056695992179864
2.356793743890518
2.30791788856305
2.2580645161290325
2.2082111436950145
2.157380254154448
2.110459433040078
2.064516129032258
2.013685239491691
1.9618768328445748
1.911045943304008
1.8602150537634408
1.8103616813294232
1.7595307917888563
1.7057673509286413
1.651026392961877
1.5972629521016617
1.5454545454545454
1.5024437927663734
1.4633431085043989
1.4222873900293256
1.388074291300098
1.364613880742913
1.35386119257087
1.356793743890518
1.370478983382209
1.3949169110459434
1.4281524926686218
1.4672531769305963
1.5034213098729228
1.5356793743890518
1.5610948191593352
1.5806451612903225
1.5943304007820136
1.603128054740958
1.606060606060606
1.6011730205278591
1.5894428152492668
1.573802541544477
1.5571847507331378
1.5376344086021505
1.517106549364614
1.495601173020528
1.47702834799609
1.4633431085043989
1.4506353861192571
1.4428152492668622
1.447702834799609
1.4750733137829912
1.530791788856305
1.6158357771260996
1.7302052785923754
1.865102639296188
2.0087976539589443
2.172043010752688
2.320625610948192
2.43108504398827
2.5210166177908118
2.58455522971652
2.619745845552297
2.6285434995112413
2.6148582600195502
2.5835777126099706
2.5376344086021505
2.4838709677419355
2.4271749755620724
2.3685239491691106
2.3088954056695994
2.2561094819159337
2.2082111436950145
2.155425219941349
2.1006842619745845
2.046920821114369
1.9931573802541545
1.93841642228739
1.881720430107527
1.8240469208211143
1.7634408602150538
1.7008797653958945
1.635386119257087
1.5796676441837731
1.5327468230694037
1.4809384164222874
1.4281524926686218
1.3782991202346042
1.335288367546432
1.3049853372434017
1.2903225806451613
1.2903225806451613
1.3020527859237536
1.3264907135874875
1.359726295210166
1.3978494623655917
1.434017595307918
1.4682306940371457
1.499511241446725
1.5239491691104594
1.541544477028348
1.552297165200391
1.5562072336265884
1.5542521994134897
1.5464320625610948
1.533724340175953
1.520039100684262
1.5063538611925709
1.4936461388074291
1.478983382209189
1.457478005865103
1.4320625610948192
1.4056695992179864
1.383186705767351
1.375366568914956
1.392961876832845
1.444770283479961
1.5327468230694037
1.6529814271749756
1.7986314760508308
1.9560117302052784
2.093841642228739
2.2140762463343107
2.333333333333333
2.434017595307918
2.5102639296187683
2.5610948191593352
2.58455522971652
2.5855327468230693
2.5669599217986314
2.532746823069404
2.486803519061584
2.434017595307918
2.3841642228739004
2.3362658846529816
2.280547409579668
2.218963831867057
2.155425219941349
2.09188660801564
2.0303030303030303
1.970674486803519
1.9130009775171064
1.8514173998044965
1.7869012707722385
