ppg
0.841642228739003
0.841642228739003
0.8475073313782991
0.8641251221896383
0.8993157380254154
0.9501466275659824
1.0205278592375366
1.1221896383186705
1.2541544477028348
1.409579667644184
1.5806451612903225
1.7605083088954057
1.93841642228739
2.1065493646138806
2.2580645161290325
2.386119257086999
2.490713587487781
2.573802541544477
2.6295210166177907
2.66177908113392
2.6832844574780057
2.6930596285435
2.689149560117302
2.6715542521994133
2.643206256109482
2.6070381231671558
2.563049853372434
2.5131964809384164
2.4565004887585533
2.396871945259042
2.3421309872922778
2.289345063538612
2.2346041055718477
2.176930596285435
2.115347018572825
2.0527859237536656
1.9951124144672527
1.9423264907135875
1.89247311827957
1.847507331378299
1.812316715542522
1.7839687194525904
1.7605083088954057
1.7429130009775171
1.7311827956989247
1.7223851417399805
1.7145650048875856
1.7096774193548387
1.7057673509286413
1.7008797653958945
1.6950146627565983
1.6881720430107527
1.6774193548387095
1.6598240469208212
1.6373411534701858
1.616813294232649
1.5962854349951123
1.5728250244379276
1.547409579667644
1.520039100684262
1.4926686217008798
1.4672531769305963
1.4418377321603129
1.4134897360703813
1.3851417399804498
1.3558162267839686
1.3255131964809383
1.2971652003910068
1.2756598240469208
1.2570869990224829
1.2365591397849462
1.2140762463343109
1.1935483870967742
1.1779081133919844
1.164222873900293
1.147605083088954
1.130987292277615
1.1133919843597262
1.0957966764418376
1.0791788856304985
1.0684261974584557
1.0625610948191593
1.056695992179863
1.050830889540567
1.0449657869012707
1.0391006842619743
1.0332355816226784
1.0273704789833822
1.021505376344086
1.0156402737047898
1.0097751710654936
1.0039100684261977
0.9980449657869012
0.9951124144672532
0.9921798631476052
0.9843597262952102
0.975562072336266
0.9687194525904204
0.9608993157380256
0.9511241446725318
0.9413489736070382
0.9335288367546432
0.9266862170087976
0.916911045943304
0.906158357771261
0.9012707722385142
0.8983382209188661
0.8944281524926686
0.8905180840664711
0.8885630498533724
0.8875855327468231
0.8875855327468231
0.8875855327468231
0.8875855327468231
0.8875855327468231
0.8856304985337243
0.8817204301075269
0.8768328445747801
0.8748778103616813
0.8719452590420332
0.8660801564027371
0.8602150537634409
0.8543499511241447
0.8484848484848485
0.8435972629521017
0.841642228739003
0.8406647116324536
0.841642228739003
0.8475073313782991
0.8641251221896383
0.8914956011730205
0.9374389051808406
1.0097751710654936
1.1094819159335287
1.2365591397849462
1.388074291300098
1.5581622678396871
1.739980449657869
1.9257086999022484
2.103616813294233
2.2658846529814274
2.404692082111437
2.5190615835777126
2.5992179863147604
2.653958944281525
2.6989247311827955
2.729227761485826
2.742913000977517
2.7419354838709675
2.729227761485826
2.7067448680351904
2.674486803519061
2.633431085043988
2.5855327468230693
2.5347018572825024
2.4858260019550342
2.4389051808406648
2.388074291300098
2.3313782991202348
2.270772238514174
2.207233626588465
2.142717497556207
2.0791788856304985
2.0205278592375366
1.9687194525904204
1.9227761485826005
1.8856304985337244
1.8563049853372435
1.833822091886608
1.818181818181818
1.8074291300097751
1.8005865102639296
1.7956989247311828
1.790811339198436
1.7849462365591398
1.7761485826001957
1.7624633431085044
1.7468230694037146
1.7302052785923754
1.7126099706744868
1.696969696969697
1.6813294232649072
1.664711632453568
1.696969696969697
1.7526881720430108
1.7673509286412512
1.7624633431085044
1.7458455522971652
1.7204301075268815
1.686217008797654
1.64613880742913
1.606060606060606
1.573802541544477
1.543499511241447
1.5063538611925709
1.4711632453567938
1.4379276637341154
1.4027370478983383
1.3665689149560116
1.3313782991202343
1.2991202346041055
1.2727272727272727
1.2502443792766371
1.2297165200391007
1.2101661779081134
1.195503421309873
1.1837732160312806
1.1710654936461389
1.1622678396871946
1.1544477028347997
1.147605083088954
1.1407624633431086
1.1358748778103618
1.1319648093841643
1.1300097751710656
1.130987292277615
1.1329423264907137
1.1378299120234605
1.1436950146627567
1.1485826001955035
1.1534701857282503
1.1593352883675463
1.1652003910068427
1.1710654936461389
1.1759530791788857
1.1788856304985338
1.1798631476050832
1.1788856304985338
1.176930596285435
1.1759530791788857
1.1779081133919844
1.1837732160312806
1.1896383186705768
1.1964809384164223
1.2023460410557183
1.2082111436950147
1.2150537634408602
1.2209188660801564
1.2267839687194526
1.2336265884652982
1.238514173998045
1.2404692082111437
1.2434017595307918
1.24633431085044
1.2482893450635386
1.249266862170088
1.249266862170088
1.249266862170088
1.249266862170088
1.249266862170088
1.2473118279569892
1.2453567937438903
1.2453567937438903
1.252199413489736
1.267839687194526
1.29227761485826
1.3343108504398826
1.401759530791789
1.4975562072336266
1.624633431085044
1.782991202346041
1.9667644183773216
2.167155425219941
2.376344086021505
2.581622678396872
2.773216031280548
2.941348973607038
3.0664711632453567
3.1593352883675463
3.2453567937438903
3.312805474095797
3.358748778103617
3.383186705767351
3.389051808406647
3.3812316715542523
3.3655913978494625
3.3421309872922778
3.3098729227761488
3.270772238514174
3.2248289345063537
3.1739980449657867
3.117302052785924
3.0527859237536656
2.983382209188661
2.90811339198436
2.8289345063538613
2.745845552297165
2.6608015640273703
2.579667644183773
2.5034213098729228
2.432062561094819
2.3685239491691106
2.3167155425219943
2.275659824046921
2.2404692082111435
2.2140762463343107
2.1945259042033234
2.177908113391984
2.163245356793744
2.150537634408602
2.1358748778103616
2.118279569892473
2.096774193548387
2.072336265884653
2.0439882697947214
2.0175953079178885
1.9902248289345064
1.959921798631476
1.9286412512218964
1.8973607038123168
1.866080156402737
1.836754643206256
1.8064516129032255
1.7761485826001957
1.7448680351906158
1.710654936461388
1.6764418377321604
1.6490713587487782
1.624633431085044
1.5972629521016617
1.56891495601173
1.544477028347996
1.52297165200391
1.5024437927663734
1.482893450635386
1.4633431085043989
1.4467253176930597
1.4320625610948192
1.418377321603128
1.4037145650048877
1.3900293255131966
1.3782991202346042
1.3665689149560116
1.3548387096774193
1.3421309872922775
1.3294232649071358
1.316715542521994
1.3049853372434017
1.29227761485826
1.281524926686217
1.2717497556207231
1.260019550342131
1.2512218963831867
1.2453567937438903
1.2394916911045943
1.2336265884652982
1.227761485826002
1.2209188660801564
1.2150537634408602
1.209188660801564
1.2023460410557183
1.1964809384164223
1.1906158357771262
1.1837732160312806
1.1779081133919844
1.1749755620723363
1.1730205278592376
1.1691104594330402
1.164222873900293
1.1583577712609971
1.152492668621701
1.1466275659824048
1.1407624633431086
1.133919843597263
1.126099706744868
1.1173020527859236
1.1065493646138806
1.0987292277614855
1.0948191593352885
1.0899315738025417
1.0811339198435972
1.0703812316715542
1.0606060606060606
1.0488758553274682
1.0391006842619743
1.029325513196481
1.0195503421309873
1.0117302052785924
1.0058651026392962
1.007820136852395
1.0195503421309873
1.0410557184750733
1.0801564027370478
1.144672531769306
1.238514173998045
1.3655913978494625
1.520039100684262
1.696969696969697
1.8856304985337244
2.078201368523949
2.2658846529814274
2.4408602150537635
2.5777126099706744
2.6852394916911044
2.7859237536656893
2.8690127077223853
2.930596285434995
2.9716520039100685
2.9960899315738025
3.004887585532747
3.0
2.9853372434017595
2.963831867057673
2.936461388074292
2.903225806451613
2.865102639296188
2.823069403714565
2.777126099706745
2.724340175953079
2.6666666666666665
2.6070381231671558
2.544477028347996
2.4789833822091887
2.4134897360703813
2.350928641251222
2.29227761485826
2.2375366568914954
2.193548387096774
2.157380254154448
2.1251221896383186
2.0987292277614857
2.0772238514174
2.060606060606061
2.04594330400782
2.032258064516129
2.0205278592375366
2.0117302052785924
2.004887585532747
1.9980449657869013
1.9902248289345064
1.978494623655914
1.962854349951124
1.943304007820137
1.9178885630498532
1.889540566959922
1.86119257086999
1.8347996089931573
1.8084066471163245
1.7820136852394917
1.721407624633431
1.6441837732160314
1.590420332355816
1.5532746823069403
1.525904203323558
1.500488758553275
1.4760508308895406
1.4535679374389052
1.4349951124144673
1.4173998044965788
1.401759530791789
1.3861192570869991
1.370478983382209
1.3548387096774193
1.3391984359726294
1.327468230694037
1.3186705767350928
1.3088954056695992
1.2991202346041055
1.289345063538612
1.2795698924731185
1.2688172043010753
1.2580645161290325
1.2482893450635386
1.2375366568914956
1.227761485826002
1.217008797653959
1.2082111436950147
1.203323558162268
1.2013685239491692
1.1974584555229717
1.1935483870967742
1.1886608015640274
1.1837732160312806
1.1788856304985338
1.173998044965787
1.1681329423264908
1.163245356793744
1.1583577712609971
1.152492668621701
1.1495601173020529
1.1456500488758554
1.13880742913001
1.1329423264907137
1.1270772238514175
1.1221896383186705
1.1173020527859236
1.1114369501466277
1.1065493646138806
1.1016617790811338
1.0957966764418376
1.0899315738025417
1.0811339198435972
1.075268817204301
1.072336265884653
1.0664711632453567
1.0576735092864125
1.050830889540567
1.0439882697947214
1.0361681329423265
1.0283479960899315
1.0195503421309873
1.0097751710654936
1.0009775171065494
0.9960899315738024
0.9960899315738024
0.9980449657869012
1.0009775171065494
1.0097751710654936
1.0312805474095796
1.0684261974584557
1.1270772238514175
1.2111436950146628
1.3196480938416422
1.4496578690127078
1.5972629521016617
1.7546432062561097
1.9149560117302051
2.050830889540567
2.1652003910068425
2.278592375366569
2.380254154447703
2.462365591397849
2.5239491691104594
2.567937438905181
2.595307917888563
2.606060606060606
2.6021505376344085
2.587487781036168
2.563049853372434
2.533724340175953
2.5004887585532747
2.463343108504399
2.421309872922776
2.378299120234604
2.334310850439883
2.283479960899316
2.228739002932551
2.1730205278592374
2.113391984359726
2.0547409579667644
1.9990224828934504
1.948191593352884
1.906158357771261
1.871945259042033
1.842619745845552
1.8172043010752688
1.7976539589442817
1.7839687194525904
1.775171065493646
1.7683284457478006
1.761485826001955
1.7556207233626588
1.7487781036168133
1.7409579667644184
1.7311827956989247
1.7204301075268815
1.7067448680351909
1.6920821114369502
1.6764418377321604
1.6578690127077225
1.6373411534701858
1.6138807429130009
1.5894428152492668
1.564027370478983
1.5405669599217986
1.517106549364614
1.4926686217008798
1.4711632453567938
1.4496578690127078
1.4242424242424243
1.3978494623655917
1.3743890518084063
1.3528836754643203
1.3313782991202343
1.3118279569892473
1.295210166177908
1.2825024437927663
1.2697947214076246
1.2551319648093842
1.2424242424242424
1.2297165200391007
1.2160312805474096
1.2023460410557183
1.1906158357771262
1.1808406647116323
1.1710654936461389
1.1622678396871946
1.1544477028347997
1.1485826001955035
1.142717497556207
1.1378299120234605
1.1319648093841643
1.1290322580645162
1.1280547409579669
1.1251221896383188
1.121212121212121
1.1163245356793745
1.1114369501466277
1.1036168132942326
1.093841642228739
1.083088954056696
1.0713587487781036
1.0596285434995112
1.0498533724340176
1.0449657869012707
1.0420332355816226
1.0381231671554252
1.035190615835777
1.0332355816226784
1.032258064516129
1.032258064516129
1.032258064516129
1.032258064516129
1.032258064516129
1.0303030303030305
1.0273704789833822
1.0273704789833822
1.029325513196481
1.0303030303030305
1.029325513196481
1.0263929618768328
1.0224828934506354
1.0175953079178883
1.0146627565982405
1.0117302052785924
1.007820136852395
1.0039100684261977
1.0019550342130987
1.0009775171065494
1.002932551319648
1.0068426197458455
1.0087976539589445
1.010752688172043
1.0175953079178883
1.029325513196481
1.053763440860215
1.0977517106549364
1.1652003910068427
1.2570869990224829
1.3724340175953078
1.5083088954056696
1.6383186705767352
1.7653958944281525
1.9100684261974583
2.058651026392962
2.19941348973607
2.3255131964809386
2.4301075268817205
2.5131964809384164
2.576735092864125
2.618768328445748
2.641251221896383
2.6471163245356792
2.641251221896383
2.6265884652981426
2.6050830889540566
2.5777126099706744
2.544477028347996
2.5083088954056696
2.4701857282502444
2.4271749755620724
2.383186705767351
2.335288367546432
2.281524926686217
2.2248289345063537
2.1681329423264906
2.1163245356793743
2.0684261974584555
2.018572825024438
1.970674486803519
1.9286412512218964
1.8934506353861196
1.8670576735092863
1.8494623655913975
1.8387096774193548
1.83088954056696
1.826001955034213
1.8240469208211143
1.823069403714565
1.8201368523949168
1.81524926686217
1.8064516129032255
1.793743890518084
1.780058651026393
1.7624633431085044
1.7409579667644184
1.7174975562072337
1.694037145650049
1.6715542521994136
1.6500488758553276
1.629521016617791
1.6099706744868034
1.5884652981427174
1.5620723362658846
1.5356793743890518
1.5347018572825024
1.5464320625610948
1.5395894428152492
1.5239491691104594
1.504398826979472
1.4838709677419355
1.4623655913978495
1.4428152492668622
1.423264907135875
1.409579667644184
1.3958944281524928
1.380254154447703
1.3655913978494625
1.3528836754643203
1.3401759530791788
1.327468230694037
1.3147605083088951
1.3020527859237536
1.2883675464320623
1.273704789833822
1.2619745845552297
1.2561094819159335
1.2531769305962854
1.2482893450635386
1.2434017595307918
1.2375366568914956
1.2316715542521994
1.2258064516129032
1.219941348973607
1.2130987292277615
1.2072336265884651
1.2013685239491692
1.1945259042033236
1.1886608015640274
1.1857282502443791
1.1837732160312806
1.1798631476050832
1.1749755620723363
1.1691104594330402
1.163245356793744
1.1573802541544478
1.1515151515151516
1.1466275659824048
1.142717497556207
1.1378299120234605
1.1319648093841643
1.1290322580645162
1.1280547409579669
1.1241446725317692
1.121212121212121
1.1192570869990224
1.118279569892473
1.118279569892473
1.1192570869990224
1.1202346041055715
1.1173020527859236
1.1094819159335287
1.093841642228739
1.0703812316715542
1.0498533724340176
1.0254154447702837
0.9853372434017597
0.9325513196480938
0.8729227761485826
0.8123167155425219
0.7575757575757576
0.7145650048875856
0.6930596285434996
0.7008797653958945
0.7429130009775171
0.8220918866080157
0.9188660801564028
1.035190615835777
1.1857282502443791
1.356793743890518
1.5356793743890518
1.7126099706744868
1.8797653958944285
2.03128054740958
2.1652003910068425
2.280547409579668
2.3743890518084068
2.453567937438905
2.5180840664711632
2.560117302052786
2.5865102639296187
2.608993157380254
2.6236559139784945
2.6295210166177907
2.6295210166177907
2.622678396871945
2.6099706744868034
2.593352883675464
2.570869990224829
2.541544477028348
2.5034213098729228
2.463343108504399
2.419354838709677
2.3734115347018574
2.3284457478005867
2.2844574780058653
2.244379276637341
2.2130987292277613
2.1915933528836757
2.177908113391984
2.172043010752688
2.1739980449657867
2.179863147605083
2.1847507331378297
2.1847507331378297
2.1837732160312804
2.182795698924731
2.182795698924731
2.179863147605083
2.172043010752688
2.1622678396871944
2.150537634408602
2.1388074291300097
2.1270772238514173
2.1114369501466275
2.09188660801564
2.070381231671554
2.048875855327468
2.026392961876833
2.0009775171065494
1.9745845552297163
1.949169110459433
1.9257086999022484
1.9012707722385145
1.873900293255132
1.8465298142717497
1.8201368523949168
1.7947214076246334
1.7712609970674489
1.7458455522971652
1.7174975562072337
1.6911045943304008
1.667644183773216
1.6471163245356797
1.6275659824046922
1.6109481915933528
1.6001955034213098
1.5913978494623655
1.5835777126099706
1.576735092864125
1.5708699902248289
1.565982404692082
1.5620723362658846
1.5571847507331378
1.5513196480938416
1.5454545454545454
1.542521994134897
1.542521994134897
1.542521994134897
1.541544477028348
1.5376344086021505
1.5327468230694037
1.5268817204301075
1.52297165200391
1.5190615835777126
1.5141739980449658
1.5083088954056696
1.500488758553275
1.4926686217008798
1.4819159335288368
1.4672531769305963
1.4545454545454546
1.444770283479961
1.4349951124144673
1.4242424242424243
1.412512218963832
1.4037145650048877
1.3958944281524928
1.3861192570869991
1.375366568914956
1.3636363636363635
1.3528836754643203
1.346041055718475
1.343108504398827
1.3411534701857282
1.3401759530791788
1.3401759530791788
1.3401759530791788
1.3411534701857282
1.343108504398827
1.3440860215053765
1.3450635386119256
1.3450635386119256
1.3450635386119256
1.3470185728250244
1.35386119257087
1.3695014662756595
1.3978494623655917
1.4457478005865103
1.520039100684262
1.624633431085044
1.737047898338221
1.8631476050830889
2.022482893450636
2.201368523949169
2.3870967741935485
2.572825024437928
2.7468230694037143
2.902248289345064
3.035190615835777
3.144672531769306
3.228739002932551
3.2873900293255134
3.318670576735093
3.3284457478005867
3.326490713587488
3.313782991202346
3.2883675464320627
3.251221896383187
3.203323558162268
3.1436950146627565
3.071358748778104
2.98435972629521
2.8826979472140764
2.768328445747801
2.6451612903225805
2.530791788856305
2.419354838709677
2.294232649071359
2.1622678396871944
2.027370478983382
1.895405669599218
1.76930596285435
1.6500488758553276
1.542521994134897
1.4516129032258065
1.3773216031280548
1.321603128054741
1.2873900293255132
1.2688172043010753
1.260019550342131
1.2580645161290325
1.262952101661779
1.2766373411534702
1.2971652003910068
1.324535679374389
1.359726295210166
1.4007820136852396
1.4437927663734116
1.4916911045943304
1.5405669599217986
1.581622678396872
1.616813294232649
1.6529814271749756
1.6901270772238517
1.7272727272727273
1.7644183773216031
1.7996089931573802
1.8328445747800584
1.8641251221896384
1.8973607038123168
1.9296187683284456
1.9589442815249267
1.9804496578690127
1.997067448680352
2.0117302052785924
2.024437927663734
2.0332355816226784
2.035190615835777
2.03128054740958
2.024437927663734
2.016617790811339
2.007820136852395
1.9980449657869013
1.986314760508309
1.9745845552297163
1.964809384164223
1.95405669599218
1.9413489736070384
1.9286412512218964
1.9149560117302051
1.9012707722385145
1.8866080156402736
1.871945259042033
1.858260019550342
1.8435972629521016
1.828934506353861
1.8162267839687196
1.8064516129032255
1.7976539589442817
1.7888563049853372
1.780058651026393
1.7712609970674489
1.7624633431085044
1.750733137829912
1.7360703812316716
1.718475073313783
1.6989247311827955
1.6774193548387095
1.6549364613880744
1.632453567937439
1.6129032258064515
1.598240469208211
1.5835777126099706
1.5708699902248289
1.5571847507331378
1.542521994134897
1.5268817204301075
1.5102639296187683
1.4926686217008798
1.4750733137829912
1.458455522971652
1.4428152492668622
1.4320625610948192
1.423264907135875
1.4115347018572826
1.3988269794721409
1.388074291300098
1.380254154447703
1.3743890518084063
1.3685239491691104
1.3655913978494625
1.367546432062561
1.3743890518084063
1.388074291300098
1.412512218963832
1.4428152492668622
1.482893450635386
1.543499511241447
1.6217008797653958
1.7135874877810362
1.8162267839687196
1.9237536656891496
2.0283479960899315
2.124144672531769
2.207233626588465
2.274682306940372
2.329423264907136
2.366568914956012
2.3919843597262958
2.41544477028348
2.4349951124144678
2.4516129032258065
2.4672531769305963
2.479960899315738
2.489736070381232
2.4975562072336266
2.5024437927663734
2.5034213098729228
2.5004887585532747
2.493646138807429
2.4809384164222874
2.463343108504399
2.441837732160313
2.4173998044965788
2.3919843597262958
2.3655913978494625
2.3382209188660803
2.3118279569892475
2.2873900293255134
2.2629521016617797
2.2375366568914954
2.2130987292277613
2.190615835777126
2.1710654936461387
2.1515151515151514
2.134897360703812
2.1221896383186705
2.112414467253177
2.1065493646138806
2.103616813294233
2.104594330400782
2.1094819159335287
2.115347018572825
2.120234604105572
2.12316715542522
2.12316715542522
2.12316715542522
2.1221896383186705
2.118279569892473
2.1114369501466275
2.102639296187683
2.089931573802541
2.072336265884653
2.047898338220919
2.016617790811339
1.9824046920821117
1.9423264907135875
1.903225806451613
1.8670576735092863
1.826001955034213
1.7839687194525904
1.7419354838709675
1.6989247311827955
1.656891495601173
1.616813294232649
1.5806451612903225
1.5483870967741935
1.5190615835777126
1.4926686217008798
1.474095796676442
1.4604105571847508
1.447702834799609
1.4379276637341154
1.4320625610948192
1.4301075268817205
1.4320625610948192
1.436950146627566
1.439882697947214
1.4418377321603129
1.4418377321603129
1.435972629521017
1.4213098729227762
1.404692082111437
1.383186705767351
1.3479960899315735
1.3010752688172045
1.2394916911045943
1.163245356793744
1.0694037145650048
0.9560117302052786
0.8240469208211144
0.6764418377321603
0.5190615835777126
0.3577712609970674
0.2228739002932551
0.1270772238514174
0.0635386119257087
0.0312805474095796
0.0156402737047898
0.0078201368523949
0.0039100684261974
0.0019550342130987
0.0009775171065493
0.0
0.0
0.0
0.0
0.0
0.0
0.0
0.0
0.0
0.0205278592375366
0.0713587487781036
0.136852394916911
0.2072336265884653
0.2785923753665689
0.3499511241446725
0.4232649071358749
0.4956011730205278
0.5728250244379277
0.667644183773216
0.7810361681329423
0.9159335288367546
1.0694037145650048
1.2404692082111437
1.423264907135875
1.608993157380254
1.7898338220918866
1.9589442815249267
2.10850439882698
2.2355816226783967
2.329423264907136
2.3958944281524928
2.4516129032258065
2.49266862170088
2.5190615835777126
2.532746823069404
2.536656891495601
2.5347018572825024
2.5268817204301075
2.515151515151515
2.498533724340176
2.4789833822091887
2.458455522971652
2.439882697947214
2.420332355816227
2.3978494623655915
2.372434017595308
2.345063538611926
2.3167155425219943
2.2883675464320627
2.26197458455523
2.2375366568914954
2.2160312805474094
2.19941348973607
2.187683284457478
2.179863147605083
2.175953079178885
2.176930596285435
2.1818181818181817
2.188660801564027
2.1974584555229715
2.2052785923753664
2.2111436950146626
2.2160312805474094
2.220918866080156
2.225806451612903
2.23069403714565
2.232649071358749
2.233626588465298
2.236559139784946
2.239491691104594
2.239491691104594
2.2355816226783967
2.2267839687194524
2.2140762463343107
2.198435972629521
2.179863147605083
2.160312805474096
2.142717497556207
2.126099706744868
2.110459433040078
2.093841642228739
2.0762463343108504
2.058651026392962
2.2023460410557183
2.429130009775171
2.539589442815249
2.591397849462365
2.6148582600195502
2.622678396871945
2.621700879765396
2.616813294232649
2.610948191593353
2.6041055718475072
2.5962854349951123
2.589442815249267
2.581622678396872
2.5747800586510263
2.567937438905181
2.5620723362658846
2.5562072336265884
2.550342130987292
2.544477028347996
2.5386119257087
2.532746823069404
2.5268817204301075
2.5219941348973607
2.517106549364614
2.5112414467253177
2.506353861192571
2.501466275659824
2.496578690127077
2.490713587487781
2.484848484848485
2.4789833822091887
2.474095796676442
2.469208211143695
2.4652981427174976
2.4613880742913
2.455522971652004
2.449657869012708
2.442815249266862
2.436950146627566
2.432062561094819
2.426197458455523
2.420332355816227
2.4144672531769307
