ppg
1.0498533724340176
1.0391006842619743
1.0449657869012707
1.064516129032258
1.0957966764418376
1.1397849462365592
1.1925708699902249
1.2502443792766371
1.3098729227761483
1.3655913978494625
1.41544477028348
1.457478005865103
1.490713587487781
1.5141739980449658
1.5288367546432062
1.5366568914956011
1.5386119257087
1.5347018572825024
1.525904203323558
1.512218963831867
1.495601173020528
1.478005865102639
1.458455522971652
1.4389051808406648
1.4193548387096775
1.4007820136852396
1.3822091886608017
1.364613880742913
1.3499511241446724
1.3372434017595307
1.3255131964809383
1.3157380254154447
1.3079178885630498
1.2991202346041055
1.289345063538612
1.2766373411534702
1.262952101661779
1.2531769305962854
1.2609970674486803
1.2991202346041055
1.3616813294232648
1.4594330400782014
1.6148582600195502
1.8162267839687196
2.04594330400782
2.281524926686217
2.5004887585532747
2.684261974584555
2.822091886608016
2.913000977517106
2.960899315738025
2.970674486803519
2.951124144672532
2.913000977517106
2.8611925708699903
2.7947214076246336
2.717497556207233
2.631476050830889
2.541544477028348
2.447702834799609
2.3528836754643208
2.2580645161290325
2.164222873900293
2.070381231671554
1.9794721407624636
1.8993157380254155
1.825024437927664
1.7429130009775171
1.656891495601173
1.56891495601173
1.4819159335288368
1.3978494623655917
1.3176930596285434
1.2434017595307918
1.1759530791788857
1.118279569892473
1.072336265884653
1.0449657869012707
1.032258064516129
1.0312805474095796
1.04594330400782
1.075268817204301
1.118279569892473
1.1720430107526882
1.2316715542521994
1.2932551319648091
1.3528836754643203
1.4076246334310851
1.4545454545454546
1.4936461388074291
1.521994134897361
1.5405669599217986
1.5532746823069403
1.5591397849462365
1.5591397849462365
1.5532746823069403
1.543499511241447
1.5298142717497556
1.5141739980449658
1.4975562072336266
1.478983382209189
1.4604105571847508
1.444770283479961
1.4301075268817205
1.4134897360703813
1.3978494623655917
1.383186705767351
1.370478983382209
1.359726295210166
1.3519061583577712
1.343108504398827
1.3333333333333333
1.321603128054741
1.3088954056695992
1.300097751710655
1.300097751710655
1.3176930596285434
1.367546432062561
1.4633431085043989
1.6109481915933528
1.8035190615835777
2.026392961876833
2.2561094819159337
2.4731182795698925
2.656891495601173
2.7966764418377323
2.887585532746823
2.9315738025415445
2.940371456500489
2.9237536656891496
2.8856304985337244
2.83088954056696
2.7624633431085046
2.6832844574780057
2.5972629521016617
2.506353861192571
2.4144672531769307
2.321603128054741
2.228739002932551
2.1378299120234603
2.058651026392962
1.9843597262952104
1.9012707722385145
1.8142717497556209
1.726295210166178
1.6383186705767352
1.5493646138807429
1.4613880742913
1.3763440860215057
1.2961876832844574
1.2209188660801564
1.1505376344086022
1.0977517106549364
1.0596285434995112
1.0254154447702837
1.0019550342130987
0.9921798631476052
0.9990224828934506
1.0224828934506354
1.0606060606060606
1.1114369501466277
1.1700879765395895
1.2316715542521994
1.29227761485826
1.3509286412512218
1.3988269794721409
1.4379276637341154
1.4721407624633431
1.499511241446725
1.517106549364614
1.5249266862170088
1.5249266862170088
1.5180840664711632
1.5083088954056696
1.4946236559139785
1.478005865102639
1.4594330400782014
1.4437927663734116
1.4301075268817205
1.412512218963832
1.3949169110459434
1.3773216031280548
1.3616813294232648
1.3479960899315735
1.3362658846529814
1.327468230694037
1.321603128054741
1.3157380254154447
1.3079178885630498
1.2961876832844574
1.2854349951124144
1.278592375366569
1.2795698924731185
1.303030303030303
1.3636363636363635
1.4721407624633431
1.6334310850439884
1.8406647116324533
2.0772238514174
2.3196480938416424
2.544477028347996
2.732160312805474
2.8611925708699903
2.940371456500489
2.9902248289345064
3.0087976539589443
3.0009775171065494
2.970674486803519
2.9237536656891496
2.8641251221896384
2.7947214076246336
2.718475073313783
2.636363636363636
2.550342130987292
2.4613880742913
2.380254154447703
2.304007820136853
2.219941348973607
2.132942326490713
2.043010752688172
1.951124144672532
1.8563049853372435
1.761485826001955
1.6656891495601174
1.5708699902248289
1.47702834799609
1.3861192570869991
1.3118279569892473
1.2473118279569892
1.1808406647116323
1.1202346041055715
1.0713587487781036
1.0361681329423265
1.018572825024438
1.0195503421309873
1.0371456500488758
1.0713587487781036
1.118279569892473
1.1749755620723363
1.2355816226783969
1.2913000977517106
1.3411534701857282
1.3900293255131966
1.434017595307918
1.469208211143695
1.4946236559139785
1.512218963831867
1.521994134897361
1.5239491691104594
1.520039100684262
1.512218963831867
1.500488758553275
1.490713587487781
1.4819159335288368
1.469208211143695
1.4545454545454546
1.4389051808406648
1.4222873900293256
1.4066471163245358
1.391006842619746
1.3773216031280548
1.3655913978494625
1.3558162267839686
1.3479960899315735
1.3401759530791788
1.3343108504398826
1.3284457478005864
1.316715542521994
1.3020527859237536
1.2903225806451613
1.295210166177908
1.3313782991202343
1.412512218963832
1.5454545454545454
1.7253176930596286
1.9403714565004888
2.172043010752688
2.3714565004887587
2.5376344086021505
2.6930596285435
2.81622678396872
2.897360703812317
2.9374389051808407
2.941348973607038
2.9071358748778104
2.8475073313782997
2.780058651026393
2.704789833822092
2.6236559139784945
2.5386119257087
2.4594330400782014
2.3841642228739004
2.302052785923754
2.2160312805474094
2.1270772238514173
2.038123167155425
1.949169110459433
1.8602150537634408
1.7732160312805474
1.6871945259042034
1.6041055718475072
1.52297165200391
1.4545454545454546
1.392961876832845
1.3255131964809383
1.2590420332355816
1.1974584555229717
1.142717497556207
1.0987292277614855
1.0684261974584557
1.053763440860215
1.0557184750733135
1.0742913000977516
1.1085043988269794
1.1495601173020529
1.1974584555229717
1.2541544477028348
1.3157380254154447
1.3763440860215057
1.4320625610948192
1.4809384164222874
1.520039100684262
1.5493646138807429
1.56891495601173
1.5796676441837731
1.58455522971652
1.58455522971652
1.581622678396872
1.5747800586510263
1.563049853372434
1.5464320625610948
1.5278592375366569
1.509286412512219
1.4897360703812317
1.469208211143695
1.4496578690127078
1.43108504398827
1.4134897360703813
1.396871945259042
1.3851417399804498
1.3763440860215057
1.3665689149560116
1.356793743890518
1.346041055718475
1.3333333333333333
1.3196480938416422
1.3079178885630498
1.3088954056695992
1.3362658846529814
1.401759530791789
1.5141739980449658
1.6764418377321604
1.8455522971652003
2.0234604105571847
2.23069403714565
2.4359726295210167
2.616813294232649
2.760508308895406
2.859237536656892
2.9149560117302054
2.9335288367546437
2.921798631476051
2.887585532746823
2.835777126099707
2.777126099706745
2.7126099706744866
2.6373411534701856
2.555229716520039
2.4682306940371457
2.3792766373411536
2.2883675464320627
2.198435972629521
2.1094819159335287
2.0205278592375366
1.9315738025415443
1.8435972629521016
1.7556207233626588
1.6793743890518085
1.6099706744868034
1.5327468230694037
1.4535679374389052
1.3763440860215057
1.3010752688172045
1.23069403714565
1.1671554252199414
1.1133919843597262
1.072336265884653
1.0449657869012707
1.0332355816226784
1.0391006842619743
1.0586510263929618
1.0928641251221896
1.13880742913001
1.1925708699902249
1.249266862170088
1.3049853372434017
1.356793743890518
1.4037145650048877
1.4437927663734116
1.474095796676442
1.4946236559139785
1.5073313782991202
1.5131964809384164
1.5141739980449658
1.5102639296187683
1.5034213098729228
1.4916911045943304
1.47702834799609
1.4604105571847508
1.4428152492668622
1.426197458455523
1.409579667644184
1.392961876832845
1.3763440860215057
1.364613880742913
1.3558162267839686
1.346041055718475
1.33822091886608
1.3343108504398826
1.3313782991202343
1.327468230694037
1.3196480938416422
1.3088954056695992
1.2991202346041055
1.2991202346041055
1.3225806451612905
1.3822091886608017
1.4643206256109482
1.5796676441837731
1.750733137829912
1.9608993157380252
2.187683284457478
2.407624633431085
2.601173020527859
2.7536656891495603
2.859237536656892
2.917888563049853
2.93841642228739
2.927663734115347
2.898338220918866
2.854349951124145
2.795698924731183
2.727272727272727
2.650048875855328
2.5669599217986314
2.479960899315738
2.391006842619746
2.300097751710655
2.2082111436950145
2.1163245356793743
2.026392961876833
1.9374389051808407
1.8602150537634408
1.7878787878787878
1.7086999022482894
1.6256109481915937
1.542521994134897
1.4594330400782014
1.3782991202346042
1.3010752688172045
1.2297165200391007
1.166177908113392
1.1124144672531768
1.0713587487781036
1.0469208211143697
1.0371456500488758
1.040078201368524
1.0576735092864125
1.0909090909090908
1.1368523949169111
1.1925708699902249
1.2541544477028348
1.3176930596285434
1.3792766373411536
1.434017595307918
1.4819159335288368
1.521994134897361
1.5532746823069403
1.576735092864125
1.5972629521016617
1.6129032258064515
1.6226783968719452
1.6275659824046922
1.6275659824046922
1.6226783968719452
1.6138807429130009
1.6001955034213098
1.5835777126099706
1.563049853372434
1.543499511241447
1.5249266862170088
1.5053763440860215
1.4858260019550342
1.466275659824047
1.4486803519061584
1.4330400782013686
1.418377321603128
1.4027370478983383
1.383186705767351
1.3607038123167154
1.3411534701857282
1.332355816226784
1.3411534701857282
1.3773216031280548
1.458455522971652
1.5913978494623655
1.772238514173998
1.986314760508309
2.2130987292277613
2.429130009775171
2.6158357771261
2.7595307917888565
2.857282502443793
2.9100684261974585
2.9257086999022484
2.913978494623656
2.8826979472140764
2.834799608993157
2.773216031280548
2.7008797653958942
2.6207233626588464
2.5347018572825024
2.4457478005865103
2.355816226783969
2.2658846529814274
2.176930596285435
2.099706744868035
2.029325513196481
1.9521016617790807
1.8729227761485825
1.7927663734115349
1.7126099706744868
1.632453567937439
1.552297165200391
1.4731182795698925
1.3958944281524928
1.321603128054741
1.252199413489736
1.1886608015640274
1.1397849462365592
1.1016617790811338
1.067448680351906
1.0469208211143697
1.043010752688172
1.0557184750733135
1.0821114369501466
1.1231671554252198
1.173998044965787
1.2316715542521994
1.2913000977517106
1.348973607038123
1.3958944281524928
1.434017595307918
1.4672531769305963
1.4926686217008798
1.5102639296187683
1.5190615835777126
1.521016617790811
1.5180840664711632
1.5102639296187683
1.499511241446725
1.4858260019550342
1.469208211143695
1.4506353861192571
1.434017595307918
1.4193548387096775
1.4037145650048877
1.388074291300098
1.3734115347018572
1.359726295210166
1.3479960899315735
1.33822091886608
1.3304007820136852
1.3255131964809383
1.3206256109481915
1.3128054740957966
1.305962854349951
1.2991202346041055
1.2913000977517106
1.2932551319648091
1.3176930596285434
1.3792766373411536
1.487781036168133
1.64613880742913
1.8494623655913975
2.0791788856304985
2.3118279569892475
2.525904203323558
2.7038123167155423
2.8260019550342133
2.900293255131965
2.946236559139785
2.962854349951124
2.951124144672532
2.916911045943304
2.8641251221896384
2.798631476050831
2.7233626588465296
2.6402737047898337
2.552297165200391
2.4604105571847508
2.377321603128055
2.2981427174975564
2.2130987292277613
2.1251221896383186
2.0361681329423265
1.946236559139785
1.855327468230694
1.7634408602150538
1.672531769305963
1.5835777126099706
1.4965786901270772
1.412512218963832
1.332355816226784
1.267839687194526
1.2140762463343109
1.1593352883675463
1.1094819159335287
1.0703812316715542
1.0439882697947214
1.0342130987292275
1.0410557184750733
1.064516129032258
1.1026392961876832
1.152492668621701
1.2101661779081134
1.2639296187683284
1.3147605083088951
1.3695014662756595
1.4213098729227762
1.466275659824047
1.5024437927663734
1.530791788856305
1.5493646138807429
1.560117302052786
1.563049853372434
1.560117302052786
1.552297165200391
1.5405669599217986
1.5288367546432062
1.517106549364614
1.5024437927663734
1.4858260019550342
1.466275659824047
1.4457478005865103
1.4252199413489737
1.4066471163245358
1.391006842619746
1.3782991202346042
1.3685239491691104
1.3607038123167154
1.3558162267839686
1.3509286412512218
1.343108504398827
1.3313782991202343
1.3196480938416422
1.313782991202346
1.3264907135874875
1.3714565004887584
1.4604105571847508
1.598240469208211
1.782991202346041
1.9990224828934504
2.225806451612903
2.41544477028348
2.56891495601173
2.708699902248289
2.814271749755621
2.8807429130009776
2.909090909090909
2.905180840664712
2.875855327468231
2.8269794721407626
2.764418377321604
2.69208211143695
2.610948191593353
2.533724340175953
2.4574780058651027
2.372434017595308
2.283479960899316
2.193548387096774
2.103616813294233
2.0146627565982405
1.9257086999022484
1.836754643206256
1.7487781036168133
1.6627565982404693
1.576735092864125
1.4916911045943304
1.4203323558162269
1.356793743890518
1.2883675464320623
1.2209188660801564
1.1593352883675463
1.1055718475073313
1.064516129032258
1.0361681329423265
1.0224828934506354
1.0263929618768328
1.0478983382209188
1.0850439882697946
1.1280547409579669
1.1759530791788857
1.2326490713587488
1.29227761485826
1.3509286412512218
1.404692082111437
1.4506353861192571
1.4868035190615836
1.5141739980449658
1.5317693059628543
1.5405669599217986
1.542521994134897
1.5386119257087
1.5327468230694037
1.5239491691104594
1.5102639296187683
1.4936461388074291
1.4760508308895406
1.457478005865103
1.4389051808406648
1.4213098729227762
1.4037145650048877
1.3861192570869991
1.3695014662756595
1.35386119257087
1.3421309872922775
1.3343108504398826
1.3264907135874875
1.3196480938416422
1.3098729227761483
1.2971652003910068
1.2854349951124144
1.281524926686217
1.2991202346041055
1.3528836754643203
1.455522971652004
1.6099706744868034
1.8103616813294232
2.007820136852395
2.201368523949169
2.4134897360703813
2.611925708699902
2.776148582600196
2.895405669599218
2.970674486803519
3.005865102639296
3.007820136852395
2.9853372434017595
2.9442815249266863
2.887585532746823
2.8260019550342133
2.7595307917888565
2.6823069403714563
2.5972629521016617
2.50733137829912
2.4144672531769307
2.320625610948192
2.225806451612903
2.1309872922776147
2.0361681329423265
1.9403714565004888
1.844574780058651
1.761485826001955
1.6852394916911049
1.6021505376344083
1.5180840664711632
1.4349951124144673
1.3528836754643203
1.2746823069403714
1.203323558162268
1.1397849462365592
1.088954056695992
1.0518084066471165
1.029325513196481
1.024437927663734
1.035190615835777
1.0586510263929618
1.096774193548387
1.1456500488758554
1.2023460410557183
1.2619745845552297
1.3196480938416422
1.3714565004887584
1.41544477028348
1.4506353861192571
1.47702834799609
1.4946236559139785
1.5053763440860215
1.5112414467253177
1.5131964809384164
1.5102639296187683
1.504398826979472
1.4975562072336266
1.4887585532746823
1.47702834799609
1.4613880742913
1.4428152492668622
1.4271749755620724
1.412512218963832
1.3998044965786902
1.391006842619746
1.3841642228739004
1.3763440860215057
1.3695014662756595
1.3626588465298142
1.3548387096774193
1.343108504398827
1.327468230694037
1.310850439882698
1.2991202346041055
1.3040078201368523
1.3372434017595307
1.392961876832845
1.4809384164222874
1.6226783968719452
1.8084066471163245
2.022482893450636
2.244379276637341
2.449657869012708
2.621700879765396
2.7497556207233624
2.832844574780059
2.8729227761485827
2.877810361681329
2.855327468230694
2.817204301075269
2.766373411534702
2.701857282502444
2.6285434995112413
2.547409579667644
2.4613880742913
2.3734115347018574
2.2854349951124147
2.198435972629521
2.1114369501466275
2.026392961876833
1.943304007820137
1.870967741935484
1.8035190615835777
1.7282502443792769
1.6500488758553276
1.5698924731182795
1.4897360703812317
1.412512218963832
1.3372434017595307
1.2658846529814272
1.2003910068426198
1.142717497556207
1.0948191593352885
1.0606060606060606
1.0420332355816226
1.0391006842619743
1.0469208211143697
1.0684261974584557
1.1036168132942326
1.1505376344086022
1.2072336265884651
1.267839687194526
1.3264907135874875
1.3822091886608017
1.43108504398827
1.4711632453567938
1.501466275659824
1.52297165200391
1.5386119257087
1.547409579667644
1.5493646138807429
1.544477028347996
1.5347018572825024
1.521016617790811
1.504398826979472
1.4868035190615836
1.4682306940371457
1.4496578690127078
1.4301075268817205
1.41544477028348
1.4027370478983383
1.3890518084066472
1.3763440860215057
1.364613880742913
1.3528836754643203
1.3411534701857282
1.3304007820136852
1.3196480938416422
1.3079178885630498
1.295210166177908
1.2864125122189638
1.2873900293255132
1.305962854349951
1.356793743890518
1.452590420332356
1.595307917888563
1.7810361681329423
1.9960899315738023
2.220918866080156
2.4330400782013686
2.613880742913001
2.752688172043011
2.8455522971652005
2.895405669599218
2.9100684261974585
2.898338220918866
2.866080156402737
2.8181818181818183
2.757575757575758
2.6881720430107525
2.6129032258064515
2.532746823069404
2.4486803519061584
2.3626588465298144
2.274682306940372
2.1847507331378297
2.104594330400782
2.029325513196481
1.946236559139785
1.8602150537634408
1.775171065493646
1.689149560117302
1.603128054740958
1.5190615835777126
1.435972629521017
1.356793743890518
1.281524926686217
1.2121212121212122
1.1495601173020529
1.104594330400782
1.0733137829912025
1.0469208211143697
1.0312805474095796
1.0303030303030305
1.0449657869012707
1.0733137829912025
1.1133919843597262
1.1622678396871946
1.2160312805474096
1.2697947214076246
1.321603128054741
1.364613880742913
1.3998044965786902
1.43108504398827
1.455522971652004
1.4731182795698925
1.4838709677419355
1.487781036168133
1.4858260019550342
1.479960899315738
1.4711632453567938
1.458455522971652
1.4428152492668622
1.4252199413489737
1.4115347018572826
1.3998044965786902
1.3851417399804498
1.370478983382209
1.3558162267839686
1.3440860215053765
1.3343108504398826
1.3284457478005864
1.3255131964809383
1.3225806451612905
1.3176930596285434
1.3088954056695992
1.3010752688172045
1.2942326490713587
1.2932551319648091
1.310850439882698
1.3626588465298142
1.4594330400782014
1.6080156402737047
1.8005865102639296
2.021505376344086
2.249266862170088
2.4604105571847508
2.638318670576735
2.7614858260019552
2.8377321603128056
2.8856304985337244
2.902248289345064
2.8914956011730206
2.859237536656892
2.809384164222874
2.7468230694037143
2.675464320625611
2.5962854349951123
2.512218963831867
2.4252199413489737
2.337243401759531
2.257086999022483
2.182795698924731
2.102639296187683
2.0195503421309877
1.9335288367546437
1.847507331378299
1.761485826001955
1.6764418377321604
1.5923753665689149
1.5102639296187683
1.4301075268817205
1.35386119257087
1.2913000977517106
1.2375366568914956
1.181818181818182
1.1300097751710656
1.088954056695992
1.0596285434995112
1.0449657869012707
1.04594330400782
1.0635386119257086
1.0977517106549364
1.1456500488758554
1.2043010752688172
1.2688172043010753
1.3284457478005864
1.383186705767351
1.4408602150537635
1.4946236559139785
1.5405669599217986
1.5777126099706744
1.606060606060606
1.6256109481915937
1.635386119257087
1.635386119257087
1.629521016617791
1.6187683284457477
1.606060606060606
1.5923753665689149
1.5747800586510263
1.555229716520039
1.5327468230694037
1.5083088954056696
1.4858260019550342
1.4652981427174976
1.444770283479961
1.426197458455523
1.4105571847507332
1.396871945259042
1.383186705767351
1.370478983382209
1.356793743890518
1.33822091886608
1.321603128054741
1.316715542521994
1.33822091886608
1.3998044965786902
1.5102639296187683
1.6695992179863148
1.869012707722385
2.090909090909091
2.312805474095797
2.49266862170088
2.631476050830889
2.763440860215054
2.866080156402737
2.920821114369501
2.935483870967742
2.918866080156403
2.878787878787879
2.820136852394917
2.7497556207233624
2.6715542521994133
2.5884652981427174
2.501466275659824
2.421309872922776
2.345063538611926
2.26197458455523
2.177908113391984
2.0928641251221896
2.006842619745845
1.921798631476051
1.836754643206256
1.7526881720430108
1.6686217008797657
1.58455522971652
1.5024437927663734
1.4330400782013686
1.3714565004887584
1.3040078201368523
1.2365591397849462
1.1730205278592376
1.118279569892473
1.0742913000977516
1.0439882697947214
1.029325513196481
1.032258064516129
1.050830889540567
1.0987292277614855
1.1515151515151516
1.1867057673509287
1.2287390029325511
1.278592375366569
1.3284457478005864
1.3743890518084063
1.4134897360703813
1.444770283479961
1.4672531769305963
1.4809384164222874
1.4868035190615836
1.4868035190615836
1.4819159335288368
1.4760508308895406
1.469208211143695
1.458455522971652
1.444770283479961
1.4281524926686218
1.4115347018572826
1.3958944281524928
1.380254154447703
1.3655913978494625
1.3519061583577712
1.3401759530791788
1.3294232649071358
1.3206256109481915
1.316715542521994
1.313782991202346
1.3088954056695992
1.3010752688172045
1.289345063538612
1.2795698924731185
1.2795698924731185
1.3020527859237536
1.359726295210166
1.4652981427174976
1.6207233626588464
1.8191593352883677
2.0127077223851417
2.19941348973607
2.4027370478983383
2.592375366568915
2.7468230694037143
2.857282502443793
2.9227761485826003
2.948191593352884
2.940371456500489
2.906158357771261
2.8533724340175954
2.7869012707722387
2.7096774193548385
2.634408602150537
2.560117302052786
2.4780058651026398
2.3919843597262958
2.304007820136853
2.2140762463343107
2.1251221896383186
2.0361681329423265
1.946236559139785
1.8347996089931573
1.7350928641251222
1.6627565982404693
1.5933528836754642
1.525904203323558
1.4506353861192571
1.3743890518084063
1.300097751710655
1.2297165200391007
1.166177908113392
1.1114369501466277
1.0684261974584557
1.0371456500488758
1.0205278592375366
1.0205278592375366
1.0469208211143697
1.0801564027370478
1.1114369501466277
1.1573802541544478
1.2121212121212122
1.2717497556207231
1.3294232649071358
1.3822091886608017
1.4281524926686218
1.4652981427174976
1.4936461388074291
1.5131964809384164
1.5249266862170088
1.5317693059628543
1.533724340175953
1.530791788856305
1.521994134897361
1.509286412512219
1.4926686217008798
1.474095796676442
1.455522971652004
1.4349951124144673
1.41544477028348
1.396871945259042
1.380254154447703
1.3655913978494625
1.3548387096774193
1.3470185728250244
1.3372434017595307
1.3264907135874875
1.3147605083088951
1.2961876832844574
1.278592375366569
1.267839687194526
1.267839687194526
1.3235581622678396
1.4007820136852396
1.4848484848484849
1.6001955034213098
1.8093841642228736
2.0391006842619745
2.212121212121212
2.4056695992179864
2.6080156402737047
2.7653958944281527
2.854349951124145
2.9071358748778104
2.913978494623656
2.898338220918866
2.874877810361681
2.8132942326490715
2.729227761485826
2.644183773216031
2.555229716520039
2.463343108504399
2.3704789833822093
2.2766373411534704
2.182795698924731
2.089931573802541
1.997067448680352
1.906158357771261
1.8172043010752688
1.7497556207233629
1.6842619745845553
1.5972629521016617
1.5112414467253177
1.4281524926686218
1.3479960899315735
1.270772238514174
1.2003910068426198
1.1378299120234605
1.0840664711632453
1.0420332355816226
1.0127077223851415
1.0
1.002932551319648
1.0175953079178883
1.0469208211143697
1.088954056695992
1.1407624633431086
1.198435972629521
1.2570869990224829
1.313782991202346
1.364613880742913
1.4086021505376345
1.4437927663734116
1.4701857282502444
1.487781036168133
