ppg
1.3196480938416422
1.3088954056695992
1.2961876832844574
1.2825024437927663
1.267839687194526
1.2531769305962854
1.238514173998045
1.2238514173998043
1.209188660801564
1.1935483870967742
1.1749755620723363
1.155425219941349
1.1368523949169111
1.1231671554252198
1.1133919843597262
1.1016617790811338
1.0909090909090908
1.0811339198435972
1.0713587487781036
1.0625610948191593
1.0557184750733135
1.0527859237536656
1.050830889540567
1.0498533724340176
1.0498533724340176
1.0518084066471165
1.0547409579667644
1.056695992179863
1.0576735092864125
1.0557184750733135
1.0527859237536656
1.050830889540567
1.0498533724340176
1.0498533724340176
1.0498533724340176
1.0498533724340176
1.0498533724340176
1.0498533724340176
1.0518084066471165
1.0527859237536656
1.0498533724340176
1.0449657869012707
1.0391006842619743
1.035190615835777
1.0342130987292275
1.0410557184750733
1.0664711632453567
1.121212121212121
1.2111436950146628
1.335288367546432
1.4682306940371457
1.6177908113391983
1.8064516129032255
2.0127077223851417
2.218963831867057
2.410557184750733
2.576735092864125
2.713587487781036
2.820136852394917
2.897360703812317
2.948191593352884
2.9775171065493646
2.988269794721408
2.981427174975562
2.961876832844575
2.936461388074292
2.9071358748778104
2.873900293255132
2.8377321603128056
2.80058651026393
2.7624633431085046
2.720430107526881
2.675464320625611
2.627565982404692
2.5747800586510263
2.5219941348973607
2.4672531769305963
2.401759530791789
2.3284457478005867
2.2482893450635384
2.1622678396871944
2.071358748778104
1.9775171065493649
1.8856304985337244
1.7986314760508308
1.7194525904203324
1.6500488758553276
1.5923753665689149
1.5503421309872922
1.5190615835777126
1.4926686217008798
1.4731182795698925
1.4604105571847508
1.4516129032258065
1.4457478005865103
1.4437927663734116
1.444770283479961
1.4437927663734116
1.4408602150537635
1.436950146627566
1.434017595307918
1.4291300097751711
1.4203323558162269
1.4105571847507332
1.4007820136852396
1.3900293255131966
1.375366568914956
1.359726295210166
1.3440860215053765
1.3284457478005864
1.3128054740957966
1.2981427174975562
1.284457478005865
1.2746823069403714
1.2658846529814272
1.2551319648093842
1.2424242424242424
1.2267839687194526
1.2111436950146628
1.1974584555229717
1.18475073313783
1.1749755620723363
1.1681329423264908
1.1622678396871946
1.1573802541544478
1.1544477028347997
1.1534701857282503
1.1505376344086022
1.1466275659824048
1.142717497556207
1.1397849462365592
1.1397849462365592
1.1407624633431086
1.1407624633431086
1.1407624633431086
1.1407624633431086
1.1407624633431086
1.1407624633431086
1.142717497556207
1.1466275659824048
1.1495601173020529
1.1534701857282503
1.1564027370478984
1.1573802541544478
1.1573802541544478
1.1544477028347997
1.1515151515151516
1.1485826001955035
1.1505376344086022
1.163245356793744
1.187683284457478
1.2316715542521994
1.3098729227761483
1.4252199413489737
1.5786901270772238
1.7634408602150538
1.9667644183773216
2.174975562072336
2.3734115347018574
2.550342130987292
2.6959921798631474
2.806451612903226
2.8836754643206257
2.924731182795699
2.940371456500489
2.941348973607038
2.927663734115347
2.900293255131965
2.863147605083089
2.8181818181818183
2.76930596285435
2.7155425219941347
2.659824046920821
2.603128054740958
2.5464320625610948
2.49266862170088
2.4389051808406648
2.3792766373411536
2.312805474095797
2.2404692082111435
2.1622678396871944
2.0791788856304985
1.9931573802541545
1.9071358748778104
1.823069403714565
1.7438905180840665
1.6705767350928642
1.611925708699902
1.5669599217986314
1.5278592375366569
1.4975562072336266
1.4750733137829912
1.4613880742913
1.4535679374389052
1.447702834799609
1.4428152492668622
1.4379276637341154
1.434017595307918
1.4271749755620724
1.4173998044965788
1.409579667644184
1.4027370478983383
1.3949169110459434
1.3870967741935485
1.3782991202346042
1.3685239491691104
1.3558162267839686
1.3421309872922775
1.327468230694037
1.3118279569892473
1.295210166177908
1.278592375366569
1.2668621700879763
1.2570869990224829
1.2443792766373412
1.2316715542521994
1.2179863147605083
1.2052785923753666
1.1915933528836755
1.1788856304985338
1.1652003910068427
1.152492668621701
1.1397849462365592
1.1290322580645162
1.1192570869990224
1.1133919843597262
1.1094819159335287
1.1055718475073313
1.1036168132942326
1.1026392961876832
1.1026392961876832
1.1026392961876832
1.1026392961876832
1.1036168132942326
1.104594330400782
1.1055718475073313
1.1055718475073313
1.10752688172043
1.1114369501466277
1.1143695014662756
1.118279569892473
1.1221896383186705
1.1251221896383188
1.1270772238514175
1.1280547409579669
1.1280547409579669
1.1270772238514175
1.1251221896383188
1.126099706744868
1.1358748778103618
1.1564027370478984
1.1964809384164223
1.2697947214076246
1.383186705767351
1.5376344086021505
1.726295210166178
1.9364613880742916
2.155425219941349
2.3685239491691106
2.5610948191593352
2.7253176930596283
2.859237536656892
2.949169110459433
3.004887585532747
3.046920821114369
3.072336265884653
3.0821114369501466
3.0772238514174
3.06158357771261
3.038123167155425
3.0087976539589443
2.9765395894428157
2.9442815249266863
2.9100684261974585
2.8719452590420333
2.83088954056696
2.7869012707722387
2.7370478983382207
2.6832844574780057
2.625610948191593
2.5640273704789838
2.4975562072336266
2.426197458455523
2.3489736070381237
2.2639296187683287
2.1739980449657867
2.0821114369501466
1.9990224828934504
1.921798631476051
1.8406647116324533
1.761485826001955
1.6881720430107527
1.624633431085044
1.5708699902248289
1.5278592375366569
1.4936461388074291
1.4682306940371457
1.4506353861192571
1.439882697947214
1.434017595307918
1.43108504398827
1.4291300097751711
1.4271749755620724
1.4242424242424243
1.4193548387096775
1.3870967741935485
1.3401759530791788
1.3088954056695992
1.2854349951124144
1.267839687194526
1.2531769305962854
1.2404692082111437
1.2297165200391007
1.2209188660801564
1.2101661779081134
1.195503421309873
1.1808406647116323
1.166177908113392
1.152492668621701
1.13880742913001
1.126099706744868
1.1124144672531768
1.099706744868035
1.086021505376344
1.075268817204301
1.0684261974584557
1.0625610948191593
1.0547409579667644
1.04594330400782
1.0391006842619743
1.0342130987292275
1.0303030303030305
1.0283479960899315
1.0273704789833822
1.0273704789833822
1.0273704789833822
1.0273704789833822
1.0283479960899315
1.0303030303030305
1.0342130987292275
1.0381231671554252
1.0410557184750733
1.043010752688172
1.043010752688172
1.043010752688172
1.043010752688172
1.040078201368524
1.0361681329423265
1.032258064516129
1.029325513196481
1.0283479960899315
1.0273704789833822
1.029325513196481
1.0391006842619743
1.0654936461388074
1.1202346041055715
1.2082111436950147
1.3333333333333333
1.4946236559139785
1.683284457478006
1.8866080156402736
2.090909090909091
2.260019550342131
2.40078201368524
2.536656891495601
2.6510263929618767
2.73802541544477
2.795698924731183
2.8269794721407626
2.834799608993157
2.823069403714565
2.798631476050831
2.764418377321604
2.724340175953079
2.6823069403714563
2.6402737047898337
2.5972629521016617
2.5513196480938416
2.5024437927663734
2.450635386119257
2.393939393939394
2.332355816226784
2.267839687194526
2.19941348973607
2.1251221896383186
2.0449657869012707
1.9608993157380252
1.884652981427175
1.812316715542522
1.7331378299120237
1.6529814271749756
1.5757575757575757
1.5063538611925709
1.4467253176930597
1.3978494623655917
1.3587487781036167
1.3304007820136852
1.3118279569892473
1.3020527859237536
1.2971652003910068
1.295210166177908
1.295210166177908
1.2942326490713587
1.2903225806451613
1.284457478005865
1.2766373411534702
1.2688172043010753
1.2580645161290325
1.2434017595307918
1.227761485826002
1.2111436950146628
1.1945259042033236
1.181818181818182
1.1720430107526882
1.1622678396871946
1.1505376344086022
1.1378299120234605
1.1251221896383188
1.1124144672531768
1.096774193548387
1.078201368523949
1.0606060606060606
1.0449657869012707
1.0303030303030305
1.0205278592375366
1.0146627565982405
1.0068426197458455
0.9990224828934506
0.9902248289345064
0.9833822091886608
0.978494623655914
0.9765395894428152
0.975562072336266
0.9745845552297164
0.9726295210166178
0.9696969696969696
0.967741935483871
0.9687194525904204
0.9716520039100685
0.9726295210166178
0.9736070381231672
0.9736070381231672
0.9745845552297164
0.9765395894428152
0.9775171065493646
0.9775171065493646
0.9775171065493646
0.9775171065493646
0.9775171065493646
0.9794721407624634
0.9824046920821116
0.9804496578690128
0.9775171065493646
0.978494623655914
0.9921798631476052
1.0303030303030305
1.1026392961876832
1.2150537634408602
1.3685239491691104
1.5562072336265884
1.7673509286412512
1.986314760508309
2.1710654936461387
2.3255131964809386
2.4780058651026398
2.6129032258064515
2.7223851417399803
2.803519061583578
2.859237536656892
2.89345063538612
2.9100684261974585
2.9120234604105573
2.9012707722385143
2.881720430107527
2.854349951124145
2.823069403714565
2.791788856304985
2.760508308895406
2.730205278592375
2.697947214076246
2.664711632453568
2.627565982404692
2.5865102639296187
2.539589442815249
2.4858260019550342
2.426197458455523
2.3597262952101663
2.294232649071359
2.2277614858260018
2.150537634408602
2.065493646138808
1.975562072336266
1.8807429130009776
1.7849462365591398
1.6920821114369502
1.6050830889540566
1.5268817204301075
1.4594330400782014
1.4037145650048877
1.3636363636363635
1.3362658846529814
1.3147605083088951
1.2981427174975562
1.2854349951124144
1.2746823069403714
1.2649071358748778
1.2561094819159335
1.2473118279569892
1.238514173998045
1.2297165200391007
1.2209188660801564
1.2121212121212122
1.2043010752688172
1.1945259042033236
1.181818181818182
1.1691104594330402
1.1564027370478984
1.1407624633431086
1.1221896383186705
1.1016617790811338
1.083088954056696
1.064516129032258
1.0478983382209188
1.0332355816226784
1.021505376344086
1.0127077223851415
1.0019550342130987
0.9882697947214076
0.9726295210166178
0.956989247311828
0.9423264907135877
0.9296187683284456
0.9188660801564028
0.9090909090909092
0.9002932551319648
0.8944281524926686
0.8885630498533724
0.8866080156402737
0.8885630498533724
0.8895405669599218
0.8895405669599218
0.8895405669599218
0.8895405669599218
0.8895405669599218
0.8895405669599218
0.8905180840664711
0.8924731182795699
0.8934506353861192
0.8944281524926686
0.8963831867057673
0.9002932551319648
0.9022482893450636
0.9012707722385142
0.9012707722385142
0.9071358748778104
0.9247311827956988
0.9648093841642228
1.0361681329423265
1.147605083088954
1.2981427174975562
1.4848484848484849
1.7194525904203324
1.943304007820137
2.131964809384164
2.321603128054741
2.496578690127077
2.6451612903225805
2.7624633431085046
2.8484848484848486
2.905180840664712
2.93841642228739
2.951124144672532
2.948191593352884
2.9315738025415445
2.905180840664712
2.8719452590420333
2.8367546432062563
2.798631476050831
2.757575757575758
2.7155425219941347
2.673509286412512
2.6295210166177907
2.582600195503421
2.5317693059628543
2.4780058651026398
2.418377321603128
2.3528836754643208
2.290322580645161
2.2267839687194524
2.15347018572825
2.071358748778104
1.9824046920821117
1.8905180840664717
1.7996089931573802
1.7126099706744868
1.6314760508308896
1.5591397849462365
1.495601173020528
1.4437927663734116
1.4066471163245358
1.3792766373411536
1.3558162267839686
1.3391984359726294
1.3264907135874875
1.3157380254154447
1.305962854349951
1.2971652003910068
1.2883675464320623
1.2805474095796676
1.2746823069403714
1.267839687194526
1.2570869990224829
1.249266862170088
1.241446725317693
1.23069403714565
1.2150537634408602
1.1964809384164223
1.176930596285435
1.1573802541544478
1.13880742913001
1.121212121212121
1.1036168132942326
1.086021505376344
1.0684261974584557
1.0557184750733135
1.0449657869012707
1.0312805474095796
1.0175953079178883
1.0068426197458455
0.9980449657869012
0.9902248289345064
0.9833822091886608
0.9775171065493646
0.9726295210166178
0.967741935483871
0.9638318670576737
0.9589442815249268
0.9579667644183774
0.9589442815249268
0.956989247311828
0.95405669599218
0.9521016617790812
0.9511241446725318
0.9511241446725318
0.9530791788856304
0.9560117302052786
0.959921798631476
0.9638318670576737
0.967741935483871
0.9736070381231672
0.981427174975562
0.9863147605083088
0.9872922776148584
0.9872922776148584
0.989247311827957
0.997067448680352
1.0175953079178883
1.0625610948191593
1.13880742913001
1.252199413489736
1.4037145650048877
1.5571847507331378
1.7165200391006843
1.903225806451613
2.0957966764418376
2.275659824046921
2.434017595307918
2.5650048875855327
2.665689149560117
2.73802541544477
2.7869012707722387
2.814271749755621
2.8240469208211145
2.8181818181818183
2.7996089931573804
2.774193548387097
2.744868035190616
2.713587487781036
2.678396871945259
2.6422287390029324
2.6070381231671558
2.570869990224829
2.532746823069404
2.493646138807429
2.449657869012708
2.401759530791789
2.355816226783969
2.3069403714565007
2.2482893450635384
2.1808406647116323
2.10752688172043
2.029325513196481
1.9472140762463344
1.86119257086999
1.7761485826001957
1.6959921798631477
1.6226783968719452
1.5591397849462365
1.5034213098729228
1.4613880742913
1.4320625610948192
1.409579667644184
1.3949169110459434
1.3870967741935485
1.383186705767351
1.3812316715542523
1.380254154447703
1.3773216031280548
1.3714565004887584
1.364613880742913
1.356793743890518
1.3509286412512218
1.3450635386119256
1.33822091886608
1.3294232649071358
1.3186705767350928
1.3069403714565004
1.2942326490713587
1.281524926686217
1.2697947214076246
1.2580645161290325
1.24633431085044
1.2346041055718475
1.2238514173998043
1.2150537634408602
1.2072336265884651
1.1974584555229717
1.1857282502443791
1.1730205278592376
1.160312805474096
1.1485826001955035
1.1407624633431086
1.1348973607038124
1.1300097751710656
1.1270772238514175
1.126099706744868
1.1270772238514175
1.1300097751710656
1.1319648093841643
1.1329423264907137
1.1329423264907137
1.1329423264907137
1.1329423264907137
1.1329423264907137
1.1329423264907137
1.1329423264907137
1.1329423264907137
1.130987292277615
1.1251221896383188
1.121212121212121
1.1192570869990224
1.1173020527859236
1.1202346041055715
1.133919843597263
1.1691104594330402
1.2336265884652982
1.3343108504398826
1.4682306940371457
1.6304985337243405
1.812316715542522
2.0
2.1593352883675463
2.294232649071359
2.426197458455523
2.5386119257087
2.627565982404692
2.689149560117302
2.7233626588465296
2.736070381231672
2.7311827956989245
2.7116324535679373
2.6823069403714563
2.64613880742913
2.6050830889540566
2.563049853372434
2.5219941348973607
2.47702834799609
2.4281524926686218
2.3743890518084068
2.3167155425219943
2.254154447702835
2.1867057673509285
2.115347018572825
2.0410557184750733
1.963831867057673
1.8826979472140764
1.8113391984359728
1.7458455522971652
1.678396871945259
1.611925708699902
1.5513196480938416
1.4975562072336266
1.4516129032258065
1.1945259042033236
1.1915933528836755
1.1857282502443791
1.1779081133919844
1.1700879765395895
1.1622678396871946
1.1573802541544478
1.1534701857282503
1.147605083088954
1.1407624633431086
1.1348973607038124
1.1270772238514175
1.1202346041055715
1.1143695014662756
1.1094819159335287
1.1065493646138806
1.104594330400782
1.1016617790811338
1.099706744868035
1.1016617790811338
1.1026392961876832
1.1026392961876832
1.1026392961876832
1.1026392961876832
1.1036168132942326
1.1065493646138806
1.1094819159335287
1.1143695014662756
1.1192570869990224
1.1221896383186705
1.1251221896383188
1.130987292277615
1.1358748778103618
1.13880742913001
1.1397849462365592
1.1407624633431086
1.13880742913001
1.133919843597263
1.1280547409579669
1.1251221896383188
1.130987292277615
1.155425219941349
1.2082111436950147
1.2776148582600195
1.3734115347018572
1.5161290322580645
1.694037145650049
1.8963831867057677
2.10752688172043
2.310850439882698
2.496578690127077
2.6559139784946235
2.7839687194525906
2.878787878787879
2.945259042033236
2.981427174975562
2.9960899315738025
3.0009775171065494
2.997067448680352
2.9853372434017595
2.967741935483871
2.946236559139785
2.921798631476051
2.8944281524926687
2.865102639296188
2.831867057673509
2.795698924731183
2.7546432062561097
2.7116324535679373
2.665689149560117
2.613880742913001
2.5562072336265884
2.49266862170088
2.423264907135875
2.3489736070381237
2.270772238514174
2.187683284457478
2.102639296187683
2.0175953079178885
1.9335288367546437
1.8602150537634408
1.796676441837732
1.732160312805474
1.672531769305963
1.6207233626588464
1.5777126099706744
1.544477028347996
1.520039100684262
1.504398826979472
1.4946236559139785
1.4887585532746823
1.4838709677419355
1.479960899315738
1.47702834799609
1.474095796676442
1.469208211143695
1.4623655913978495
1.4545454545454546
1.4457478005865103
1.434017595307918
1.4203323558162269
1.4066471163245358
1.391006842619746
1.3743890518084063
1.3577712609970674
1.3440860215053765
1.3333333333333333
1.321603128054741
1.3079178885630498
1.2932551319648091
1.2795698924731185
1.2668621700879763
1.2541544477028348
1.241446725317693
1.2287390029325511
1.2160312805474096
1.2043010752688172
1.195503421309873
1.1915933528836755
1.1915933528836755
1.1915933528836755
1.1915933528836755
1.1915933528836755
1.1915933528836755
1.1915933528836755
1.1915933528836755
1.1915933528836755
1.1915933528836755
1.1915933528836755
1.1915933528836755
1.1925708699902249
1.1935483870967742
1.1925708699902249
1.1925708699902249
1.1915933528836755
1.1886608015640274
1.1867057673509287
1.1867057673509287
1.1925708699902249
1.2150537634408602
1.2609970674486803
1.3362658846529814
1.444770283479961
1.5620723362658846
1.6911045943304008
1.8533724340175952
2.029325513196481
2.201368523949169
2.357771260997068
2.489736070381232
2.595307917888563
2.673509286412512
2.7262952101661777
2.757575757575758
2.76930596285435
2.766373411534702
2.750733137829912
2.727272727272727
2.6959921798631474
2.659824046920821
2.621700879765396
2.5806451612903225
2.5376344086021505
2.4946236559139785
2.450635386119257
2.4056695992179864
2.358748778103617
2.30791788856305
2.259042033235582
2.209188660801564
2.150537634408602
2.0840664711632453
2.0117302052785924
1.9345063538611929
1.8533724340175952
1.7712609970674489
1.6930596285434996
1.619745845552297
1.5513196480938416
1.4916911045943304
1.4467253176930597
1.414467253176931
1.3851417399804498
1.3616813294232648
1.3450635386119256
1.3343108504398826
1.3294232649071358
1.3264907135874875
1.324535679374389
1.321603128054741
1.3176930596285434
1.313782991202346
1.3079178885630498
1.303030303030303
1.2971652003910068
1.2883675464320623
1.2766373411534702
1.2609970674486803
1.2424242424242424
1.2228739002932552
1.2023460410557183
1.181818181818182
1.163245356793744
1.1456500488758554
1.1280547409579669
1.115347018572825
1.1026392961876832
1.086021505376344
1.0694037145650048
1.0547409579667644
1.0410557184750733
1.0283479960899315
1.0156402737047898
1.0039100684261977
0.9951124144672532
0.9882697947214076
0.9824046920821116
0.9794721407624634
0.9824046920821116
0.9882697947214076
0.9931573802541545
0.9990224828934506
1.0068426197458455
1.0166177908113392
1.0254154447702837
1.0342130987292275
1.043010752688172
1.050830889540567
1.056695992179863
1.06158357771261
1.0684261974584557
1.0762463343108504
1.083088954056696
1.0909090909090908
1.0987292277614855
1.1055718475073313
1.110459433040078
1.1143695014662756
1.1192570869990224
1.1280547409579669
1.1466275659824048
1.181818181818182
1.2443792766373412
1.3225806451612905
1.423264907135875
1.5669599217986314
1.7429130009775171
1.93841642228739
2.1388074291300097
2.3284457478005867
2.498533724340176
2.6422287390029324
2.7565982404692084
2.8426197458455524
2.902248289345064
2.9266862170087977
2.927663734115347
2.921798631476051
2.90811339198436
2.889540566959922
2.8641251221896384
2.833822091886608
2.801564027370479
2.768328445747801
2.7341153470185726
2.696969696969697
2.6578690127077222
2.616813294232649
2.573802541544477
2.529814271749756
2.4819159335288368
2.4301075268817205
2.3714565004887587
2.3059628543499517
2.232649071358749
2.1515151515151514
2.065493646138808
1.975562072336266
1.8836754643206255
1.793743890518084
1.718475073313783
1.6529814271749756
1.5884652981427174
1.5298142717497556
1.479960899315738
1.4379276637341154
1.404692082111437
1.3782991202346042
1.3607038123167154
1.3499511241446724
1.3421309872922775
1.3362658846529814
1.3333333333333333
1.3304007820136852
1.3235581622678396
1.3147605083088951
1.3040078201368523
1.29227761485826
1.2795698924731185
1.2658846529814272
1.2512218963831867
1.2355816226783969
1.2189638318670577
1.2023460410557183
1.1857282502443791
1.173998044965787
1.163245356793744
1.1495601173020529
1.1348973607038124
1.1192570869990224
1.104594330400782
1.0918866080156402
1.0811339198435972
1.0713587487781036
1.0635386119257086
1.0576735092864125
1.0527859237536656
1.050830889540567
1.0518084066471165
1.0498533724340176
1.0478983382209188
1.0478983382209188
1.0478983382209188
1.0478983382209188
1.0498533724340176
1.050830889540567
1.0518084066471165
1.0518084066471165
1.0498533724340176
1.0469208211143697
1.04594330400782
1.0469208211143697
1.0469208211143697
1.0547409579667644
1.0772238514173995
1.121212121212121
1.195503421309873
1.3040078201368523
1.4467253176930597
1.6158357771260996
1.7996089931573802
1.986314760508309
2.1417399804496577
2.272727272727273
2.398826979472141
2.505376344086021
2.5884652981427174
2.650048875855328
2.6911045943304006
2.7145650048875853
2.721407624633431
2.716520039100684
2.702834799608993
2.681329423264907
2.656891495601173
2.632453567937439
2.606060606060606
2.5777126099706744
2.549364613880743
2.520039100684262
2.487781036168133
2.4516129032258065
2.410557184750733
2.363636363636364
2.3118279569892475
2.2531769305962857
2.188660801564027
2.126099706744868
2.0635386119257086
1.992179863147605
1.9159335288367547
1.839687194525904
1.7663734115347018
1.696969696969697
1.635386119257087
1.581622678396872
1.5366568914956011
1.5024437927663734
1.478983382209189
1.4643206256109482
1.457478005865103
1.456500488758553
1.458455522971652
1.4633431085043989
1.466275659824047
1.4682306940371457
1.469208211143695
1.469208211143695
1.4672531769305963
1.4623655913978495
1.455522971652004
1.447702834799609
1.4408602150537635
1.4320625610948192
1.4193548387096775
1.4056695992179864
1.392961876832845
1.380254154447703
1.367546432062561
1.3558162267839686
1.346041055718475
1.3362658846529814
1.324535679374389
1.3128054740957966
1.3010752688172045
1.29227761485826
1.284457478005865
1.273704789833822
1.2619745845552297
1.2512218963831867
1.2404692082111437
1.2316715542521994
1.224828934506354
1.2189638318670577
1.2150537634408602
1.2130987292277615
1.2121212121212122
1.2130987292277615
1.2130987292277615
1.2121212121212122
1.2121212121212122
1.2121212121212122
1.2121212121212122
1.2130987292277615
1.2160312805474096
1.2189638318670577
1.2218963831867058
1.2238514173998043
1.2258064516129032
1.227761485826002
1.2326490713587488
1.2365591397849462
1.2394916911045943
1.241446725317693
1.2404692082111437
1.2355816226783969
1.2267839687194526
1.217008797653959
1.2111436950146628
1.2140762463343109
1.2346041055718475
1.281524926686217
1.3440860215053765
1.4301075268817205
1.5562072336265884
1.7145650048875856
1.8944281524926687
2.080156402737048
2.257086999022483
2.41544477028348
2.548387096774193
2.6529814271749754
2.729227761485826
2.7781036168132944
2.8044965786901277
2.811339198435973
2.8025415444770285
