ppg
2.147605083088954
2.3225806451612905
2.466275659824047
2.581622678396872
2.69208211143695
2.790811339198436
2.873900293255132
2.9423264907135875
3.0019550342130987
3.053763440860215
3.096774193548387
3.133919843597263
3.1652003910068425
3.187683284457478
3.19941348973607
3.1955034213098727
3.176930596285435
3.145650048875855
3.099706744868035
3.0391006842619745
2.967741935483871
2.886608015640274
2.798631476050831
2.70772238514174
2.619745845552297
2.5386119257087
2.4672531769305963
2.409579667644184
2.364613880742913
2.329423264907136
2.3010752688172045
2.2795698924731185
2.2639296187683287
2.2482893450635384
2.2297165200391005
2.210166177908113
2.190615835777126
2.16911045943304
2.1436950146627565
2.114369501466276
2.086021505376344
2.058651026392962
2.032258064516129
2.0087976539589443
1.986314760508309
1.964809384164223
1.9442815249266865
1.921798631476051
1.8963831867057677
1.8699902248289344
1.844574780058651
1.818181818181818
1.796676441837732
1.7761485826001957
1.75366568914956
1.726295210166178
1.6959921798631477
1.6656891495601174
1.6334310850439884
1.5992179863147604
1.565982404692082
1.5347018572825024
1.5063538611925709
1.4819159335288368
1.4613880742913
1.447702834799609
1.436950146627566
1.4242424242424243
1.4066471163245358
1.3861192570869991
1.3655913978494625
1.3440860215053765
1.321603128054741
1.2981427174975562
1.2727272727272727
1.2473118279569892
1.2228739002932552
1.2082111436950147
1.1994134897360704
1.1925708699902249
1.195503421309873
1.2189638318670577
1.2688172043010753
1.348973607038123
1.4633431085043989
1.607038123167155
1.7702834799608993
1.943304007820137
2.117302052785924
2.2844574780058653
2.420332355816227
2.530791788856305
2.6373411534701856
2.730205278592375
2.806451612903226
2.868035190615836
2.9149560117302054
2.952101661779081
2.9804496578690127
3.0009775171065494
3.01564027370479
3.021505376344086
3.01564027370479
2.99902248289345
2.975562072336266
2.9423264907135875
2.895405669599218
2.8377321603128056
2.7702834799608995
2.695014662756598
2.6148582600195502
2.533724340175953
2.453567937438905
2.376344086021505
2.3059628543499517
2.2482893450635384
2.201368523949169
2.160312805474096
2.1251221896383186
2.0977517106549364
2.0762463343108504
2.0576735092864125
2.038123167155425
2.016617790811339
1.9951124144672527
1.9716520039100685
1.945259042033236
1.919843597262952
1.8934506353861196
1.8631476050830889
1.835777126099707
1.8093841642228736
1.782991202346041
1.7565982404692082
1.7302052785923754
1.7057673509286413
1.6803519061583578
1.6529814271749756
1.6236559139784943
1.5933528836754642
1.5679374389051808
1.544477028347996
1.5161290322580645
1.4848484848484849
1.452590420332356
1.418377321603128
1.3861192570869991
1.3558162267839686
1.327468230694037
1.303030303030303
1.2805474095796676
1.2590420332355816
1.2434017595307918
1.2297165200391007
1.2140762463343109
1.198435972629521
1.1837732160312806
1.1681329423264908
1.1534701857282503
1.1397849462365592
1.126099706744868
1.1114369501466277
1.0957966764418376
1.0791788856304985
1.0664711632453567
1.0576735092864125
1.0478983382209188
1.043010752688172
1.0498533724340176
1.075268817204301
1.1251221896383188
1.2043010752688172
1.3147605083088951
1.4545454545454546
1.6138807429130009
1.7849462365591398
1.9589442815249267
2.1065493646138806
2.231671554252199
2.3548387096774195
2.466275659824047
2.5640273704789838
2.643206256109482
2.70772238514174
2.760508308895406
2.803519061583578
2.8377321603128056
2.865102639296188
2.886608015640274
2.8963831867057674
2.8944281524926687
2.884652981427175
2.86217008797654
2.8260019550342133
2.777126099706745
2.7145650048875853
2.6422287390029324
2.563049853372434
2.4789833822091887
2.3949169110459434
2.313782991202346
2.241446725317693
2.182795698924731
2.133919843597263
2.088954056695992
2.050830889540567
2.0205278592375366
1.9960899315738023
1.9775171065493649
1.9608993157380252
1.9423264907135875
1.921798631476051
1.9012707722385145
1.878787878787879
1.857282502443793
1.8347996089931573
1.8074291300097751
1.7781036168132942
1.747800586510264
1.7194525904203324
1.6950146627565983
1.672531769305963
1.6500488758553276
1.624633431085044
1.5962854349951123
1.5669599217986314
1.5376344086021505
1.5151515151515151
1.4965786901270772
1.4731182795698925
1.4467253176930597
1.418377321603128
1.3900293255131966
1.3655913978494625
1.343108504398827
1.321603128054741
1.3020527859237536
1.284457478005865
1.2541544477028348
1.2228739002932552
1.2023460410557183
1.181818181818182
1.163245356793744
1.147605083088954
1.1319648093841643
1.1163245356793745
1.0977517106549364
1.0762463343108504
1.056695992179863
1.0371456500488758
1.018572825024438
1.0048875855327468
0.9980449657869012
0.997067448680352
0.9990224828934506
1.010752688172043
1.040078201368524
1.0918866080156402
1.1681329423264908
1.2717497556207231
1.3998044965786902
1.5464320625610948
1.7038123167155426
1.86119257086999
1.9951124144672527
2.1094819159335287
2.222873900293255
2.3255131964809386
2.4144672531769307
2.4887585532746823
2.548387096774193
2.5962854349951123
2.635386119257087
2.6666666666666665
2.6911045943304006
2.708699902248289
2.720430107526881
2.721407624633431
2.710654936461388
2.689149560117302
2.6559139784946235
2.610948191593353
2.552297165200391
2.482893450635386
2.406647116324536
2.326490713587488
2.24633431085044
2.1710654936461387
2.102639296187683
2.046920821114369
2.0009775171065494
1.9589442815249267
1.9257086999022484
1.9012707722385145
1.884652981427175
1.871945259042033
1.858260019550342
1.8416422287390029
1.8240469208211143
1.804496578690127
1.7810361681329423
1.7565982404692082
1.737047898338221
1.718475073313783
1.6979472140762464
1.675464320625611
1.651026392961877
1.624633431085044
1.5972629521016617
1.56891495601173
1.5405669599217986
1.512218963831867
1.4858260019550342
1.4604105571847508
1.439882697947214
1.4213098729227762
1.3978494623655917
1.3724340175953078
1.3440860215053765
1.3147605083088951
1.2883675464320623
1.2658846529814272
1.2443792766373412
1.224828934506354
1.2052785923753666
1.1867057673509287
1.1720430107526882
1.1622678396871946
1.1534701857282503
1.142717497556207
1.1300097751710656
1.115347018572825
1.0987292277614855
1.0801564027370478
1.0625610948191593
1.0449657869012707
1.0273704789833822
1.013685239491691
1.002932551319648
0.997067448680352
0.9951124144672532
0.997067448680352
1.010752688172043
1.0449657869012707
1.104594330400782
1.1915933528836755
1.3069403714565004
1.4486803519061584
1.608993157380254
1.7771260997067448
1.945259042033236
2.104594330400782
2.231671554252199
2.334310850439883
2.4330400782013686
2.5210166177908118
2.5943304007820136
2.654936461388074
2.7038123167155423
2.7438905180840663
2.777126099706745
2.803519061583578
2.8240469208211145
2.8367546432062563
2.8377321603128056
2.8269794721407626
2.807429130009776
2.776148582600196
2.7331378299120237
2.6803519061583576
2.618768328445748
2.5513196480938416
2.479960899315738
2.407624633431085
2.3382209188660803
2.2737047898338223
2.219941348973607
2.175953079178885
2.134897360703812
2.099706744868035
2.071358748778104
2.0498533724340176
2.0332355816226784
2.0205278592375366
2.0097751710654936
1.997067448680352
1.9833822091886608
1.9696969696969695
1.9530791788856303
1.935483870967742
1.9159335288367547
1.8914956011730208
1.865102639296188
1.8377321603128052
1.8103616813294232
1.7820136852394917
1.7556207233626588
1.7302052785923754
1.7057673509286413
1.6813294232649072
1.6578690127077225
1.6373411534701858
1.619745845552297
1.5992179863147604
1.5747800586510263
1.5513196480938416
1.5268817204301075
1.5034213098729228
1.4819159335288368
1.4633431085043989
1.4467253176930597
1.43108504398827
1.4164222873900294
1.401759530791789
1.391006842619746
1.383186705767351
1.3743890518084063
1.3655913978494625
1.3577712609970674
1.3499511241446724
1.3411534701857282
1.3333333333333333
1.324535679374389
1.3147605083088951
1.3049853372434017
1.295210166177908
1.289345063538612
1.2873900293255132
1.2873900293255132
1.2932551319648091
1.3128054740957966
1.3548387096774193
1.423264907135875
1.5190615835777126
1.6422287390029326
1.7878787878787878
1.945259042033236
2.104594330400782
2.257086999022483
2.378299120234604
2.4750733137829912
2.56891495601173
2.6529814271749754
2.7233626588465296
2.7810361681329425
2.8289345063538613
2.8670576735092865
2.8963831867057674
2.920821114369501
2.940371456500489
2.951124144672532
2.948191593352884
2.9345063538611926
2.913000977517106
2.878787878787879
2.831867057673509
2.774193548387097
2.7067448680351904
2.631476050830889
2.5513196480938416
2.4682306940371457
2.3851417399804498
2.304007820136853
2.228739002932551
2.166177908113392
2.114369501466276
2.0684261974584555
2.029325513196481
1.9980449657869013
1.9745845552297163
1.9560117302052784
1.9393939393939397
1.9237536656891496
1.9090909090909087
1.8934506353861196
1.873900293255132
1.8533724340175952
1.83088954056696
1.8035190615835777
1.7741935483870968
1.7458455522971652
1.7174975562072337
1.6901270772238517
1.66177908113392
1.6334310850439884
1.606060606060606
1.5786901270772238
1.5503421309872922
1.521994134897361
1.498533724340176
1.478983382209189
1.456500488758553
1.434017595307918
1.409579667644184
1.3890518084066472
1.370478983382209
1.3499511241446724
1.3284457478005864
1.3079178885630498
1.2883675464320623
1.2697947214076246
1.2580645161290325
1.2502443792766371
1.2375366568914956
1.2218963831867058
1.2043010752688172
1.187683284457478
1.1720430107526882
1.1564027370478984
1.141739980449658
1.1270772238514175
1.1124144672531768
1.0977517106549364
1.083088954056696
1.0733137829912025
1.0664711632453567
1.0586510263929618
1.0557184750733135
1.067448680351906
1.1006842619745845
1.1612903225806452
1.252199413489736
1.3743890518084063
1.521016617790811
1.6813294232649072
1.8465298142717497
1.988269794721408
2.110459433040078
2.2355816226783967
2.3489736070381237
2.44672531769306
2.5288367546432062
2.595307917888563
2.6480938416422286
2.6901270772238512
2.7233626588465296
2.7497556207233624
2.76930596285435
2.782013685239492
2.782991202346041
2.774193548387097
2.7565982404692084
2.7262952101661777
2.6832844574780057
2.6295210166177907
2.565982404692082
2.49266862170088
2.4144672531769307
2.333333333333333
2.2521994134897363
2.1739980449657867
2.10850439882698
2.0557184750733137
2.007820136852395
1.9667644183773216
1.9345063538611929
1.911045943304008
1.8944281524926687
1.8807429130009776
1.8670576735092863
1.8504398826979471
1.8318670576735088
1.8093841642228736
1.7849462365591398
1.7644183773216031
1.7448680351906158
1.7194525904203324
1.6920821114369502
1.6637341153470186
1.635386119257087
1.608993157380254
1.5826001955034212
1.5562072336265884
1.530791788856305
1.5053763440860215
1.478983382209189
1.4594330400782014
1.4418377321603129
1.4213098729227762
1.3988269794721409
1.3743890518084063
1.3479960899315735
1.321603128054741
1.295210166177908
1.2688172043010753
1.2443792766373412
1.2228739002932552
1.2023460410557183
1.1837732160312806
1.173998044965787
1.1700879765395895
1.1652003910068427
1.1583577712609971
1.147605083088954
1.1348973607038124
1.121212121212121
1.10752688172043
1.0918866080156402
1.0742913000977516
1.056695992179863
1.040078201368524
1.0303030303030305
1.024437927663734
1.0195503421309873
1.0205278592375366
1.0342130987292275
1.0684261974584557
1.1290322580645162
1.217008797653959
1.3333333333333333
1.474095796676442
1.632453567937439
1.8005865102639296
1.946236559139785
2.072336265884653
2.20039100684262
2.318670576735093
2.4222873900293256
2.50733137829912
2.573802541544477
2.625610948191593
2.6666666666666665
2.7008797653958942
2.7282502443792764
2.7497556207233624
2.7624633431085046
2.764418377321604
2.755620723362659
2.73802541544477
2.708699902248289
2.6666666666666665
2.611925708699902
2.547409579667644
2.474095796676442
2.3949169110459434
2.315738025415445
2.2385141739980448
2.1652003910068425
2.1055718475073317
2.056695992179863
2.0117302052785924
1.9745845552297163
1.946236559139785
1.9266862170087975
1.9120234604105573
1.8993157380254155
1.8875855327468232
1.8729227761485825
1.8563049853372435
1.835777126099707
1.8113391984359728
1.7888563049853372
1.7673509286412512
1.7429130009775171
1.715542521994135
1.686217008797654
1.6578690127077225
1.6285434995112416
1.6001955034213098
1.5708699902248289
1.543499511241447
1.5180840664711632
1.4926686217008798
1.4731182795698925
1.456500488758553
1.435972629521017
1.4134897360703813
1.3900293255131966
1.3665689149560116
1.3440860215053765
1.3235581622678396
1.3020527859237536
1.2805474095796676
1.260019550342131
1.241446725317693
1.2267839687194526
1.2179863147605083
1.2111436950146628
1.2013685239491692
1.1896383186705768
1.1749755620723363
1.160312805474096
1.144672531769306
1.1270772238514175
1.1094819159335287
1.0918866080156402
1.0762463343108504
1.0606060606060606
1.050830889540567
1.043010752688172
1.0342130987292275
1.0312805474095796
1.0410557184750733
1.0703812316715542
1.126099706744868
1.2101661779081134
1.3235581622678396
1.4604105571847508
1.6148582600195502
1.780058651026393
1.945259042033236
2.083088954056696
2.1974584555229715
2.3098729227761488
2.410557184750733
2.495601173020528
2.5650048875855327
2.619745845552297
2.6637341153470184
2.699902248289345
2.7311827956989245
2.757575757575758
2.777126099706745
2.78494623655914
2.7839687194525906
2.776148582600196
2.7565982404692084
2.724340175953079
2.679374389051808
2.622678396871945
2.557184750733138
2.4838709677419355
2.407624633431085
2.333333333333333
2.260997067448681
2.1955034213098727
2.1417399804496577
2.099706744868035
2.064516129032258
2.037145650048876
2.01564027370479
1.9990224828934504
1.9853372434017595
1.970674486803519
1.9560117302052784
1.9403714565004888
1.9237536656891496
1.905180840664712
1.8885630498533723
1.871945259042033
1.8514173998044965
1.8299120234604105
1.8064516129032255
1.782991202346041
1.7595307917888563
1.7360703812316716
1.7126099706744868
1.689149560117302
1.6637341153470186
1.6383186705767352
1.6265884652981428
1.6256109481915937
1.6158357771260996
1.5972629521016617
1.5728250244379276
1.547409579667644
1.52297165200391
1.499511241446725
1.479960899315738
1.4604105571847508
1.4418377321603129
1.4242424242424243
1.4086021505376345
1.3998044965786902
1.3949169110459434
1.388074291300098
1.3792766373411536
1.3695014662756595
1.359726295210166
1.348973607038123
1.33822091886608
1.327468230694037
1.316715542521994
1.305962854349951
1.295210166177908
1.284457478005865
1.2795698924731185
1.2795698924731185
1.2834799608993157
1.2991202346041055
1.3294232649071358
1.3812316715542523
1.4623655913978495
1.576735092864125
1.7253176930596286
1.900293255131965
2.088954056695992
2.2795698924731185
2.4408602150537635
2.578690127077224
2.7155425219941347
2.8406647116324537
2.9501466275659824
3.043010752688172
3.118279569892473
3.1818181818181817
3.236559139784946
3.2844574780058653
3.32355816226784
3.3519061583577714
3.3704789833822093
3.3714565004887587
3.3597262952101663
3.340175953079179
3.3059628543499517
3.257086999022483
3.193548387096774
3.117302052785924
3.032258064516129
2.9393939393939394
2.843597262952102
2.7497556207233624
2.66177908113392
2.5865102639296187
2.5249266862170088
2.4682306940371457
2.419354838709677
2.3822091886608017
2.35386119257087
2.3313782991202348
2.310850439882698
2.290322580645161
2.267839687194526
2.241446725317693
2.2130987292277613
2.182795698924731
2.15347018572825
2.124144672531769
2.089931573802541
2.0557184750733137
2.022482893450636
1.989247311827957
1.9560117302052784
1.919843597262952
1.8856304985337244
1.8543499511241448
1.822091886608016
1.7888563049853372
1.758553274682307
1.7302052785923754
1.6989247311827955
1.6666666666666667
1.6344086021505375
1.6021505376344083
1.5698924731182795
1.5395894428152492
1.512218963831867
1.487781036168133
1.466275659824047
1.444770283479961
1.4271749755620724
1.412512218963832
1.3958944281524928
1.3773216031280548
1.3577712609970674
1.3411534701857282
1.3255131964809383
1.3079178885630498
1.2883675464320623
1.267839687194526
1.249266862170088
1.2326490713587488
1.2130987292277615
1.198435972629521
1.1867057673509287
1.1749755620723363
1.1691104594330402
1.1730205278592376
1.1935483870967742
1.2424242424242424
1.324535679374389
1.4389051808406648
1.5826001955034212
1.7468230694037146
1.921798631476051
2.0762463343108504
2.2170087976539588
2.3655913978494625
2.505376344086021
2.6295210166177907
2.7331378299120237
2.81622678396872
2.881720430107527
2.9345063538611926
2.9775171065493646
3.0117302052785924
3.040078201368524
3.059628543499511
3.065493646138808
3.059628543499511
3.048875855327468
3.029325513196481
2.995112414467253
2.9442815249266863
2.878787878787879
2.7996089931573804
2.7116324535679373
2.6207233626588464
2.529814271749756
2.4408602150537635
2.3655913978494625
2.3010752688172045
2.2404692082111435
2.187683284457478
2.1417399804496577
2.104594330400782
2.075268817204301
2.0527859237536656
2.0332355816226784
2.01564027370479
1.997067448680352
1.9775171065493649
1.95405669599218
1.9296187683284456
1.905180840664712
1.8758553274682308
1.842619745845552
1.8074291300097751
1.7712609970674489
1.7350928641251222
1.7038123167155426
1.6774193548387095
1.6520039100684265
1.6256109481915937
1.5992179863147604
1.576735092864125
1.5542521994134897
1.5268817204301075
1.4965786901270772
1.4623655913978495
1.4271749755620724
1.393939393939394
1.3636363636363635
1.33822091886608
1.3147605083088951
1.29227761485826
1.2697947214076246
1.249266862170088
1.2346041055718475
1.224828934506354
1.2121212121212122
1.1964809384164223
1.1798631476050832
1.164222873900293
1.147605083088954
1.1319648093841643
1.1143695014662756
1.0957966764418376
1.0762463343108504
1.0557184750733135
1.043010752688172
1.0332355816226784
1.021505376344086
1.013685239491691
1.013685239491691
1.0283479960899315
1.0664711632453567
1.1348973607038124
1.2365591397849462
1.3695014662756595
1.5288367546432062
1.7057673509286413
1.889540566959922
2.047898338220919
2.185728250244379
2.3225806451612905
2.447702834799609
2.5562072336265884
2.6471163245356792
2.720430107526881
2.7781036168132944
2.825024437927664
2.863147605083089
2.8944281524926687
2.919843597262952
2.932551319648094
2.9335288367546437
2.9286412512218964
2.9120234604105573
2.8807429130009776
2.835777126099707
2.776148582600196
2.701857282502444
2.616813294232649
2.525904203323558
2.4349951124144678
2.347018572825025
2.26197458455523
2.1915933528836757
2.132942326490713
2.080156402737048
2.0361681329423265
2.0019550342130987
1.9765395894428155
1.9589442815249267
1.9442815249266865
1.9315738025415443
1.9178885630498532
1.900293255131965
1.8778103616813293
1.855327468230694
1.8347996089931573
1.8084066471163245
1.7771260997067448
1.7438905180840665
1.7126099706744868
1.6578690127077225
1.5933528836754642
1.552297165200391
1.520039100684262
1.490713587487781
1.4623655913978495
1.435972629521017
1.41544477028348
1.3988269794721409
1.3792766373411536
1.3577712609970674
1.3362658846529814
1.313782991202346
1.29227761485826
1.2727272727272727
1.2541544477028348
1.2355816226783969
1.217008797653959
1.1994134897360704
1.1857282502443791
1.1759530791788857
1.1622678396871946
1.147605083088954
1.133919843597263
1.1202346041055715
1.1065493646138806
1.0928641251221896
1.0791788856304985
1.0654936461388074
1.0518084066471165
1.0381231671554252
1.024437927663734
1.0156402737047898
1.0097751710654936
1.0048875855327468
1.0048875855327468
1.0146627565982405
1.0449657869012707
1.1006842619745845
1.1837732160312806
1.2942326490713587
1.4281524926686218
1.5796676441837731
1.7390029325513197
1.8778103616813293
1.9990224828934504
2.120234604105572
2.231671554252199
2.329423264907136
2.409579667644184
2.474095796676442
2.5249266862170088
2.567937438905181
2.6041055718475072
2.635386119257087
2.66177908113392
2.674486803519061
2.677419354838709
2.675464320625611
2.665689149560117
2.6451612903225805
2.6099706744868034
2.5610948191593352
2.5024437927663734
2.4330400782013686
2.358748778103617
2.283479960899316
2.2082111436950145
2.136852394916911
2.0762463343108504
2.024437927663734
1.9775171065493649
1.93841642228739
1.906158357771261
1.8797653958944285
1.8592375366568916
1.842619745845552
1.827956989247312
1.8132942326490715
1.796676441837732
1.780058651026393
1.7634408602150538
1.7458455522971652
1.7272727272727273
1.70772238514174
1.6871945259042034
1.6656891495601174
1.643206256109482
1.6187683284457477
1.5923753665689149
1.5669599217986314
1.544477028347996
1.52297165200391
1.5024437927663734
1.4848484848484849
1.469208211143695
1.4516129032258065
1.4330400782013686
1.4115347018572826
1.3900293255131966
1.3695014662756595
1.3499511241446724
1.332355816226784
1.316715542521994
1.3020527859237536
1.289345063538612
1.281524926686217
1.2776148582600195
1.2717497556207231
1.2649071358748778
1.2570869990224829
1.2482893450635386
1.2375366568914956
1.224828934506354
1.2140762463343109
1.2043010752688172
1.1945259042033236
1.1857282502443791
1.176930596285435
1.1710654936461389
1.1681329423264908
1.166177908113392
1.1700879765395895
1.1857282502443791
1.2209188660801564
1.281524926686217
1.370478983382209
1.4858260019550342
1.6226783968719452
1.7741935483870968
1.9335288367546437
2.072336265884653
2.1945259042033234
2.3196480938416424
2.4330400782013686
2.530791788856305
2.611925708699902
2.677419354838709
2.732160312805474
2.777126099706745
2.814271749755621
2.84652981427175
2.873900293255132
2.8944281524926687
2.902248289345064
2.898338220918866
2.887585532746823
2.866080156402737
2.832844574780059
2.787878787878788
2.7331378299120237
2.668621700879765
2.5962854349951123
2.5219941348973607
2.447702834799609
2.375366568914956
2.312805474095797
2.260019550342131
2.212121212121212
2.1730205278592374
2.1417399804496577
2.1192570869990224
2.103616813294233
2.093841642228739
2.086021505376344
2.078201368523949
2.069403714565005
2.058651026392962
2.043010752688172
2.0254154447702835
2.004887585532747
1.9804496578690127
1.9521016617790807
1.921798631476051
1.8905180840664717
1.8602150537634408
1.8318670576735088
1.804496578690127
1.7771260997067448
1.7487781036168133
1.7194525904203324
1.6950146627565983
1.6715542521994136
1.6441837732160314
1.6148582600195502
1.585532746823069
1.5571847507331378
1.5298142717497556
1.5024437927663734
1.4750733137829912
1.4486803519061584
1.4242424242424243
1.4037145650048877
1.3861192570869991
1.3724340175953078
1.3607038123167154
1.3450635386119256
1.327468230694037
1.3088954056695992
1.2903225806451613
1.2717497556207231
1.2531769305962854
1.2355816226783969
1.2189638318670577
1.203323558162268
1.187683284457478
1.1749755620723363
1.164222873900293
1.1534701857282503
1.1466275659824048
1.1456500488758554
1.155425219941349
1.1837732160312806
1.2375366568914956
1.3186705767350928
1.426197458455523
1.555229716520039
1.6989247311827955
1.8484848484848484
1.9775171065493649
2.0879765395894427
2.2023460410557183
2.3098729227761488
2.404692082111437
2.482893450635386
2.5454545454545454
2.5972629521016617
2.6402737047898337
2.674486803519061
2.701857282502444
2.7223851417399803
2.732160312805474
2.732160312805474
2.727272727272727
2.7155425219941347
2.6930596285435
2.6608015640273703
2.6158357771261
2.560117302052786
2.4946236559139785
2.4222873900293256
2.347018572825025
2.271749755620724
2.201368523949169
