ppg
1.895405669599218
2.078201368523949
2.251221896383187
2.4359726295210167
2.6041055718475072
2.73802541544477
2.83088954056696
2.8836754643206257
2.903225806451613
2.895405669599218
2.868035190615836
2.825024437927664
2.771260997067449
2.708699902248289
2.6471163245356792
2.58455522971652
2.5141739980449658
2.439882697947214
2.363636363636364
2.2854349951124147
2.207233626588465
2.1280547409579667
2.048875855327468
1.9696969696969695
1.8914956011730208
1.8132942326490715
1.7458455522971652
1.683284457478006
1.6148582600195502
1.543499511241447
1.4721407624633431
1.4027370478983383
1.3372434017595307
1.2756598240469208
1.2189638318670577
1.1700879765395895
1.1300097751710656
1.099706744868035
1.0811339198435972
1.075268817204301
1.0811339198435972
1.096774193548387
1.1231671554252198
1.1573802541544478
1.198435972629521
1.2434017595307918
1.289345063538612
1.3333333333333333
1.3734115347018572
1.4086021505376345
1.4389051808406648
1.4613880742913
1.478005865102639
1.490713587487781
1.499511241446725
1.504398826979472
1.5053763440860215
1.5034213098729228
1.499511241446725
1.4946236559139785
1.4887585532746823
1.482893450635386
1.478005865102639
1.4750733137829912
1.4721407624633431
1.4652981427174976
1.4535679374389052
1.435972629521017
1.41544477028348
1.3998044965786902
1.3998044965786902
1.43108504398827
1.5053763440860215
1.6304985337243405
1.8025415444770283
2.007820136852395
2.1974584555229715
2.3704789833822093
2.5464320625610948
2.699902248289345
2.81622678396872
2.89247311827957
2.930596285434995
2.9374389051808407
2.920821114369501
2.8856304985337244
2.8377321603128056
2.780058651026393
2.720430107526881
2.659824046920821
2.591397849462365
2.5190615835777126
2.442815249266862
2.3655913978494625
2.2873900293255134
2.209188660801564
2.1309872922776147
2.0527859237536656
1.9745845552297163
1.8973607038123168
1.8201368523949168
1.75366568914956
1.6930596285434996
1.6256109481915937
1.555229716520039
1.4848484848484849
1.4173998044965788
1.3519061583577712
1.2913000977517106
1.2365591397849462
1.1896383186705768
1.1515151515151516
1.1241446725317692
1.110459433040078
1.1085043988269794
1.1163245356793745
1.1348973607038124
1.163245356793744
1.2003910068426198
1.2443792766373412
1.2913000977517106
1.3372434017595307
1.3812316715542523
1.4203323558162269
1.4535679374389052
1.479960899315738
1.499511241446725
1.5131964809384164
1.521016617790811
1.5249266862170088
1.5249266862170088
1.52297165200391
1.5190615835777126
1.5131964809384164
1.5063538611925709
1.499511241446725
1.4926686217008798
1.4858260019550342
1.4809384164222874
1.4750733137829912
1.4652981427174976
1.4506353861192571
1.4301075268817205
1.4076246334310851
1.391006842619746
1.392961876832845
1.4281524926686218
1.5102639296187683
1.643206256109482
1.822091886608016
2.032258064516129
2.2238514173998043
2.3949169110459434
2.565982404692082
2.7116324535679373
2.8181818181818183
2.8826979472140764
2.9100684261974585
2.9071358748778104
2.881720430107527
2.8406647116324537
2.787878787878788
2.7262952101661777
2.664711632453568
2.6021505376344085
2.532746823069404
2.4594330400782014
2.3841642228739004
2.3069403714565007
2.2297165200391005
2.1515151515151514
2.0733137829912023
1.9951124144672527
1.916911045943304
1.839687194525904
1.7634408602150538
1.696969696969697
1.6363636363636365
1.5698924731182795
1.500488758553275
1.4320625610948192
1.364613880742913
1.3010752688172045
1.23069403714565
1.160312805474096
1.1065493646138806
1.0664711632453567
1.040078201368524
1.0283479960899315
1.029325513196481
1.040078201368524
1.0625610948191593
1.093841642228739
1.1329423264907137
1.1779081133919844
1.2258064516129032
1.2727272727272727
1.3157380254154447
1.3528836754643203
1.3841642228739004
1.4086021505376345
1.4271749755620724
1.439882697947214
1.447702834799609
1.4516129032258065
1.4516129032258065
1.4486803519061584
1.4437927663734116
1.436950146627566
1.4291300097751711
1.4203323558162269
1.412512218963832
1.404692082111437
1.3988269794721409
1.393939393939394
1.3851417399804498
1.3714565004887584
1.3519061583577712
1.3294232649071358
1.3088954056695992
1.3020527859237536
1.324535679374389
1.3890518084066472
1.504398826979472
1.6686217008797657
1.870967741935484
2.0625610948191597
2.2404692082111435
2.426197458455523
2.590420332355816
2.717497556207233
2.8025415444770285
2.8484848484848486
2.860215053763441
2.84652981427175
2.8132942326490715
2.7653958944281527
2.70772238514174
2.649071358748778
2.5884652981427174
2.520039100684262
2.44672531769306
2.3704789833822093
2.29227761485826
2.2130987292277613
2.133919843597263
2.053763440860215
1.9736070381231672
1.8934506353861196
1.8132942326490715
1.7341153470185728
1.664711632453568
1.6011730205278591
1.5317693059628543
1.4604105571847508
1.3890518084066472
1.3186705767350928
1.252199413489736
1.1906158357771262
1.1358748778103618
1.088954056695992
1.0518084066471165
1.0263929618768328
1.0146627565982405
1.0156402737047898
1.0263929618768328
1.0478983382209188
1.0791788856304985
1.118279569892473
1.163245356793744
1.2111436950146628
1.2580645161290325
1.303030303030303
1.343108504398827
1.3773216031280548
1.4037145650048877
1.4242424242424243
1.4389051808406648
1.4486803519061584
1.4535679374389052
1.455522971652004
1.4535679374389052
1.4496578690127078
1.4437927663734116
1.436950146627566
1.4291300097751711
1.4213098729227762
1.4134897360703813
1.4086021505376345
1.404692082111437
1.396871945259042
1.3841642228739004
1.3655913978494625
1.3440860215053765
1.3255131964809383
1.3225806451612905
1.3499511241446724
1.4222873900293256
1.5454545454545454
1.7165200391006843
1.89247311827957
2.071358748778104
2.274682306940372
2.4701857282502444
2.636363636363636
2.7614858260019552
2.8426197458455524
2.884652981427175
2.89345063538612
2.875855327468231
2.8396871945259043
2.789833822091887
2.729227761485826
2.668621700879765
2.6050830889540566
2.533724340175953
2.458455522971652
2.380254154447703
2.300097751710655
2.219941348973607
2.139784946236559
2.058651026392962
1.978494623655914
1.8983382209188664
1.8191593352883677
1.750733137829912
1.6871945259042034
1.616813294232649
1.543499511241447
1.4701857282502444
1.3978494623655917
1.327468230694037
1.2609970674486803
1.2003910068426198
1.1466275659824048
1.1006842619745845
1.0654936461388074
1.0410557184750733
1.0303030303030305
1.032258064516129
1.0439882697947214
1.0664711632453567
1.0987292277614855
1.1397849462365592
1.1857282502443791
1.2346041055718475
1.2825024437927663
1.327468230694037
1.367546432062561
1.4007820136852396
1.4271749755620724
1.4467253176930597
1.4623655913978495
1.4731182795698925
1.478983382209189
1.4809384164222874
1.479960899315738
1.47702834799609
1.4721407624633431
1.4652981427174976
1.458455522971652
1.4516129032258065
1.444770283479961
1.439882697947214
1.434017595307918
1.4242424242424243
1.409579667644184
1.3900293255131966
1.3695014662756595
1.356793743890518
1.3655913978494625
1.412512218963832
1.5073313782991202
1.653958944281525
1.844574780058651
2.0303030303030303
2.2111436950146626
2.406647116324536
2.587487781036168
2.7341153470185726
2.838709677419355
2.9012707722385143
2.927663734115347
2.9237536656891496
2.898338220918866
2.857282502443793
2.803519061583578
2.740957966764418
2.678396871945259
2.613880742913001
2.5425219941348973
2.466275659824047
2.388074291300098
2.3069403714565007
2.225806451612903
2.1436950146627565
2.06158357771261
1.9794721407624636
1.8973607038123168
1.8162267839687196
1.7468230694037146
1.683284457478006
1.6129032258064515
1.5405669599217986
1.4682306940371457
1.3978494623655917
1.3294232649071358
1.2649071358748778
1.2052785923753666
1.1515151515151516
1.1065493646138806
1.072336265884653
1.0498533724340176
1.0420332355816226
1.0469208211143697
1.0625610948191593
1.0899315738025417
1.126099706744868
1.1700879765395895
1.2179863147605083
1.2658846529814272
1.3118279569892473
1.35386119257087
1.3890518084066472
1.418377321603128
1.439882697947214
1.4545454545454546
1.4643206256109482
1.4701857282502444
1.4711632453567938
1.469208211143695
1.4633431085043989
1.456500488758553
1.4486803519061584
1.439882697947214
1.4301075268817205
1.4203323558162269
1.4105571847507332
1.4037145650048877
1.3998044965786902
1.393939393939394
1.380254154447703
1.3607038123167154
1.3372434017595307
1.3176930596285434
1.3147605083088951
1.343108504398827
1.4173998044965788
1.543499511241447
1.718475073313783
1.8973607038123168
2.078201368523949
2.2825024437927666
2.47702834799609
2.641251221896383
2.763440860215054
2.841642228739003
2.8807429130009776
2.887585532746823
2.8690127077223853
2.831867057673509
2.782013685239492
2.721407624633431
2.659824046920821
2.5972629521016617
2.5268817204301075
2.4516129032258065
2.3734115347018574
2.29227761485826
2.2111436950146626
2.129032258064516
2.046920821114369
1.9657869012707725
1.884652981427175
1.8035190615835777
1.7341153470185728
1.6695992179863148
1.598240469208211
1.5249266862170088
1.4506353861192571
1.3782991202346042
1.3079178885630498
1.2424242424242424
1.181818181818182
1.1290322580645162
1.0850439882697946
1.050830889540567
1.029325513196481
1.0224828934506354
1.0273704789833822
1.043010752688172
1.0694037145650048
1.104594330400782
1.1466275659824048
1.1935483870967742
1.241446725317693
1.2873900293255132
1.3304007820136852
1.367546432062561
1.3978494623655917
1.4203323558162269
1.436950146627566
1.4496578690127078
1.456500488758553
1.4594330400782014
1.458455522971652
1.4545454545454546
1.4486803519061584
1.4418377321603129
1.4349951124144673
1.4281524926686218
1.4203323558162269
1.414467253176931
1.409579667644184
1.4027370478983383
1.393939393939394
1.380254154447703
1.3616813294232648
1.3391984359726294
1.3186705767350928
1.3118279569892473
1.3343108504398826
1.3998044965786902
1.5161290322580645
1.683284457478006
1.857282502443793
2.0361681329423265
2.242424242424242
2.443792766373412
2.6177908113391983
2.750733137829912
2.8396871945259043
2.887585532746823
2.900293255131965
2.8856304985337244
2.8514173998044967
2.8025415444770285
2.748778103616813
2.6911045943304006
2.624633431085044
2.552297165200391
2.4760508308895406
2.396871945259042
2.3167155425219943
2.236559139784946
2.155425219941349
2.074291300097752
1.9931573802541545
1.9120234604105573
1.83088954056696
1.7605083088954057
1.6959921798631477
1.6236559139784943
1.5493646138807429
1.474095796676442
1.4007820136852396
1.3304007820136852
1.2639296187683284
1.2023460410557183
1.1485826001955035
1.1026392961876832
1.067448680351906
1.04594330400782
1.0381231671554252
1.0381231671554252
1.0498533724340176
1.0733137829912025
1.1065493646138806
1.1485826001955035
1.195503421309873
1.2443792766373412
1.2913000977517106
1.335288367546432
1.3743890518084063
1.4066471163245358
1.4320625610948192
1.4506353861192571
1.4643206256109482
1.4731182795698925
1.478005865102639
1.478983382209189
1.4760508308895406
1.4711632453567938
1.4643206256109482
1.456500488758553
1.447702834799609
1.4389051808406648
1.4320625610948192
1.426197458455523
1.4193548387096775
1.4086021505376345
1.393939393939394
1.3734115347018572
1.3499511241446724
1.3304007820136852
1.327468230694037
1.3548387096774193
1.4271749755620724
1.5513196480938416
1.7253176930596286
1.9042033235581624
2.086021505376344
2.29227761485826
2.490713587487781
2.658846529814272
2.78494623655914
2.868035190615836
2.9100684261974585
2.918866080156403
2.902248289345064
2.8670576735092865
2.819159335288368
2.766373411534702
2.7096774193548385
2.644183773216031
2.573802541544477
2.498533724340176
2.421309872922776
2.3421309872922778
2.26197458455523
2.1808406647116323
2.099706744868035
2.018572825024438
1.93841642228739
1.858260019550342
1.7888563049853372
1.7243401759530792
1.6529814271749756
1.5796676441837731
1.5053763440860215
1.4320625610948192
1.3607038123167154
1.2942326490713587
1.2326490713587488
1.1779081133919844
1.1329423264907137
1.0987292277614855
1.0791788856304985
1.072336265884653
1.075268817204301
1.088954056695992
1.115347018572825
1.1515151515151516
1.1964809384164223
1.2453567937438903
1.295210166177908
1.3440860215053765
1.388074291300098
1.4252199413489737
1.455522971652004
1.478005865102639
1.4946236559139785
1.5063538611925709
1.5131964809384164
1.5151515151515151
1.5141739980449658
1.5102639296187683
1.504398826979472
1.4965786901270772
1.487781036168133
1.478005865102639
1.4672531769305963
1.4594330400782014
1.452590420332356
1.4428152492668622
1.43108504398827
1.414467253176931
1.392961876832845
1.3685239491691104
1.3479960899315735
1.3440860215053765
1.3714565004887584
1.4437927663734116
1.5679374389051808
1.7419354838709675
1.920821114369501
2.101661779081134
2.30791788856305
2.506353861192571
2.674486803519061
2.80058651026393
2.881720430107527
2.921798631476051
2.927663734115347
2.90811339198436
2.8690127077223853
2.817204301075269
2.7614858260019552
2.701857282502444
2.633431085043988
2.5591397849462365
2.4819159335288368
2.401759530791789
2.320625610948192
2.239491691104594
2.161290322580645
2.0840664711632453
2.003910068426197
1.9227761485826005
1.8406647116324533
1.76930596285435
1.7038123167155426
1.6304985337243405
1.5542521994134897
1.478005865102639
1.4037145650048877
1.332355816226784
1.2639296187683284
1.2013685239491692
1.1456500488758554
1.099706744868035
1.0654936461388074
1.04594330400782
1.040078201368524
1.0439882697947214
1.0596285434995112
1.0869990224828934
1.1241446725317692
1.1691104594330402
1.217008797653959
1.2658846529814272
1.3118279569892473
1.35386119257087
1.3900293255131966
1.418377321603128
1.439882697947214
1.455522971652004
1.4652981427174976
1.469208211143695
1.469208211143695
1.466275659824047
1.4604105571847508
1.452590420332356
1.4437927663734116
1.434017595307918
1.423264907135875
1.412512218963832
1.404692082111437
1.3988269794721409
1.391006842619746
1.3812316715542523
1.367546432062561
1.3499511241446724
1.3264907135874875
1.3010752688172045
1.2825024437927663
1.2854349951124144
1.324535679374389
1.4115347018572826
1.5239491691104594
1.6656891495601174
1.8602150537634408
2.081133919843597
2.304007820136853
2.504398826979472
2.6666666666666665
2.7839687194525906
2.857282502443793
2.8905180840664717
2.8914956011730206
2.8690127077223853
2.827956989247312
2.779081133919844
2.724340175953079
2.6608015640273703
2.590420332355816
2.517106549364614
2.4408602150537635
2.3626588465298144
2.2825024437927666
2.201368523949169
2.120234604105572
2.038123167155425
1.9560117302052784
1.884652981427175
1.818181818181818
1.7448680351906158
1.6686217008797657
1.5913978494623655
1.5141739980449658
1.4379276637341154
1.364613880742913
1.295210166177908
1.23069403714565
1.1730205278592376
1.1251221896383188
1.0869990224828934
1.064516129032258
1.0547409579667644
1.053763440860215
1.064516129032258
1.0879765395894427
1.1221896383186705
1.1652003910068427
1.2121212121212122
1.2609970674486803
1.3088954056695992
1.35386119257087
1.392961876832845
1.4242424242424243
1.4486803519061584
1.4682306940371457
1.4809384164222874
1.4887585532746823
1.4916911045943304
1.4897360703812317
1.4848484848484849
1.478005865102639
1.469208211143695
1.4594330400782014
1.4496578690127078
1.439882697947214
1.4330400782013686
1.4271749755620724
1.4193548387096775
1.4105571847507332
1.3988269794721409
1.3822091886608017
1.359726295210166
1.3343108504398826
1.3128054740957966
1.3069403714565004
1.332355816226784
1.4007820136852396
1.495601173020528
1.6236559139784943
1.8064516129032255
2.022482893450636
2.247311827956989
2.4574780058651027
2.634408602150537
2.768328445747801
2.8563049853372435
2.902248289345064
2.913978494623656
2.8993157380254155
2.8641251221896384
2.819159335288368
2.7673509286412514
2.704789833822092
2.635386119257087
2.5610948191593352
2.4838709677419355
2.404692082111437
2.324535679374389
2.242424242424242
2.160312805474096
2.078201368523949
1.997067448680352
1.9257086999022484
1.8592375366568916
1.7859237536656891
1.7096774193548387
1.632453567937439
1.555229716520039
1.478983382209189
1.404692082111437
1.3343108504398826
1.2688172043010753
1.209188660801564
1.1573802541544478
1.1163245356793745
1.0899315738025417
1.0762463343108504
1.0713587487781036
1.078201368523949
1.096774193548387
1.126099706744868
1.1652003910068427
1.2111436950146628
1.260019550342131
1.3088954056695992
1.35386119257087
1.3949169110459434
1.4271749755620724
1.452590420332356
1.474095796676442
1.4887585532746823
1.498533724340176
1.5034213098729228
1.5034213098729228
1.500488758553275
1.495601173020528
1.4887585532746823
1.4809384164222874
1.4721407624633431
1.4623655913978495
1.455522971652004
1.4496578690127078
1.4418377321603129
1.4330400782013686
1.4222873900293256
1.4066471163245358
1.3851417399804498
1.3616813294232648
1.3421309872922775
1.33822091886608
1.3655913978494625
1.4389051808406648
1.5376344086021505
1.6686217008797657
1.855327468230694
2.075268817204301
2.302052785923754
2.512218963831867
2.6881720430107525
2.820136852394917
2.905180840664712
2.949169110459433
2.9589442815249267
2.941348973607038
2.9042033235581624
2.8582600195503423
2.8044965786901277
2.740957966764418
2.670576735092864
2.5962854349951123
2.5180840664711632
2.4379276637341154
2.356793743890518
2.274682306940372
2.1925708699902247
2.1114369501466275
2.0303030303030303
1.9589442815249267
1.8934506353861196
1.8211143695014664
1.7448680351906158
1.667644183773216
1.5913978494623655
1.5151515151515151
1.4408602150537635
1.3685239491691104
1.3010752688172045
1.2394916911045943
1.1867057673509287
1.1436950146627567
1.115347018572825
1.099706744868035
1.0928641251221896
1.096774193548387
1.1133919843597262
1.1407624633431086
1.1779081133919844
1.2218963831867058
1.2688172043010753
1.3147605083088951
1.3577712609970674
1.3958944281524928
1.426197458455523
1.4506353861192571
1.466275659824047
1.474095796676442
1.478983382209189
1.4819159335288368
1.4809384164222874
1.47702834799609
1.4711632453567938
1.4623655913978495
1.452590420332356
1.4418377321603129
1.4330400782013686
1.4252199413489737
1.41544477028348
1.404692082111437
1.393939393939394
1.3822091886608017
1.367546432062561
1.348973607038123
1.3255131964809383
1.3010752688172045
1.2834799608993157
1.2873900293255132
1.3284457478005864
1.396871945259042
1.501466275659824
1.6637341153470186
1.8699902248289344
2.0977517106549364
2.3225806451612905
2.52297165200391
2.6832844574780057
2.7966764418377323
2.865102639296188
2.8944281524926687
2.89247311827957
2.8690127077223853
2.831867057673509
2.7810361681329425
2.720430107526881
2.6529814271749754
2.5806451612903225
2.504398826979472
2.4252199413489737
2.345063538611926
2.2629521016617797
2.1808406647116323
2.0987292277614857
2.016617790811339
1.9442815249266865
1.87683284457478
1.8025415444770283
1.7253176930596286
1.64613880742913
1.5679374389051808
1.490713587487781
1.41544477028348
1.3421309872922775
1.2727272727272727
1.209188660801564
1.1534701857282503
1.1124144672531768
1.0840664711632453
1.0625610948191593
1.050830889540567
1.0518084066471165
1.0654936461388074
1.0918866080156402
1.1280547409579669
1.1710654936461389
1.2179863147605083
1.2649071358748778
1.3098729227761483
1.3499511241446724
1.3822091886608017
1.4076246334310851
1.4291300097751711
1.4437927663734116
1.452590420332356
1.456500488758553
1.456500488758553
1.452590420332356
1.4457478005865103
1.436950146627566
1.4271749755620724
1.4173998044965788
1.4086021505376345
1.401759530791789
1.393939393939394
1.3851417399804498
1.375366568914956
1.3655913978494625
1.35386119257087
1.3391984359726294
1.3196480938416422
1.295210166177908
1.2727272727272727
1.2609970674486803
1.2746823069403714
1.3128054740957966
1.3861192570869991
1.5161290322580645
1.6959921798631477
1.9130009775171064
2.1436950146627565
2.3655913978494625
2.558162267839687
2.7096774193548385
2.814271749755621
2.874877810361681
2.898338220918866
2.89345063538612
2.868035190615836
2.827956989247312
2.7751710654936463
2.7145650048875853
2.6471163245356792
2.5747800586510263
2.498533724340176
2.420332355816227
2.3391984359726297
2.257086999022483
2.174975562072336
2.09188660801564
2.018572825024438
1.949169110459433
1.873900293255132
1.7947214076246334
1.7145650048875856
1.6344086021505375
1.5542521994134897
1.4760508308895406
1.3998044965786902
1.3264907135874875
1.2580645161290325
1.1964809384164223
1.1495601173020529
1.1133919843597262
1.0811339198435972
1.0586510263929618
1.0478983382209188
1.050830889540567
1.067448680351906
1.0957966764418376
1.133919843597263
1.1788856304985338
1.227761485826002
1.2756598240469208
1.321603128054741
1.359726295210166
1.3919843597262953
1.4203323558162269
1.4428152492668622
1.4594330400782014
1.4701857282502444
1.4760508308895406
1.478005865102639
1.4760508308895406
1.4711632453567938
1.4643206256109482
1.455522971652004
1.4486803519061584
1.4418377321603129
1.434017595307918
1.4252199413489737
1.41544477028348
1.404692082111437
1.393939393939394
1.3792766373411536
1.3607038123167154
1.3372434017595307
1.3118279569892473
1.2932551319648091
1.2961876832844574
1.3225806451612905
1.383186705767351
1.4975562072336266
1.664711632453568
1.873900293255132
2.103616813294233
2.3304007820136854
2.533724340175953
2.696969696969697
2.8152492668621703
2.8885630498533725
2.920821114369501
2.9227761485826003
2.902248289345064
2.866080156402737
2.817204301075269
2.758553274682307
2.6930596285435
2.622678396871945
2.548387096774193
2.4711632453567938
2.3919843597262958
2.3118279569892475
2.23069403714565
2.1485826001955037
2.075268817204301
2.006842619745845
1.932551319648094
1.8543499511241448
1.775171065493646
1.6959921798631477
1.616813294232649
1.5386119257087
1.4613880742913
1.3870967741935485
1.316715542521994
1.252199413489736
1.2023460410557183
1.164222873900293
1.1290322580645162
1.1016617790811338
1.0869990224828934
1.086021505376344
1.099706744868035
1.126099706744868
1.1622678396871946
1.206256109481916
1.2551319648093842
1.3040078201368523
1.3509286412512218
1.3900293255131966
1.423264907135875
1.452590420332356
1.4760508308895406
1.4926686217008798
1.5034213098729228
1.5083088954056696
1.5083088954056696
1.504398826979472
1.4975562072336266
1.4887585532746823
1.479960899315738
1.4721407624633431
1.4652981427174976
1.456500488758553
1.4467253176930597
1.436950146627566
1.4271749755620724
1.4164222873900294
1.4027370478983383
1.3851417399804498
1.3626588465298142
1.33822091886608
1.3186705767350928
1.313782991202346
1.332355816226784
1.3900293255131966
1.498533724340176
1.6588465298142718
1.8621700879765395
2.090909090909091
2.3196480938416424
2.527859237536657
2.7067448680351904
2.844574780058651
2.930596285434995
2.972629521016618
2.979472140762464
2.961876832844575
2.9257086999022484
2.875855327468231
2.8152492668621703
2.7468230694037143
2.6715542521994133
2.591397849462365
2.5083088954056696
2.423264907135875
2.3382209188660803
2.2521994134897363
2.175953079178885
2.104594330400782
2.027370478983382
1.9472140762463344
1.865102639296188
1.7820136852394917
1.699902248289345
1.6177908113391983
1.5356793743890518
1.455522971652004
1.3773216031280548
1.303030303030303
1.2336265884652982
1.1798631476050832
1.1378299120234605
1.0987292277614855
1.0684261974584557
1.0498533724340176
1.04594330400782
1.0557184750733135
1.0791788856304985
1.1133919843597262
1.155425219941349
1.2023460410557183
1.2502443792766371
1.29227761485826
1.3284457478005864
