ppg
2.056695992179863
2.029325513196481
2.0009775171065494
1.970674486803519
1.9393939393939397
1.9090909090909087
1.8778103616813293
1.8435972629521016
1.8093841642228736
1.7761485826001957
1.747800586510264
1.7223851417399805
1.6950146627565983
1.6666666666666667
1.6373411534701858
1.607038123167155
1.5757575757575757
1.543499511241447
1.512218963831867
1.482893450635386
1.455522971652004
1.43108504398827
1.4066471163245358
1.388074291300098
1.3734115347018572
1.3558162267839686
1.3372434017595307
1.3186705767350928
1.2991202346041055
1.2795698924731185
1.260019550342131
1.2394916911045943
1.2189638318670577
1.1994134897360704
1.1798631476050832
1.166177908113392
1.1564027370478984
1.141739980449658
1.1251221896383188
1.1085043988269794
1.093841642228739
1.0850439882697946
1.0869990224828934
1.1036168132942326
1.141739980449658
1.206256109481916
1.2971652003910068
1.412512218963832
1.5278592375366569
1.6480938416422288
1.7888563049853372
1.9374389051808407
2.0840664711632453
2.222873900293255
2.3489736070381237
2.4594330400782014
2.5562072336265884
2.6402737047898337
2.7116324535679373
2.771260997067449
2.814271749755621
2.84652981427175
2.87683284457478
2.902248289345064
2.920821114369501
2.929618768328446
2.9257086999022484
2.909090909090909
2.8826979472140764
2.8377321603128056
2.779081133919844
2.716520039100684
2.656891495601173
2.598240469208211
2.536656891495601
2.474095796676442
2.41544477028348
2.360703812316716
2.312805474095797
2.270772238514174
2.233626588465298
2.19941348973607
2.166177908113392
2.132942326490713
2.099706744868035
2.070381231671554
2.043010752688172
2.0146627565982405
1.9843597262952104
1.95405669599218
1.9227761485826005
1.8905180840664717
1.8592375366568916
1.827956989247312
1.7956989247311828
1.7624633431085044
1.729227761485826
1.7008797653958945
1.675464320625611
1.64613880742913
1.6158357771260996
1.585532746823069
1.555229716520039
1.5249266862170088
1.4946236559139785
1.4643206256109482
1.434017595307918
1.404692082111437
1.375366568914956
1.3479960899315735
1.3264907135874875
1.3088954056695992
1.2883675464320623
1.2658846529814272
1.2434017595307918
1.2228739002932552
1.2023460410557183
1.181818181818182
1.1593352883675463
1.1378299120234605
1.1173020527859236
1.0977517106549364
1.0850439882697946
1.075268817204301
1.06158357771261
1.04594330400782
1.029325513196481
1.0127077223851415
0.9980449657869012
0.9863147605083088
0.9804496578690128
0.9843597262952102
1.0039100684261977
1.0439882697947214
1.10752688172043
1.1837732160312806
1.2746823069403714
1.3949169110459434
1.5356793743890518
1.6881720430107527
1.8465298142717497
2.0009775171065494
2.145650048875855
2.2766373411534704
2.3929618768328447
2.495601173020528
2.58455522971652
2.652003910068426
2.7038123167155423
2.7536656891495603
2.798631476050831
2.835777126099707
2.865102639296188
2.884652981427175
2.89345063538612
2.889540566959922
2.8719452590420333
2.8396871945259043
2.7947214076246336
2.7390029325513194
2.6823069403714563
2.624633431085044
2.560117302052786
2.4916911045943304
2.4252199413489737
2.363636363636364
2.3059628543499517
2.254154447702835
2.209188660801564
2.16911045943304
2.133919843597263
2.101661779081134
2.074291300097752
2.048875855327468
2.0234604105571847
1.9960899315738023
1.967741935483871
1.9393939393939397
1.9130009775171064
1.8885630498533723
1.8641251221896384
1.839687194525904
1.81524926686217
1.7888563049853372
1.761485826001955
1.7390029325513197
1.718475073313783
1.6920821114369502
1.6637341153470186
1.6344086021505375
1.6041055718475072
1.5728250244379276
1.541544477028348
1.5112414467253177
1.4819159335288368
1.452590420332356
1.426197458455523
1.4056695992179864
1.3870967741935485
1.3655913978494625
1.3440860215053765
1.321603128054741
1.2991202346041055
1.278592375366569
1.2570869990224829
1.2355816226783969
1.2140762463343109
1.1925708699902249
1.1710654936461389
1.1495601173020529
1.1329423264907137
1.1192570869990224
1.1026392961876832
1.0850439882697946
1.0654936461388074
1.04594330400782
1.029325513196481
1.0156402737047898
1.0058651026392962
1.002932551319648
1.010752688172043
1.0361681329423265
1.075268817204301
1.130987292277615
1.2140762463343109
1.3235581622678396
1.455522971652004
1.603128054740958
1.758553274682307
1.9149560117302051
2.067448680351906
2.210166177908113
2.340175953079179
2.455522971652004
2.555229716520039
2.6285434995112413
2.6852394916911044
2.740957966764418
2.790811339198436
2.833822091886608
2.8690127077223853
2.8963831867057674
2.9149560117302054
2.9227761485826003
2.918866080156403
2.9012707722385143
2.8729227761485827
2.8377321603128056
2.795698924731183
2.7438905180840663
2.684261974584555
2.6207233626588464
2.5562072336265884
2.49266862170088
2.4330400782013686
2.3792766373411536
2.332355816226784
2.291300097751711
2.2561094819159337
2.225806451612903
2.198435972629521
2.1730205278592374
2.145650048875855
2.1192570869990224
2.0928641251221896
2.065493646138808
2.037145650048876
2.007820136852395
1.978494623655914
1.9501466275659824
1.9227761485826005
1.8944281524926687
1.868035190615836
1.8435972629521016
1.8162267839687196
1.7878787878787878
1.7595307917888563
1.7311827956989247
1.699902248289345
1.667644183773216
1.6363636363636365
1.606060606060606
1.5757575757575757
1.5464320625610948
1.521016617790811
1.501466275659824
1.4848484848484849
1.466275659824047
1.4457478005865103
1.426197458455523
1.4056695992179864
1.3851417399804498
1.3636363636363635
1.3421309872922775
1.3225806451612905
1.303030303030303
1.2834799608993157
1.2688172043010753
1.2570869990224829
1.2404692082111437
1.2238514173998043
1.2072336265884651
1.1896383186705768
1.1720430107526882
1.1534701857282503
1.1348973607038124
1.1192570869990224
1.110459433040078
1.1094819159335287
1.1192570869990224
1.1436950146627567
1.1886608015640274
1.2580645161290325
1.35386119257087
1.4731182795698925
1.611925708699902
1.7644183773216031
1.9227761485826005
2.080156402737048
2.2297165200391005
2.3655913978494625
2.484848484848485
2.575757575757576
2.6480938416422286
2.719452590420332
2.801564027370479
2.8856304985337244
2.949169110459433
2.99902248289345
3.038123167155425
3.0664711632453567
3.0840664711632453
3.089931573802541
3.0821114369501466
3.06158357771261
3.0303030303030303
2.9902248289345064
2.93841642228739
2.878787878787879
2.812316715542522
2.7438905180840663
2.678396871945259
2.6148582600195502
2.555229716520039
2.5004887585532747
2.452590420332356
2.409579667644184
2.372434017595308
2.340175953079179
2.30791788856305
2.275659824046921
2.242424242424242
2.2082111436950145
2.1739980449657867
2.139784946236559
2.1055718475073317
2.069403714565005
2.0332355816226784
1.997067448680352
1.9667644183773216
1.9393939393939397
1.9090909090909087
1.87683284457478
1.8435972629521016
1.8113391984359728
1.780058651026393
1.747800586510264
1.7145650048875856
1.6813294232649072
1.6490713587487782
1.6158357771260996
1.5826001955034212
1.5581622678396871
1.5376344086021505
1.5141739980449658
1.4897360703812317
1.4652981427174976
1.4408602150537635
1.41544477028348
1.3890518084066472
1.3636363636363635
1.3391984359726294
1.3157380254154447
1.2942326490713587
1.278592375366569
1.2658846529814272
1.249266862170088
1.23069403714565
1.2121212121212122
1.1915933528836755
1.1710654936461389
1.1515151515151516
1.130987292277615
1.110459433040078
1.0909090909090908
1.0742913000977516
1.06158357771261
1.0586510263929618
1.0684261974584557
1.0918866080156402
1.1358748778103618
1.2043010752688172
1.300097751710655
1.4193548387096775
1.5571847507331378
1.70772238514174
1.865102639296188
2.021505376344086
2.1710654936461387
2.29227761485826
2.393939393939394
2.496578690127077
2.590420332355816
2.674486803519061
2.7468230694037143
2.8084066471163247
2.8611925708699903
2.905180840664712
2.940371456500489
2.9667644183773216
2.981427174975562
2.983382209188661
2.972629521016618
2.9501466275659824
2.9149560117302054
2.8699902248289346
2.81622678396872
2.7536656891495603
2.687194525904203
2.619745845552297
2.5532746823069403
2.4887585532746823
2.429130009775171
2.375366568914956
2.3304007820136854
2.2932551319648096
2.259042033235582
2.2267839687194524
2.196480938416422
2.1681329423264906
2.1407624633431084
2.112414467253177
2.083088954056696
2.053763440860215
2.022482893450636
1.9902248289345064
1.9579667644183771
1.9286412512218964
1.903225806451613
1.873900293255132
1.8406647116324533
1.8064516129032255
1.772238514173998
1.7380254154447703
1.704789833822092
1.6735092864125125
1.643206256109482
1.611925708699902
1.5796676441837731
1.552297165200391
1.5278592375366569
1.498533724340176
1.4682306940371457
1.4379276637341154
1.4076246334310851
1.3782991202346042
1.3499511241446724
1.3225806451612905
1.2961876832844574
1.2727272727272727
1.2502443792766371
1.2297165200391007
1.2160312805474096
1.2043010752688172
1.187683284457478
1.1691104594330402
1.1505376344086022
1.130987292277615
1.110459433040078
1.0909090909090908
1.072336265884653
1.053763440860215
1.0371456500488758
1.0224828934506354
1.013685239491691
1.0097751710654936
1.007820136852395
1.0146627565982405
1.0361681329423265
1.0772238514173995
1.144672531769306
1.238514173998045
1.3577712609970674
1.4965786901270772
1.6490713587487782
1.8084066471163245
1.967741935483871
2.102639296187683
2.217986314760508
2.335288367546432
2.4457478005865103
2.5454545454545454
2.633431085043988
2.7096774193548385
2.774193548387097
2.8289345063538613
2.873900293255132
2.909090909090909
2.9345063538611926
2.945259042033236
2.9442815249266863
2.9335288367546437
2.911045943304008
2.87683284457478
2.832844574780059
2.779081133919844
2.718475073313783
2.653958944281525
2.5884652981427174
2.5249266862170088
2.464320625610948
2.4134897360703813
2.36950146627566
2.3274682306940373
2.2883675464320627
2.2502443792766376
2.21505376344086
2.182795698924731
2.1495601173020527
2.117302052785924
2.0879765395894427
2.058651026392962
2.029325513196481
2.0009775171065494
1.9765395894428155
1.9521016617790807
1.9237536656891496
1.89247311827957
1.8592375366568916
1.825024437927664
1.7898338220918866
1.7556207233626588
1.721407624633431
1.6881720430107527
1.6559139784946235
1.6236559139784943
1.595307917888563
1.5698924731182795
1.541544477028348
1.5112414467253177
1.4819159335288368
1.4535679374389052
1.426197458455523
1.3998044965786902
1.3743890518084063
1.3519061583577712
1.3304007820136852
1.3079178885630498
1.284457478005865
1.267839687194526
1.2541544477028348
1.2365591397849462
1.2179863147605083
1.1974584555229717
1.1759530791788857
1.1564027370478984
1.1368523949169111
1.1173020527859236
1.0977517106549364
1.0791788856304985
1.0606060606060606
1.0478983382209188
1.0381231671554252
1.0263929618768328
1.0175953079178883
1.0156402737047898
1.024437927663734
1.050830889540567
1.1006842619745845
1.176930596285435
1.2795698924731185
1.3988269794721409
1.5298142717497556
1.675464320625611
1.8074291300097751
1.9286412512218964
2.059628543499511
2.187683284457478
2.3069403714565007
2.4144672531769307
2.509286412512219
2.591397849462365
2.66177908113392
2.7223851417399803
2.773216031280548
2.8152492668621703
2.841642228739003
2.8563049853372435
2.8670576735092865
2.8690127077223853
2.860215053763441
2.8406647116324537
2.8103616813294234
2.768328445747801
2.716520039100684
2.656891495601173
2.593352883675464
2.5288367546432062
2.464320625610948
2.407624633431085
2.356793743890518
2.3069403714565007
2.2629521016617797
2.2248289345063537
2.190615835777126
2.160312805474096
2.132942326490713
2.1055718475073317
2.078201368523949
2.048875855327468
2.0195503421309877
1.994134897360704
1.970674486803519
1.945259042033236
1.9178885630498532
1.8885630498533723
1.858260019550342
1.828934506353861
1.8005865102639296
1.772238514173998
1.7438905180840665
1.7174975562072337
1.6911045943304008
1.6656891495601174
1.6441837732160314
1.6236559139784943
1.5992179863147604
1.5718475073313782
1.5454545454545454
1.5190615835777126
1.4926686217008798
1.4682306940371457
1.4457478005865103
1.4252199413489737
1.4056695992179864
1.3861192570869991
1.370478983382209
1.3577712609970674
1.3421309872922775
1.324535679374389
1.305962854349951
1.2873900293255132
1.2688172043010753
1.2502443792766371
1.2326490713587488
1.2150537634408602
1.198435972629521
1.181818181818182
1.164222873900293
1.1505376344086022
1.1397849462365592
1.126099706744868
1.1133919843597262
1.1055718475073313
1.1065493646138806
1.1202346041055715
1.1505376344086022
1.2043010752688172
1.2834799608993157
1.388074291300098
1.5141739980449658
1.6373411534701858
1.7605083088954057
1.902248289345064
2.0498533724340176
2.193548387096774
2.3274682306940373
2.447702834799609
2.5542521994134897
2.6480938416422286
2.7282502443792764
2.7966764418377323
2.855327468230694
2.9042033235581624
2.936461388074292
2.956989247311828
2.975562072336266
2.9872922776148583
2.989247311827957
2.978494623655914
2.956011730205278
2.921798631476051
2.87683284457478
2.8240469208211145
2.766373411534702
2.704789833822092
2.6480938416422286
2.595307917888563
2.539589442815249
2.4858260019550342
2.436950146627566
2.3949169110459434
2.357771260997068
2.3255131964809386
2.297165200391007
2.270772238514174
2.2453567937438903
2.2218963831867056
2.19941348973607
2.177908113391984
2.155425219941349
2.1309872922776147
2.103616813294233
2.0733137829912023
2.042033235581622
2.0087976539589443
1.975562072336266
1.9413489736070384
1.905180840664712
1.868035190615836
1.8328445747800584
1.801564027370479
1.7732160312805474
1.7409579667644184
1.7067448680351909
1.672531769305963
1.6373411534701858
1.6021505376344083
1.56891495601173
1.5366568914956011
1.5053763440860215
1.4760508308895406
1.447702834799609
1.4203323558162269
1.3988269794721409
1.380254154447703
1.3587487781036167
1.3372434017595307
1.3147605083088951
1.29227761485826
1.2697947214076246
1.2482893450635386
1.227761485826002
1.2072336265884651
1.1896383186705768
1.1720430107526882
1.1583577712609971
1.147605083088954
1.1329423264907137
1.1163245356793745
1.099706744868035
1.0840664711632453
1.0703812316715542
1.0635386119257086
1.0703812316715542
1.0957966764418376
1.144672531769306
1.219941348973607
1.3049853372434017
1.4037145650048877
1.5278592375366569
1.667644183773216
1.8162267839687196
1.963831867057673
2.1065493646138806
2.2385141739980448
2.356793743890518
2.4613880742913
2.5532746823069403
2.633431085043988
2.701857282502444
2.7517106549364616
2.788856304985337
2.8240469208211145
2.854349951124145
2.877810361681329
2.8914956011730206
2.895405669599218
2.886608015640274
2.865102639296188
2.83088954056696
2.787878787878788
2.736070381231672
2.6823069403714563
2.627565982404692
2.5669599217986314
2.505376344086021
2.4457478005865103
2.388074291300098
2.335288367546432
2.2883675464320627
2.24633431085044
2.2082111436950145
2.1730205278592374
2.1407624633431084
2.1094819159335287
2.083088954056696
2.0576735092864125
2.0303030303030303
2.002932551319648
1.9745845552297163
1.9472140762463344
1.919843597262952
1.8905180840664717
1.86119257086999
1.8328445747800584
1.8035190615835777
1.7741935483870968
1.7487781036168133
1.726295210166178
1.699902248289345
1.6715542521994136
1.6422287390029326
1.6109481915933528
1.5786901270772238
1.5464320625610948
1.5151515151515151
1.4848484848484849
1.455522971652004
1.4281524926686218
1.401759530791789
1.3822091886608017
1.3655913978494625
1.3450635386119256
1.3235581622678396
1.3020527859237536
1.2795698924731185
1.2570869990224829
1.2355816226783969
1.2150537634408602
1.1935483870967742
1.1710654936461389
1.1495601173020529
1.1348973607038124
1.1241446725317692
1.1085043988269794
1.0909090909090908
1.0596285434995112
1.0205278592375366
0.9931573802541545
0.9716520039100685
0.956989247311828
0.9521016617790812
0.9608993157380256
0.9872922776148584
1.0361681329423265
1.0977517106549364
1.1759530791788857
1.2834799608993157
1.4134897360703813
1.5591397849462365
1.7116324535679377
1.865102639296188
2.0127077223851417
2.1495601173020527
2.2737047898338223
2.3822091886608017
2.4760508308895406
2.547409579667644
2.6021505376344085
2.656891495601173
2.705767350928641
2.748778103616813
2.782991202346041
2.807429130009776
2.8211143695014664
2.8240469208211145
2.81622678396872
2.7966764418377323
2.766373411534702
2.7253176930596283
2.679374389051808
2.6295210166177907
2.572825024437928
2.5112414467253177
2.4486803519061584
2.389051808406647
2.333333333333333
2.280547409579668
2.233626588465298
2.1925708699902247
2.1544477028347995
2.1192570869990224
2.088954056695992
2.060606060606061
2.0303030303030303
2.0009775171065494
1.9716520039100685
1.9413489736070384
1.9130009775171064
1.8856304985337244
1.858260019550342
1.8299120234604105
1.8005865102639296
1.7712609970674489
1.7419354838709675
1.7165200391006843
1.6930596285434996
1.664711632453568
1.6344086021505375
1.6050830889540566
1.5747800586510263
1.543499511241447
1.512218963831867
1.4809384164222874
1.4486803519061584
1.418377321603128
1.3900293255131966
1.367546432062561
1.3499511241446724
1.3294232649071358
1.3079178885630498
1.2864125122189638
1.2649071358748778
1.2434017595307918
1.2209188660801564
1.198435972629521
1.1759530791788857
1.152492668621701
1.1300097751710656
1.10752688172043
1.0918866080156402
1.0811339198435972
1.067448680351906
1.0527859237536656
1.0361681329423265
1.018572825024438
1.0
0.9824046920821116
0.967741935483871
0.956989247311828
0.95405669599218
0.9638318670576737
0.9882697947214076
1.0303030303030305
1.0977517106549364
1.1925708699902249
1.310850439882698
1.447702834799609
1.5972629521016617
1.7526881720430108
1.9071358748778104
2.0557184750733137
2.1925708699902247
2.315738025415445
2.4242424242424243
2.506353861192571
2.570869990224829
2.634408602150537
2.69208211143695
2.742913000977517
2.78494623655914
2.8181818181818183
2.843597262952102
2.857282502443793
2.860215053763441
2.8514173998044967
2.8299120234604107
2.7996089931573804
2.760508308895406
2.7116324535679373
2.653958944281525
2.591397849462365
2.527859237536657
2.464320625610948
2.4027370478983383
2.346041055718475
2.2932551319648096
2.24633431085044
2.206256109481916
2.1700879765395893
2.139784946236559
2.113391984359726
2.086021505376344
2.056695992179863
2.027370478983382
1.997067448680352
1.9667644183773216
1.935483870967742
1.9042033235581624
1.8729227761485825
1.8416422287390029
1.8113391984359728
1.7859237536656891
1.7624633431085044
1.7360703812316716
1.70772238514174
1.6793743890518085
1.6490713587487782
1.6187683284457477
1.5884652981427174
1.5591397849462365
1.5298142717497556
1.499511241446725
1.4682306940371457
1.4428152492668622
1.4213098729227762
1.3978494623655917
1.3734115347018572
1.3499511241446724
1.3264907135874875
1.3040078201368523
1.2834799608993157
1.2649071358748778
1.2453567937438903
1.2258064516129032
1.2072336265884651
1.1896383186705768
1.1779081133919844
1.1681329423264908
1.155425219941349
1.1407624633431086
1.1251221896383188
1.1094819159335287
1.093841642228739
1.0801564027370478
1.0654936461388074
1.050830889540567
1.0381231671554252
1.029325513196481
1.0312805474095796
1.0449657869012707
1.072336265884653
1.121212121212121
1.1945259042033236
1.2942326490713587
1.4164222873900294
1.5581622678396871
1.7126099706744868
1.8699902248289344
2.0254154447702835
2.1730205278592374
2.30791788856305
2.4134897360703813
2.498533724340176
2.582600195503421
2.66177908113392
2.7331378299120237
2.795698924731183
2.849462365591398
2.8944281524926687
2.929618768328446
2.956011730205278
2.972629521016618
2.9765395894428157
2.9657869012707723
2.943304007820137
2.911045943304008
2.8690127077223853
2.819159335288368
2.760508308895406
2.696969696969697
2.633431085043988
2.5718475073313782
2.5141739980449658
2.462365591397849
2.4164222873900294
2.375366568914956
2.340175953079179
2.3088954056695994
2.27761485826002
2.247311827956989
2.2170087976539588
2.187683284457478
2.160312805474096
2.133919843597263
2.10752688172043
2.081133919843597
2.0547409579667644
2.029325513196481
2.006842619745845
1.9843597262952104
1.9579667644183771
1.9296187683284456
1.900293255131965
1.869012707722385
1.8377321603128052
1.8084066471163245
1.7790811339198436
1.7497556207233629
1.7204301075268815
1.6911045943304008
1.6598240469208212
1.6334310850439884
1.608993157380254
1.5826001955034212
1.5542521994134897
1.525904203323558
1.498533724340176
1.4721407624633431
1.447702834799609
1.4242424242424243
1.401759530791789
1.391006842619746
1.3851417399804498
1.3734115347018572
1.359726295210166
1.3421309872922775
1.321603128054741
1.300097751710655
1.2805474095796676
1.2609970674486803
1.241446725317693
1.2209188660801564
1.1994134897360704
1.1779081133919844
1.1564027370478984
1.1368523949169111
1.126099706744868
1.1231671554252198
1.1280547409579669
1.1485826001955035
1.1906158357771262
1.2590420332355816
1.35386119257087
1.4731182795698925
1.611925708699902
1.7624633431085044
1.9149560117302051
2.0635386119257086
2.185728250244379
2.2883675464320627
2.3929618768328447
2.49266862170088
2.582600195503421
2.662756598240469
2.732160312805474
2.791788856304985
2.841642228739003
2.8826979472140764
2.9149560117302054
2.9374389051808407
2.949169110459433
2.948191593352884
2.935483870967742
2.9149560117302054
2.8836754643206257
2.841642228739003
2.788856304985337
2.7282502443792764
2.6637341153470184
2.5992179863147604
2.535679374389052
2.4750733137829912
2.418377321603128
2.372434017595308
2.333333333333333
2.2952101661779083
2.260019550342131
2.218963831867057
2.182795698924731
2.157380254154448
2.129032258064516
2.0987292277614857
2.0684261974584555
2.0391006842619745
2.0097751710654936
1.981427174975562
1.9560117302052784
1.9345063538611929
1.9090909090909087
1.8807429130009776
1.8514173998044965
1.8211143695014664
1.7898338220918866
1.7565982404692082
1.7243401759530792
1.6920821114369502
1.6608015640273706
1.6304985337243405
1.6050830889540566
1.5826001955034212
1.5562072336265884
1.5278592375366569
1.499511241446725
1.4721407624633431
1.4467253176930597
1.4213098729227762
1.3958944281524928
1.3714565004887584
1.3470185728250244
1.3225806451612905
1.2981427174975562
1.278592375366569
1.2619745845552297
1.2424242424242424
1.2218963831867058
1.2013685239491692
1.181818181818182
1.163245356793744
1.1466275659824048
1.1300097751710656
1.1133919843597262
1.0957966764418376
1.0772238514173995
1.0635386119257086
1.0547409579667644
1.0449657869012707
1.040078201368524
1.0439882697947214
1.0625610948191593
1.1016617790811338
1.1652003910068427
1.2551319648093842
1.3685239491691104
1.500488758553275
1.64613880742913
1.7781036168132942
1.8993157380254155
2.03128054740958
2.1622678396871944
2.2844574780058653
2.3949169110459434
2.4916911045943304
2.5747800586510263
2.6451612903225805
2.704789833822092
2.755620723362659
2.7976539589442817
2.8299120234604107
2.84652981427175
2.852394916911046
2.8514173998044967
2.8426197458455524
2.823069403714565
2.791788856304985
2.7517106549364616
2.701857282502444
2.644183773216031
2.581622678396872
2.5180840664711632
2.4565004887585533
2.401759530791789
2.3548387096774195
2.30791788856305
2.264907135874878
2.2267839687194524
2.1925708699902247
2.161290322580645
2.1309872922776147
2.099706744868035
2.069403714565005
2.040078201368524
2.010752688172043
1.981427174975562
1.9560117302052784
1.9345063538611929
1.9100684261974583
1.8826979472140764
1.8533724340175952
