ppg
1.0801564027370478
1.072336265884653
1.064516129032258
1.0576735092864125
1.0518084066471165
1.0498533724340176
1.050830889540567
1.050830889540567
1.0498533724340176
1.0469208211143697
1.0439882697947214
1.040078201368524
1.035190615835777
1.029325513196481
1.0234604105571847
1.0175953079178883
1.0127077223851415
1.007820136852395
1.0068426197458455
1.0087976539589445
1.0127077223851415
1.0254154447702837
1.053763440860215
1.104594330400782
1.1827956989247312
1.289345063538612
1.4242424242424243
1.581622678396872
1.7546432062561097
1.9345063538611929
2.089931573802541
2.2267839687194524
2.36950146627566
2.505376344086021
2.6265884652981426
2.729227761485826
2.8132942326490715
2.8797653958944283
2.929618768328446
2.963831867057673
2.983382209188661
2.991202346041056
2.9872922776148583
2.972629521016618
2.9472140762463344
2.913000977517106
2.8699902248289346
2.817204301075269
2.755620723362659
2.6881720430107525
2.6158357771261
2.5405669599217986
2.464320625610948
2.3900293255131966
2.3196480938416424
2.259042033235582
2.2052785923753664
2.15347018572825
2.1055718475073317
2.0625610948191597
2.0254154447702835
1.992179863147605
1.962854349951124
1.9364613880742916
1.911045943304008
1.8866080156402736
1.8631476050830889
1.8377321603128052
1.8142717497556209
1.7917888563049853
1.7644183773216031
1.7360703812316716
1.7057673509286413
1.6735092864125125
1.640273704789834
1.6080156402737047
1.5747800586510263
1.542521994134897
1.5112414467253177
1.4819159335288368
1.457478005865103
1.436950146627566
1.4134897360703813
1.3890518084066472
1.3655913978494625
1.3421309872922775
1.3186705767350928
1.2971652003910068
1.2766373411534702
1.2580645161290325
1.2404692082111437
1.2228739002932552
1.206256109481916
1.195503421309873
1.187683284457478
1.1779081133919844
1.1681329423264908
1.1583577712609971
1.1495601173020529
1.1407624633431086
1.1329423264907137
1.1251221896383188
1.118279569892473
1.1124144672531768
1.1065493646138806
1.104594330400782
1.1055718475073313
1.104594330400782
1.1036168132942326
1.1016617790811338
1.099706744868035
1.0977517106549364
1.096774193548387
1.0948191593352885
1.0909090909090908
1.0850439882697946
1.0772238514173995
1.0684261974584557
1.0625610948191593
1.06158357771261
1.0635386119257086
1.0762463343108504
1.10752688172043
1.1622678396871946
1.2443792766373412
1.3558162267839686
1.4926686217008798
1.651026392961877
1.823069403714565
2.0
2.1515151515151514
2.2825024437927666
2.418377321603128
2.544477028347996
2.654936461388074
2.7468230694037143
2.819159335288368
2.873900293255132
2.9120234604105573
2.935483870967742
2.946236559139785
2.9472140762463344
2.9374389051808407
2.916911045943304
2.886608015640274
2.8484848484848486
2.80058651026393
2.7438905180840663
2.679374389051808
2.6080156402737047
2.5317693059628543
2.453567937438905
2.3743890518084068
2.2991202346041058
2.228739002932551
2.16911045943304
2.1163245356793743
2.065493646138808
2.0195503421309877
1.9794721407624636
1.945259042033236
1.9159335288367547
1.8905180840664717
1.8670576735092863
1.844574780058651
1.822091886608016
1.7996089931573802
1.7761485826001957
1.75366568914956
1.7311827956989247
1.704789833822092
1.6764418377321604
1.6451612903225807
1.6138807429130009
1.5826001955034212
1.5503421309872922
1.5180840664711632
1.4858260019550342
1.455522971652004
1.4252199413489737
1.4007820136852396
1.3792766373411536
1.3558162267839686
1.332355816226784
1.3098729227761483
1.2873900293255132
1.2658846529814272
1.2453567937438903
1.224828934506354
1.2043010752688172
1.1857282502443791
1.1691104594330402
1.1573802541544478
1.1485826001955035
1.1378299120234605
1.1270772238514175
1.1173020527859236
1.1085043988269794
1.099706744868035
1.0918866080156402
1.0850439882697946
1.0791788856304985
1.0733137829912025
1.0684261974584557
1.0635386119257086
1.0625610948191593
1.0625610948191593
1.0606060606060606
1.0576735092864125
1.053763440860215
1.0498533724340176
1.04594330400782
1.0410557184750733
1.0361681329423265
1.0303030303030305
1.0234604105571847
1.0175953079178883
1.0146627565982405
1.013685239491691
1.013685239491691
1.0195503421309873
1.0381231671554252
1.0762463343108504
1.13880742913001
1.2287390029325511
1.3470185728250244
1.4916911045943304
1.656891495601173
1.833822091886608
2.0146627565982405
2.16911045943304
2.303030303030303
2.441837732160313
2.572825024437928
2.687194525904203
2.782013685239492
2.857282502443793
2.9159335288367547
2.9589442815249267
2.9872922776148583
3.003910068426197
3.007820136852395
3.0
2.981427174975562
2.956011730205278
2.921798631476051
2.87683284457478
2.822091886608016
2.758553274682307
2.6881720430107525
2.6129032258064515
2.535679374389052
2.4574780058651027
2.3812316715542523
2.3088954056695994
2.24633431085044
2.1925708699902247
2.1388074291300097
2.088954056695992
2.0439882697947214
2.003910068426197
1.9687194525904204
1.93841642228739
1.911045943304008
1.884652981427175
1.8592375366568916
1.8328445747800584
1.8093841642228736
1.7869012707722385
1.7605083088954057
1.7311827956989247
1.7018572825024438
1.6705767350928642
1.6392961876832846
1.607038123167155
1.5747800586510263
1.541544477028348
1.509286412512219
1.47702834799609
1.4457478005865103
1.4203323558162269
1.3998044965786902
1.3773216031280548
1.35386119257087
1.3313782991202343
1.3098729227761483
1.289345063538612
1.2697947214076246
1.2502443792766371
1.23069403714565
1.2111436950146628
1.1935483870967742
1.181818181818182
1.1720430107526882
1.160312805474096
1.1485826001955035
1.13880742913001
1.130987292277615
1.1241446725317692
1.118279569892473
1.1124144672531768
1.1065493646138806
1.1006842619745845
1.0948191593352885
1.088954056695992
1.0869990224828934
1.086021505376344
1.083088954056696
1.0801564027370478
1.0772238514173995
1.0742913000977516
1.0713587487781036
1.0684261974584557
1.0654936461388074
1.0625610948191593
1.0586510263929618
1.0527859237536656
1.0498533724340176
1.0488758553274682
1.04594330400782
1.0469208211143697
1.0576735092864125
1.0840664711632453
1.1319648093841643
1.206256109481916
1.3088954056695992
1.4379276637341154
1.590420332355816
1.758553274682307
1.9345063538611929
2.0879765395894427
2.2238514173998043
2.366568914956012
2.501466275659824
2.621700879765396
2.7233626588465296
2.806451612903226
2.8699902248289346
2.916911045943304
2.9501466275659824
2.9696969696969697
2.9765395894428157
2.9696969696969697
2.9530791788856305
2.929618768328446
2.898338220918866
2.857282502443793
2.8054740957966766
2.745845552297165
2.678396871945259
2.6041055718475072
2.5268817204301075
2.4486803519061584
2.3734115347018574
2.302052785923754
2.241446725317693
2.188660801564027
2.136852394916911
2.0879765395894427
2.0439882697947214
2.005865102639296
1.9716520039100685
1.9413489736070384
1.913978494623656
1.8885630498533723
1.865102639296188
1.8416422287390029
1.8201368523949168
1.7986314760508308
1.7741935483870968
1.7468230694037146
1.7174975562072337
1.686217008797654
1.653958944281525
1.6207233626588464
1.5865102639296187
1.5532746823069403
1.520039100684262
1.4868035190615836
1.455522971652004
1.4301075268817205
1.4076246334310851
1.3822091886608017
1.356793743890518
1.3313782991202343
1.3079178885630498
1.284457478005865
1.260019550342131
1.2365591397849462
1.2160312805474096
1.1974584555229717
1.1808406647116323
1.1691104594330402
1.160312805474096
1.1485826001955035
1.1358748778103618
1.1241446725317692
1.1133919843597262
1.1036168132942326
1.093841642228739
1.0850439882697946
1.0772238514173995
1.0713587487781036
1.0664711632453567
1.0625610948191593
1.06158357771261
1.06158357771261
1.0596285434995112
1.056695992179863
1.053763440860215
1.050830889540567
1.0469208211143697
1.043010752688172
1.0391006842619743
1.0342130987292275
1.0283479960899315
1.021505376344086
1.0175953079178883
1.0146627565982405
1.0117302052785924
1.0127077223851415
1.024437927663734
1.0547409579667644
1.10752688172043
1.187683284457478
1.2961876832844574
1.4320625610948192
1.590420332355816
1.7634408602150538
1.9188660801564028
2.0625610948191597
2.2170087976539588
2.366568914956012
2.5024437927663734
2.621700879765396
2.7233626588465296
2.8054740957966766
2.8690127077223853
2.916911045943304
2.9501466275659824
2.970674486803519
2.978494623655914
2.973607038123167
2.9589442815249267
2.936461388074292
2.906158357771261
2.866080156402737
2.81622678396872
2.757575757575758
2.6911045943304006
2.6177908113391983
2.5405669599217986
2.462365591397849
2.3851417399804498
2.318670576735093
2.259042033235582
2.20039100684262
2.144672531769306
2.0928641251221896
2.046920821114369
2.005865102639296
1.9696969696969695
1.9374389051808407
1.9071358748778104
1.878787878787879
1.8504398826979471
1.823069403714565
1.7986314760508308
1.7761485826001957
1.7497556207233629
1.7223851417399805
1.6950146627565983
1.6666666666666667
1.6363636363636365
1.606060606060606
1.573802541544477
1.541544477028348
1.5083088954056696
1.4760508308895406
1.4496578690127078
1.4271749755620724
1.401759530791789
1.375366568914956
1.3509286412512218
1.3264907135874875
1.303030303030303
1.2805474095796676
1.2590420332355816
1.238514173998045
1.2209188660801564
1.203323558162268
1.1867057673509287
1.1759530791788857
1.1671554252199414
1.1564027370478984
1.1456500488758554
1.1348973607038124
1.1251221896383188
1.1163245356793745
1.1085043988269794
1.1016617790811338
1.0948191593352885
1.088954056695992
1.083088954056696
1.0801564027370478
1.0801564027370478
1.0801564027370478
1.0791788856304985
1.0772238514173995
1.075268817204301
1.072336265884653
1.0694037145650048
1.067448680351906
1.0654936461388074
1.0625610948191593
1.0596285434995112
1.0547409579667644
1.0527859237536656
1.0518084066471165
1.0498533724340176
1.0498533724340176
1.0586510263929618
1.0821114369501466
1.1270772238514175
1.1974584555229717
1.2961876832844574
1.423264907135875
1.573802541544477
1.7409579667644184
1.8914956011730208
2.032258064516129
2.185728250244379
2.3362658846529816
2.4750733137829912
2.5962854349951123
2.6989247311827955
2.7810361681329425
2.844574780058651
2.8905180840664717
2.920821114369501
2.9374389051808407
2.9423264907135875
2.9345063538611926
2.917888563049853
2.89345063538612
2.8611925708699903
2.820136852394917
2.7702834799608995
2.7116324535679373
2.64613880742913
2.5747800586510263
2.4995112414467253
2.4242424242424243
2.3499511241446727
2.2854349951124147
2.228739002932551
2.1730205278592374
2.121212121212121
2.075268817204301
2.034213098729228
1.9980449657869013
1.9657869012707725
1.9374389051808407
1.911045943304008
1.8856304985337244
1.86119257086999
1.835777126099707
1.812316715542522
1.7898338220918866
1.7644183773216031
1.7360703812316716
1.7057673509286413
1.6744868035190617
1.6412512218963833
1.607038123167155
1.5728250244379276
1.5386119257087
1.5063538611925709
1.474095796676442
1.447702834799609
1.4252199413489737
1.3998044965786902
1.3734115347018572
1.3470185728250244
1.3206256109481915
1.295210166177908
1.2717497556207231
1.2502443792766371
1.2297165200391007
1.2101661779081134
1.1935483870967742
1.1779081133919844
1.1671554252199414
1.1583577712609971
1.1466275659824048
1.1358748778103618
1.1251221896383188
1.115347018572825
1.1065493646138806
1.0987292277614855
1.0909090909090908
1.0840664711632453
1.0772238514173995
1.0703812316715542
1.067448680351906
1.0664711632453567
1.064516129032258
1.06158357771261
1.0576735092864125
1.0547409579667644
1.050830889540567
1.04594330400782
1.0410557184750733
1.035190615835777
1.0283479960899315
1.0205278592375366
1.0127077223851415
1.007820136852395
1.0068426197458455
1.0058651026392962
1.0117302052785924
1.0303030303030305
1.067448680351906
1.130987292277615
1.2209188660801564
1.3401759530791788
1.4848484848484849
1.6490713587487782
1.825024437927664
1.981427174975562
2.12316715542522
2.274682306940372
2.420332355816227
2.552297165200391
2.665689149560117
2.758553274682307
2.831867057673509
2.886608015640274
2.9266862170087977
2.9530791788856305
2.9667644183773216
2.9667644183773216
2.956011730205278
2.9423264907135875
2.920821114369501
2.8885630498533725
2.8455522971652005
2.791788856304985
2.729227761485826
2.658846529814272
2.5835777126099706
2.506353861192571
2.4281524926686218
2.3519061583577714
2.2854349951124147
2.2267839687194524
2.1681329423264906
2.112414467253177
2.06158357771261
2.01564027370479
1.975562072336266
1.9403714565004888
1.9100684261974583
1.8836754643206255
1.858260019550342
1.8328445747800584
1.8103616813294232
1.7888563049853372
1.7634408602150538
1.7350928641251222
1.7057673509286413
1.675464320625611
1.6451612903225807
1.6148582600195502
1.5826001955034212
1.5503421309872922
1.517106549364614
1.4848484848484849
1.4535679374389052
1.4271749755620724
1.4056695992179864
1.3822091886608017
1.356793743890518
1.332355816226784
1.3088954056695992
1.2854349951124144
1.2619745845552297
1.2404692082111437
1.2179863147605083
1.1964809384164223
1.176930596285435
1.163245356793744
1.1515151515151516
1.1368523949169111
1.1231671554252198
1.110459433040078
1.099706744868035
1.0899315738025417
1.0811339198435972
1.0742913000977516
1.0684261974584557
1.0635386119257086
1.0586510263929618
1.0547409579667644
1.053763440860215
1.0547409579667644
1.053763440860215
1.050830889540567
1.0478983382209188
1.0449657869012707
1.0410557184750733
1.0371456500488758
1.0332355816226784
1.0303030303030305
1.0273704789833822
1.024437927663734
1.0234604105571847
1.0234604105571847
1.0195503421309873
1.0156402737047898
1.0146627565982405
1.021505376344086
1.0439882697947214
1.0869990224828934
1.155425219941349
1.252199413489736
1.3773216031280548
1.5268817204301075
1.6959921798631477
1.8504398826979471
1.9960899315738023
2.156402737047898
2.315738025415445
2.463343108504399
2.593352883675464
2.702834799608993
2.791788856304985
2.8611925708699903
2.913000977517106
2.9501466275659824
2.973607038123167
2.9804496578690127
2.975562072336266
2.964809384164223
2.946236559139785
2.917888563049853
2.8797653958944283
2.83088954056696
2.7722385141739982
2.7067448680351904
2.635386119257087
2.5610948191593352
2.484848484848485
2.410557184750733
2.345063538611926
2.2854349951124147
2.225806451612903
2.1700879765395893
2.1192570869990224
2.074291300097752
2.034213098729228
1.9990224828934504
1.9687194525904204
1.9413489736070384
1.9159335288367547
1.8914956011730208
1.8699902248289344
1.8494623655913975
1.825024437927664
1.7976539589442817
1.7683284457478006
1.7380254154447703
1.7057673509286413
1.672531769305963
1.6383186705767352
1.6041055718475072
1.56891495601173
1.533724340175953
1.499511241446725
1.4711632453567938
1.4467253176930597
1.4193548387096775
1.391006842619746
1.3636363636363635
1.33822091886608
1.313782991202346
1.29227761485826
1.270772238514174
1.2512218963831867
1.2326490713587488
1.2140762463343109
1.2003910068426198
1.1896383186705768
1.176930596285435
1.163245356793744
1.1495601173020529
1.1358748778103618
1.1241446725317692
1.115347018572825
1.10752688172043
1.1016617790811338
1.0957966764418376
1.0899315738025417
1.0840664711632453
1.0821114369501466
1.0811339198435972
1.0772238514173995
1.072336265884653
1.067448680351906
1.06158357771261
1.0557184750733135
1.0498533724340176
1.0449657869012707
1.0381231671554252
1.0312805474095796
1.024437927663734
1.0205278592375366
1.018572825024438
1.0156402737047898
1.013685239491691
1.0166177908113392
1.0303030303030305
1.0606060606060606
1.1133919843597262
1.1935483870967742
1.303030303030303
1.4379276637341154
1.595307917888563
1.7663734115347018
1.919843597262952
2.06158357771261
2.2140762463343107
2.363636363636364
2.4995112414467253
2.6177908113391983
2.716520039100684
2.795698924731183
2.857282502443793
2.902248289345064
2.932551319648094
2.951124144672532
2.95405669599218
2.946236559139785
2.932551319648094
2.911045943304008
2.8797653958944283
2.838709677419355
2.787878787878788
2.7282502443792764
2.6608015640273703
2.587487781036168
2.5112414467253177
2.4330400782013686
2.357771260997068
2.291300097751711
2.232649071358749
2.1739980449657867
2.118279569892473
2.067448680351906
2.022482893450636
1.9833822091886608
1.948191593352884
1.9159335288367547
1.8866080156402736
1.8592375366568916
1.833822091886608
1.8113391984359728
1.7898338220918866
1.7653958944281525
1.7390029325513197
1.7116324535679377
1.683284457478006
1.6529814271749756
1.6217008797653958
1.5894428152492668
1.5562072336265884
1.52297165200391
1.490713587487781
1.4633431085043989
1.439882697947214
1.4134897360703813
1.3861192570869991
1.3587487781036167
1.3313782991202343
1.3049853372434017
1.2795698924731185
1.2551319648093842
1.2336265884652982
1.2121212121212122
1.1925708699902249
1.173998044965787
1.160312805474096
1.1495601173020529
1.1378299120234605
1.1251221896383188
1.1124144672531768
1.1006842619745845
1.0899315738025417
1.0801564027370478
1.0694037145650048
1.0576735092864125
1.0488758553274682
1.0410557184750733
1.0391006842619743
1.040078201368524
1.0391006842619743
1.0381231671554252
1.0371456500488758
1.035190615835777
1.032258064516129
1.029325513196481
1.0263929618768328
1.0224828934506354
1.018572825024438
1.013685239491691
1.007820136852395
1.0048875855327468
1.0039100684261977
1.0
0.997067448680352
0.997067448680352
1.0068426197458455
1.032258064516129
1.0801564027370478
1.1544477028347997
1.2590420332355816
1.3919843597262953
1.5483870967741935
1.696969696969697
1.842619745845552
2.0087976539589443
2.177908113391984
2.3391984359726297
2.4858260019550342
2.6129032258064515
2.719452590420332
2.806451612903226
2.874877810361681
2.9257086999022484
2.961876832844575
2.98435972629521
2.991202346041056
2.986314760508309
2.975562072336266
2.9579667644183774
2.929618768328446
2.8914956011730206
2.8426197458455524
2.78494623655914
2.718475073313783
2.64613880742913
2.5698924731182795
2.49266862170088
2.4222873900293256
2.356793743890518
2.291300097751711
2.2277614858260018
2.1700879765395893
2.1192570869990224
2.075268817204301
2.038123167155425
2.005865102639296
1.9765395894428155
1.949169110459433
1.9227761485826005
1.8973607038123168
1.8729227761485825
1.8494623655913975
1.823069403714565
1.7947214076246334
1.7653958944281525
1.7350928641251222
1.7038123167155426
1.672531769305963
1.640273704789834
1.6080156402737047
1.5757575757575757
1.543499511241447
1.5161290322580645
1.4916911045943304
1.4652981427174976
1.4379276637341154
1.4115347018572826
1.3851417399804498
1.359726295210166
1.335288367546432
1.310850439882698
1.2883675464320623
1.267839687194526
1.2482893450635386
1.2316715542521994
1.2209188660801564
1.2121212121212122
1.2013685239491692
1.1896383186705768
1.1779081133919844
1.166177908113392
1.155425219941349
1.1436950146627567
1.1329423264907137
1.1221896383186705
1.1124144672531768
1.104594330400782
1.1016617790811338
1.1006842619745845
1.096774193548387
1.0928641251221896
1.0879765395894427
1.0821114369501466
1.0772238514173995
1.0713587487781036
1.0654936461388074
1.0606060606060606
1.0557184750733135
1.050830889540567
1.04594330400782
1.0439882697947214
1.043010752688172
1.040078201368524
1.0391006842619743
1.0449657869012707
1.0625610948191593
1.099706744868035
1.1612903225806452
1.2502443792766371
1.367546432062561
1.5102639296187683
1.672531769305963
1.822091886608016
1.964809384164223
2.1221896383186705
2.2795698924731185
2.426197458455523
2.555229716520039
2.664711632453568
2.7546432062561097
2.8240469208211145
2.874877810361681
2.9100684261974585
2.9315738025415445
2.940371456500489
2.9374389051808407
2.9227761485826003
2.9012707722385143
2.870967741935484
2.831867057673509
2.782013685239492
2.7233626588465296
2.656891495601173
2.58455522971652
2.5083088954056696
2.4301075268817205
2.3528836754643208
2.2854349951124147
2.2248289345063537
2.1652003910068425
2.1094819159335287
2.058651026392962
2.0127077223851417
1.9726295210166176
1.9374389051808407
1.906158357771261
1.8778103616813293
1.8533724340175952
1.828934506353861
1.8054740957966764
1.7839687194525904
1.7644183773216031
1.7429130009775171
1.718475073313783
1.6911045943304008
1.6608015640273706
1.6285434995112416
1.595307917888563
1.5610948191593352
1.525904203323558
1.4916911045943304
1.458455522971652
1.43108504398827
1.4066471163245358
1.3792766373411536
1.3509286412512218
1.3225806451612905
1.2961876832844574
1.2697947214076246
1.2453567937438903
1.2228739002932552
1.2013685239491692
1.1808406647116323
1.1622678396871946
1.1485826001955035
1.1378299120234605
1.1251221896383188
1.1124144672531768
1.099706744868035
1.0879765395894427
1.078201368523949
1.0694037145650048
1.0625610948191593
1.0576735092864125
1.0527859237536656
1.0488758553274682
1.0449657869012707
1.043010752688172
1.043010752688172
1.0410557184750733
1.0381231671554252
1.0342130987292275
1.0303030303030305
1.024437927663734
1.018572825024438
1.0127077223851415
1.007820136852395
1.002932551319648
0.9980449657869012
0.9960899315738024
0.997067448680352
0.9960899315738024
0.9960899315738024
1.002932551319648
1.021505376344086
1.0606060606060606
1.1241446725317692
1.217008797653959
1.3391984359726294
1.4868035190615836
1.6549364613880744
1.833822091886608
1.991202346041056
2.133919843597263
2.2854349951124147
2.43108504398827
2.5620723362658846
2.674486803519061
2.7673509286412514
2.841642228739003
2.900293255131965
2.9442815249266863
2.973607038123167
2.989247311827957
2.9902248289345064
2.979472140762464
2.961876832844575
2.935483870967742
2.898338220918866
2.8514173998044967
2.795698924731183
2.732160312805474
2.66177908113392
2.587487781036168
2.5112414467253177
2.4349951124144678
2.360703812316716
2.2952101661779083
2.2375366568914954
2.179863147605083
2.1270772238514173
2.0791788856304985
2.0361681329423265
1.997067448680352
1.9618768328445748
1.9305962854349952
1.9012707722385145
1.873900293255132
1.847507331378299
1.825024437927664
1.804496578690127
1.7820136852394917
1.7575757575757576
1.732160312805474
1.7057673509286413
1.678396871945259
1.6500488758553276
1.6217008797653958
1.5933528836754642
1.565982404692082
1.5386119257087
1.512218963831867
1.490713587487781
1.4711632453567938
1.4496578690127078
1.4281524926686218
1.4056695992179864
1.3841642228739004
1.3626588465298142
1.3421309872922775
1.321603128054741
1.303030303030303
1.2873900293255132
1.2717497556207231
1.2609970674486803
1.252199413489736
1.2434017595307918
1.2365591397849462
1.23069403714565
1.224828934506354
1.2189638318670577
1.2140762463343109
1.2082111436950147
1.203323558162268
1.1994134897360704
1.1964809384164223
1.1945259042033236
1.195503421309873
1.1994134897360704
1.2023460410557183
1.2043010752688172
1.2043010752688172
1.2043010752688172
1.203323558162268
1.2023460410557183
1.2003910068426198
1.1994134897360704
1.1974584555229717
1.1945259042033236
1.1925708699902249
1.1896383186705768
1.1827956989247312
1.1759530791788857
1.1720430107526882
1.1788856304985338
1.2013685239491692
1.2453567937438903
1.3157380254154447
1.414467253176931
1.5395894428152492
1.6871945259042034
1.8504398826979471
1.997067448680352
2.133919843597263
2.283479960899316
2.4301075268817205
2.5640273704789838
2.679374389051808
2.774193548387097
2.849462365591398
2.905180840664712
2.943304007820137
2.9657869012707723
2.975562072336266
2.9716520039100685
2.956989247311828
2.935483870967742
2.9071358748778104
2.870967741935484
2.825024437927664
2.7702834799608995
2.705767350928641
2.634408602150537
2.558162267839687
