ppg
1.9012707722385145
1.873900293255132
1.8514173998044965
1.83088954056696
1.8211143695014664
1.8162267839687196
1.801564027370479
1.7839687194525904
1.7634408602150538
1.7429130009775171
1.7223851417399805
1.7028347996089932
1.6813294232649072
1.6598240469208212
1.6422287390029326
1.6256109481915937
1.6080156402737047
1.5913978494623655
1.5747800586510263
1.5571847507331378
1.5376344086021505
1.520039100684262
1.5024437927663734
1.4848484848484849
1.4682306940371457
1.452590420332356
1.4389051808406648
1.4291300097751711
1.4203323558162269
1.4105571847507332
1.4007820136852396
1.3919843597262953
1.3822091886608017
1.3724340175953078
1.3636363636363635
1.35386119257087
1.3450635386119256
1.335288367546432
1.3255131964809383
1.3196480938416422
1.3147605083088951
1.3088954056695992
1.3040078201368523
1.3020527859237536
1.3020527859237536
1.3098729227761483
1.332355816226784
1.3734115347018572
1.4379276637341154
1.5288367546432062
1.6451612903225807
1.7839687194525904
1.9149560117302051
2.0439882697947214
2.1915933528836757
2.340175953079179
2.4780058651026398
2.5972629521016617
2.6959921798631474
2.773216031280548
2.83088954056696
2.8719452590420333
2.900293255131965
2.919843597262952
2.9266862170087977
2.9266862170087977
2.924731182795699
2.918866080156403
2.90811339198436
2.8914956011730206
2.8699902248289346
2.8406647116324537
2.803519061583578
2.757575757575758
2.705767350928641
2.6480938416422286
2.5865102639296187
2.5288367546432062
2.4750733137829912
2.420332355816227
2.366568914956012
2.317693059628544
2.2766373411534704
2.241446725317693
2.212121212121212
2.187683284457478
2.1681329423264906
2.150537634408602
2.131964809384164
2.113391984359726
2.0948191593352883
2.0733137829912023
2.048875855327468
2.0205278592375366
1.9902248289345064
1.9560117302052784
1.9188660801564028
1.8807429130009776
1.8416422287390029
1.8025415444770283
1.7624633431085044
1.7204301075268815
1.6852394916911049
1.6529814271749756
1.616813294232649
1.5796676441837731
1.544477028347996
1.5112414467253177
1.478983382209189
1.447702834799609
1.4193548387096775
1.3949169110459434
1.3714565004887584
1.348973607038123
1.3313782991202343
1.316715542521994
1.300097751710655
1.2825024437927663
1.262952101661779
1.2424242424242424
1.2209188660801564
1.2003910068426198
1.1798631476050832
1.1593352883675463
1.1397849462365592
1.121212121212121
1.104594330400782
1.093841642228739
1.0850439882697946
1.072336265884653
1.0596285434995112
1.0469208211143697
1.0342130987292275
1.0234604105571847
1.0146627565982405
1.0048875855327468
0.9960899315738024
0.9863147605083088
0.9765395894428152
0.9716520039100685
0.9706744868035192
0.9687194525904204
0.9648093841642228
0.9618768328445748
0.9608993157380256
0.967741935483871
0.9853372434017597
1.0205278592375366
1.078201368523949
1.1622678396871946
1.273704789833822
1.4115347018572826
1.5464320625610948
1.6813294232649072
1.8387096774193548
2.002932551319648
2.161290322580645
2.304007820136853
2.4271749755620724
2.5288367546432062
2.6099706744868034
2.670576735092864
2.7145650048875853
2.7438905180840663
2.757575757575758
2.7614858260019552
2.763440860215054
2.763440860215054
2.760508308895406
2.7517106549364616
2.735092864125122
2.7096774193548385
2.675464320625611
2.632453567937439
2.5806451612903225
2.5219941348973607
2.4594330400782014
2.401759530791789
2.347996089931574
2.2932551319648096
2.241446725317693
2.196480938416422
2.157380254154448
2.1251221896383186
2.1006842619745845
2.081133919843597
2.065493646138808
2.050830889540567
2.037145650048876
2.0254154447702835
2.013685239491691
2.0009775171065494
1.9853372434017595
1.967741935483871
1.9472140762463344
1.924731182795699
1.8993157380254155
1.870967741935484
1.839687194525904
1.8074291300097751
1.7741935483870968
1.7419354838709675
1.7165200391006843
1.6930596285434996
1.6656891495601174
1.6373411534701858
1.6080156402737047
1.576735092864125
1.5454545454545454
1.5161290322580645
1.4858260019550342
1.456500488758553
1.4271749755620724
1.3988269794721409
1.375366568914956
1.3548387096774193
1.3313782991202343
1.3079178885630498
1.284457478005865
1.260019550342131
1.2375366568914956
1.2160312805474096
1.195503421309873
1.1779081133919844
1.1612903225806452
1.1456500488758554
1.1319648093841643
1.1231671554252198
1.1163245356793745
1.10752688172043
1.096774193548387
1.0850439882697946
1.0733137829912025
1.0635386119257086
1.0557184750733135
1.0488758553274682
1.0420332355816226
1.035190615835777
1.029325513196481
1.0263929618768328
1.0263929618768328
1.024437927663734
1.0234604105571847
1.024437927663734
1.032258064516129
1.050830889540567
1.086021505376344
1.1436950146627567
1.227761485826002
1.33822091886608
1.4731182795698925
1.607038123167155
1.7419354838709675
1.8993157380254155
2.06158357771261
2.217986314760508
2.360703812316716
2.4838709677419355
2.58455522971652
2.6637341153470184
2.7370478983382207
2.801564027370479
2.8426197458455524
2.868035190615836
2.878787878787879
2.881720430107527
2.8826979472140764
2.877810361681329
2.8670576735092865
2.8484848484848486
2.820136852394917
2.7810361681329425
2.732160312805474
2.6725317693059627
2.606060606060606
2.536656891495601
2.472140762463343
2.4134897360703813
2.35386119257087
2.2991202346041058
2.251221896383187
2.2130987292277613
2.182795698924731
2.160312805474096
2.144672531769306
2.133919843597263
2.126099706744868
2.120234604105572
2.113391984359726
2.10752688172043
2.1006842619745845
2.090909090909091
2.0762463343108504
2.0576735092864125
2.035190615835777
2.006842619745845
1.9765395894428155
1.9442815249266865
1.9100684261974583
1.8748778103616808
1.8406647116324533
1.8093841642228736
1.780058651026393
1.7468230694037146
1.7126099706744868
1.6803519061583578
1.6500488758553276
1.619745845552297
1.590420332355816
1.563049853372434
1.5366568914956011
1.509286412512219
1.482893450635386
1.457478005865103
1.4389051808406648
1.423264907135875
1.404692082111437
1.3851417399804498
1.3655913978494625
1.3479960899315735
1.332355816226784
1.3176930596285434
1.303030303030303
1.2883675464320623
1.273704789833822
1.260019550342131
1.252199413489736
1.2473118279569892
1.2404692082111437
1.2316715542521994
1.2228739002932552
1.2130987292277615
1.2052785923753666
1.1994134897360704
1.1925708699902249
1.1867057673509287
1.1827956989247312
1.1808406647116323
1.1808406647116323
1.1837732160312806
1.1886608015640274
1.1935483870967742
1.1974584555229717
1.203323558162268
1.2150537634408602
1.2355816226783969
1.270772238514174
1.3264907135874875
1.4066471163245358
1.5151515151515151
1.6520039100684265
1.7869012707722385
1.924731182795699
2.0879765395894427
2.260019550342131
2.4281524926686218
2.5806451612903225
2.7116324535679373
2.8181818181818183
2.9012707722385143
2.964809384164223
3.0117302052785924
3.0449657869012707
3.0684261974584555
3.080156402737048
3.086021505376344
3.093841642228739
3.1006842619745845
3.102639296187683
3.0977517106549364
3.0821114369501466
3.053763440860215
3.0146627565982405
2.963831867057673
2.9042033235581624
2.8367546432062563
2.771260997067449
2.708699902248289
2.643206256109482
2.578690127077224
2.5180840664711632
2.463343108504399
2.4164222873900294
2.376344086021505
2.3440860215053765
2.318670576735093
2.2981427174975564
2.281524926686217
2.267839687194526
2.2561094819159337
2.244379276637341
2.233626588465298
2.222873900293255
2.210166177908113
2.1945259042033234
2.175953079178885
2.1544477028347995
2.1309872922776147
2.1065493646138806
2.0821114369501466
2.0576735092864125
2.0361681329423265
2.0175953079178885
1.9951124144672527
1.970674486803519
1.945259042033236
1.919843597262952
1.8914956011730208
1.8631476050830889
1.8347996089931573
1.8064516129032255
1.7781036168132942
1.7517106549364614
1.726295210166178
1.704789833822092
1.6852394916911049
1.6627565982404693
1.6412512218963833
1.6187683284457477
1.5962854349951123
1.5718475073313782
1.547409579667644
1.5239491691104594
1.501466275659824
1.478005865102639
1.456500488758553
1.4408602150537635
1.4271749755620724
1.4105571847507332
1.393939393939394
1.3763440860215057
1.3607038123167154
1.346041055718475
1.332355816226784
1.3176930596285434
1.303030303030303
1.2883675464320623
1.273704789833822
1.2609970674486803
1.2541544477028348
1.2482893450635386
1.238514173998045
1.2297165200391007
1.2209188660801564
1.2160312805474096
1.2209188660801564
1.241446725317693
1.2825024437927663
1.348973607038123
1.4437927663734116
1.565982404692082
1.6871945259042034
1.8132942326490715
1.964809384164223
2.1251221896383186
2.2825024437927666
2.4271749755620724
2.552297165200391
2.6559139784946235
2.7341153470185726
2.789833822091887
2.8269794721407626
2.850439882697948
2.865102639296188
2.8699902248289346
2.8690127077223853
2.868035190615836
2.8670576735092865
2.863147605083089
2.854349951124145
2.838709677419355
2.814271749755621
2.780058651026393
2.736070381231672
2.6832844574780057
2.624633431085044
2.567937438905181
2.5131964809384164
2.455522971652004
2.3978494623655915
2.3440860215053765
2.2952101661779083
2.254154447702835
2.220918866080156
2.1955034213098727
2.174975562072336
2.157380254154448
2.1417399804496577
2.129032258064516
2.1163245356793743
2.1006842619745845
2.0821114369501466
2.060606060606061
2.037145650048876
2.0117302052785924
1.9833822091886608
1.95405669599218
1.921798631476051
1.8875855327468232
1.8523949169110456
1.81524926686217
1.782991202346041
1.75366568914956
1.7223851417399805
1.6901270772238517
1.656891495601173
1.6236559139784943
1.590420332355816
1.5581622678396871
1.525904203323558
1.4946236559139785
1.4652981427174976
1.436950146627566
1.414467253176931
1.3958944281524928
1.3743890518084063
1.3088954056695992
1.219941348973607
1.1622678396871946
1.121212121212121
1.0909090909090908
1.0654936461388074
1.0420332355816226
1.0205278592375366
1.0019550342130987
0.9843597262952102
0.9726295210166178
0.9657869012707724
0.9550342130987292
0.9433040078201368
0.9305962854349952
0.9188660801564028
0.9090909090909092
0.9002932551319648
0.8934506353861192
0.8866080156402737
0.8807429130009775
0.873900293255132
0.8709677419354839
0.8690127077223851
0.8651026392961877
0.8602150537634409
0.855327468230694
0.852394916911046
0.8543499511241447
0.8651026392961877
0.8905180840664711
0.935483870967742
1.0068426197458455
1.10752688172043
1.2355816226783969
1.364613880742913
1.499511241446725
1.66177908113392
1.8347996089931573
2.005865102639296
2.1652003910068425
2.304985337243402
2.423264907135875
2.5161290322580645
2.5865102639296187
2.638318670576735
2.673509286412512
2.6911045943304006
2.697947214076246
2.701857282502444
2.702834799608993
2.7008797653958942
2.695014662756598
2.6832844574780057
2.6637341153470184
2.634408602150537
2.593352883675464
2.5405669599217986
2.4780058651026398
2.4086021505376345
2.3421309872922778
2.281524926686217
2.217986314760508
2.157380254154448
2.102639296187683
2.056695992179863
2.0205278592375366
1.994134897360704
1.975562072336266
1.963831867057673
1.95405669599218
1.946236559139785
1.9393939393939397
1.9315738025415443
1.921798631476051
1.9090909090909087
1.8944281524926687
1.8748778103616808
1.8514173998044965
1.8240469208211143
1.793743890518084
1.7595307917888563
1.7233626588465298
1.6871945259042034
1.651026392961877
1.6207233626588464
1.5943304007820136
1.5650048875855327
1.533724340175953
1.5024437927663734
1.4721407624633431
1.4428152492668622
1.4134897360703813
1.3861192570869991
1.3587487781036167
1.3304007820136852
1.303030303030303
1.281524926686217
1.262952101661779
1.2424242424242424
1.2209188660801564
1.1994134897360704
1.1788856304985338
1.1583577712609971
1.1378299120234605
1.115347018572825
1.0928641251221896
1.0703812316715542
1.0498533724340176
1.0312805474095796
1.018572825024438
1.010752688172043
1.0019550342130987
0.9921798631476052
0.9824046920821116
0.9736070381231672
0.9638318670576737
0.9530791788856304
0.9413489736070382
0.9315738025415444
0.9237536656891496
0.916911045943304
0.9159335288367546
0.9188660801564028
0.9208211143695014
0.9217986314760508
0.9217986314760508
0.9227761485826002
0.927663734115347
0.9433040078201368
0.9736070381231672
1.0254154447702837
1.1036168132942326
1.209188660801564
1.343108504398827
1.478005865102639
1.616813294232649
1.7820136852394917
1.956989247311828
2.1280547409579667
2.286412512218964
2.423264907135875
2.535679374389052
2.6236559139784945
2.6881720430107525
2.736070381231672
2.768328445747801
2.782991202346041
2.787878787878788
2.791788856304985
2.792766373411535
2.789833822091887
2.782013685239492
2.766373411534702
2.740957966764418
2.705767350928641
2.659824046920821
2.6050830889540566
2.541544477028348
2.4731182795698925
2.4086021505376345
2.3489736070381237
2.2883675464320627
2.2297165200391005
2.176930596285435
2.131964809384164
2.093841642228739
2.0635386119257086
2.0391006842619745
2.0205278592375366
2.006842619745845
1.994134897360704
1.9824046920821117
1.970674486803519
1.9579667644183771
1.945259042033236
1.9305962854349952
1.913978494623656
1.8963831867057677
1.87683284457478
1.8543499511241448
1.828934506353861
1.8025415444770283
1.7732160312805474
1.7468230694037146
1.7223851417399805
1.6959921798631477
1.667644183773216
1.6373411534701858
1.606060606060606
1.5757575757575757
1.5454545454545454
1.5161290322580645
1.4887585532746823
1.4633431085043989
1.439882697947214
1.4173998044965788
1.3998044965786902
1.3861192570869991
1.3695014662756595
1.3528836754643203
1.3343108504398826
1.3157380254154447
1.2961876832844574
1.2766373411534702
1.2570869990224829
1.2365591397849462
1.2160312805474096
1.198435972629521
1.187683284457478
1.1798631476050832
1.1691104594330402
1.1573802541544478
1.1456500488758554
1.1358748778103618
1.1270772238514175
1.1192570869990224
1.1124144672531768
1.1055718475073313
1.099706744868035
1.0948191593352885
1.0918866080156402
1.0928641251221896
1.0957966764418376
1.0977517106549364
1.0987292277614855
1.0987292277614855
1.1006842619745845
1.1085043988269794
1.1270772238514175
1.163245356793744
1.2228739002932552
1.310850439882698
1.4271749755620724
1.547409579667644
1.6774193548387095
1.8387096774193548
2.0146627565982405
2.193548387096774
2.361681329423265
2.5131964809384164
2.643206256109482
2.750733137829912
2.834799608993157
2.897360703812317
2.9442815249266863
2.9775171065493646
2.994134897360704
3.0019550342130987
3.0087976539589443
3.013685239491691
3.013685239491691
3.0097751710654936
3.0
2.978494623655914
2.945259042033236
2.900293255131965
2.8455522971652005
2.78494623655914
2.724340175953079
2.662756598240469
2.5972629521016617
2.5317693059628543
2.4701857282502444
2.4144672531769307
2.367546432062561
2.3274682306940373
2.2932551319648096
2.2639296187683287
2.2385141739980448
2.2170087976539588
2.1955034213098727
2.174975562072336
2.156402737047898
2.1358748778103616
2.115347018572825
2.093841642228739
2.070381231671554
2.046920821114369
2.021505376344086
1.994134897360704
1.9667644183773216
1.93841642228739
1.90811339198436
1.881720430107527
1.857282502443793
1.8299120234604105
1.801564027370479
1.7741935483870968
1.7468230694037146
1.7204301075268815
1.6950146627565983
1.6686217008797657
1.640273704789834
1.6129032258064515
1.5865102639296187
1.5610948191593352
1.541544477028348
1.5239491691104594
1.504398826979472
1.4838709677419355
1.4613880742913
1.4379276637341154
1.4164222873900294
1.396871945259042
1.3773216031280548
1.3587487781036167
1.3391984359726294
1.3196480938416422
1.305962854349951
1.2942326490713587
1.2795698924731185
1.262952101661779
1.2453567937438903
1.227761485826002
1.2130987292277615
1.2003910068426198
1.1857282502443791
1.1710654936461389
1.1564027370478984
1.141739980449658
1.1270772238514175
1.118279569892473
1.1143695014662756
1.10752688172043
1.099706744868035
1.0928641251221896
1.0869990224828934
1.0850439882697946
1.0928641251221896
1.1143695014662756
1.1534701857282503
1.2160312805474096
1.3069403714565004
1.4056695992179864
1.5161290322580645
1.6559139784946235
1.812316715542522
1.9745845552297163
2.1309872922776147
2.272727272727273
2.3958944281524928
2.4975562072336266
2.576735092864125
2.636363636363636
2.678396871945259
2.7067448680351904
2.720430107526881
2.724340175953079
2.7262952101661777
2.7262952101661777
2.7223851417399803
2.7145650048875853
2.7008797653958942
2.678396871945259
2.6471163245356792
2.6080156402737047
2.5591397849462365
2.5034213098729228
2.449657869012708
2.3958944281524928
2.3382209188660803
2.280547409579668
2.2267839687194524
2.179863147605083
2.139784946236559
2.10752688172043
2.0840664711632453
2.067448680351906
2.0557184750733137
2.046920821114369
2.040078201368524
2.0332355816226784
2.0254154447702835
2.0146627565982405
2.0009775171065494
1.9843597262952104
1.964809384164223
1.9423264907135875
1.9159335288367547
1.884652981427175
1.8504398826979471
1.8162267839687196
1.7820136852394917
1.750733137829912
1.7223851417399805
1.6901270772238517
1.6559139784946235
1.6217008797653958
1.587487781036168
1.5542521994134897
1.52297165200391
1.4926686217008798
1.4633431085043989
1.434017595307918
1.4056695992179864
1.3782991202346042
1.3558162267839686
1.3372434017595307
1.316715542521994
1.295210166177908
1.273704789833822
1.2541544477028348
1.2355816226783969
1.2189638318670577
1.203323558162268
1.187683284457478
1.1720430107526882
1.155425219941349
1.142717497556207
1.1319648093841643
1.1192570869990224
1.1065493646138806
1.0948191593352885
1.0821114369501466
1.0703812316715542
1.0586510263929618
1.04594330400782
1.0342130987292275
1.024437927663734
1.0146627565982405
1.0097751710654936
1.007820136852395
1.002932551319648
0.9990224828934506
0.9960899315738024
0.9941348973607038
0.9931573802541545
0.997067448680352
1.007820136852395
1.0303030303030305
1.0703812316715542
1.1329423264907137
1.2228739002932552
1.3225806451612905
1.4349951124144673
1.5777126099706744
1.737047898338221
1.902248289345064
2.0635386119257086
2.2130987292277613
2.345063538611926
2.4545454545454546
2.541544477028348
2.6080156402737047
2.6559139784946235
2.6852394916911044
2.702834799608993
2.7155425219941347
2.724340175953079
2.7282502443792764
2.7282502443792764
2.7223851417399803
2.710654936461388
2.689149560117302
2.6578690127077222
2.6177908113391983
2.56891495601173
2.5131964809384164
2.4574780058651027
2.4027370478983383
2.3440860215053765
2.2854349951124147
2.23069403714565
2.1837732160312804
2.145650048875855
2.114369501466276
2.088954056695992
2.070381231671554
2.0576735092864125
2.047898338220919
2.040078201368524
2.0332355816226784
2.0254154447702835
2.01564027370479
2.002932551319648
1.986314760508309
1.9667644183773216
1.9442815249266865
1.9178885630498532
1.8885630498533723
1.8592375366568916
1.828934506353861
1.7996089931573802
1.7732160312805474
1.747800586510264
1.7194525904203324
1.6901270772238517
1.6598240469208212
1.629521016617791
1.5972629521016617
1.5650048875855327
1.5347018572825024
1.5063538611925709
1.478983382209189
1.4535679374389052
1.4330400782013686
1.4164222873900294
1.3998044965786902
1.383186705767351
1.3636363636363635
1.343108504398827
1.3225806451612905
1.3020527859237536
1.2795698924731185
1.2570869990224829
1.2355816226783969
1.2150537634408602
1.1945259042033236
1.1798631476050832
1.1681329423264908
1.1544477028347997
1.1456500488758554
1.13880742913001
1.1290322580645162
1.1192570869990224
1.110459433040078
1.1036168132942326
1.096774193548387
1.0899315738025417
1.083088954056696
1.0801564027370478
1.0801564027370478
1.0791788856304985
1.0762463343108504
1.072336265884653
1.0694037145650048
1.0684261974584557
1.0733137829912025
1.0879765395894427
1.1173020527859236
1.166177908113392
1.238514173998045
1.3401759530791788
1.4506353861192571
1.5728250244379276
1.726295210166178
1.8983382209188664
2.078201368523949
2.254154447702835
2.4173998044965788
2.5620723362658846
2.6832844574780057
2.779081133919844
2.8533724340175954
2.90811339198436
2.941348973607038
2.959921798631476
2.973607038123167
2.981427174975562
2.9824046920821115
2.978494623655914
2.967741935483871
2.948191593352884
2.919843597262952
2.884652981427175
2.841642228739003
2.791788856304985
2.735092864125122
2.679374389051808
2.6236559139784945
2.5640273704789838
2.506353861192571
2.4516129032258065
2.4027370478983383
2.361681329423265
2.3284457478005867
2.3010752688172045
2.281524926686217
2.2668621700879767
2.254154447702835
2.243401759530792
2.232649071358749
2.2218963831867056
2.210166177908113
2.1955034213098727
2.179863147605083
2.161290322580645
2.1388074291300097
2.113391984359726
2.085043988269794
2.0557184750733137
2.026392961876833
1.997067448680352
1.9726295210166176
1.9501466275659824
1.9227761485826005
1.8944281524926687
1.8670576735092863
1.839687194525904
1.8132942326490715
1.7888563049853372
1.7663734115347018
1.7429130009775171
1.718475073313783
1.694037145650049
1.6744868035190617
1.6578690127077225
1.6373411534701858
1.6158357771260996
1.595307917888563
1.576735092864125
1.560117302052786
1.544477028347996
1.530791788856305
1.517106549364614
1.5034213098729228
1.4887585532746823
1.4731182795698925
1.4613880742913
1.4535679374389052
1.444770283479961
1.4349951124144673
1.4252199413489737
1.41544477028348
1.4056695992179864
1.3958944281524928
1.388074291300098
1.3812316715542523
1.375366568914956
1.3695014662756595
1.3665689149560116
1.3665689149560116
1.3626588465298142
1.356793743890518
1.3509286412512218
1.3479960899315735
1.346041055718475
1.3479960899315735
1.3616813294232648
1.392961876832845
1.4457478005865103
1.5249266862170088
1.6334310850439884
1.7468230694037146
1.869012707722385
2.022482893450636
2.1925708699902247
2.366568914956012
2.5347018572825024
2.6881720430107525
2.822091886608016
2.9335288367546437
3.021505376344086
3.0879765395894427
3.1358748778103616
3.163245356793744
3.177908113391984
3.1915933528836757
3.201368523949169
3.207233626588465
3.2082111436950145
3.204301075268817
3.1925708699902247
3.172043010752688
3.139784946236559
3.093841642228739
3.0361681329423265
2.9765395894428157
2.9120234604105573
2.8377321603128056
2.757575757575758
2.679374389051808
2.6041055718475072
2.535679374389052
2.474095796676442
2.4222873900293256
2.380254154447703
2.346041055718475
2.317693059628544
2.294232649071359
2.2766373411534704
2.260997067448681
2.244379276637341
2.2267839687194524
2.2052785923753664
2.1808406647116323
2.1544477028347995
2.12316715542522
2.0869990224828934
2.048875855327468
2.0087976539589443
1.967741935483871
1.9315738025415443
1.8993157380254155
1.8631476050830889
1.825024437927664
1.7869012707722385
1.750733137829912
1.7145650048875856
1.6793743890518085
1.6451612903225807
1.6109481915933528
1.5786901270772238
1.547409579667644
1.5180840664711632
1.495601173020528
1.47702834799609
1.456500488758553
1.434017595307918
1.4115347018572826
1.3890518084066472
1.367546432062561
1.3479960899315735
1.327468230694037
1.3079178885630498
1.2883675464320623
1.2688172043010753
1.2551319648093842
1.2434017595307918
1.2287390029325511
1.2121212121212122
1.1935483870967742
1.1749755620723363
1.1564027370478984
1.1378299120234605
1.1202346041055715
1.104594330400782
1.0899315738025417
1.0762463343108504
1.0635386119257086
1.0576735092864125
1.0557184750733135
1.050830889540567
1.0449657869012707
1.040078201368524
1.035190615835777
1.0303030303030305
1.0283479960899315
1.032258064516129
1.0469208211143697
1.0791788856304985
1.1348973607038124
1.2043010752688172
