ppg
1.3440860215053765
1.3313782991202343
1.3186705767350928
1.305962854349951
1.2942326490713587
1.2825024437927663
1.2717497556207231
1.2609970674486803
1.2551319648093842
1.2502443792766371
1.2443792766373412
1.2375366568914956
1.23069403714565
1.2228739002932552
1.2150537634408602
1.2082111436950147
1.2013685239491692
1.1945259042033236
1.187683284457478
1.181818181818182
1.176930596285435
1.1749755620723363
1.173998044965787
1.1710654936461389
1.1671554252199414
1.1622678396871946
1.1583577712609971
1.1534701857282503
1.1495601173020529
1.1456500488758554
1.141739980449658
1.1407624633431086
1.1456500488758554
1.1583577712609971
1.181818181818182
1.219941348973607
1.2766373411534702
1.3548387096774193
1.4516129032258065
1.5650048875855327
1.6901270772238517
1.822091886608016
1.9550342130987293
2.0840664711632453
2.2052785923753664
2.3167155425219943
2.404692082111437
2.47702834799609
2.552297165200391
2.6265884652981426
2.696969696969697
2.7624633431085046
2.823069403714565
2.877810361681329
2.927663734115347
2.9716520039100685
3.0087976539589443
3.038123167155425
3.053763440860215
3.058651026392962
3.060606060606061
3.056695992179863
3.043010752688172
3.0195503421309877
2.986314760508309
2.9423264907135875
2.889540566959922
2.8299120234604107
2.764418377321604
2.695014662756598
2.624633431085044
2.5610948191593352
2.501466275659824
2.4408602150537635
2.383186705767351
2.317693059628544
2.2629521016617797
2.225806451612903
2.187683284457478
2.1495601173020527
2.112414467253177
2.075268817204301
2.037145650048876
2.003910068426197
1.9726295210166176
1.93841642228739
1.903225806451613
1.8670576735092863
1.83088954056696
1.7947214076246334
1.758553274682307
1.7233626588465298
1.6881720430107527
1.653958944281525
1.6207233626588464
1.5933528836754642
1.5698924731182795
1.543499511241447
1.517106549364614
1.490713587487781
1.4652981427174976
1.4418377321603129
1.4193548387096775
1.3978494623655917
1.3773216031280548
1.3577712609970674
1.3401759530791788
1.3235581622678396
1.310850439882698
1.3010752688172045
1.2883675464320623
1.2756598240469208
1.2619745845552297
1.249266862170088
1.2365591397849462
1.2258064516129032
1.2150537634408602
1.2043010752688172
1.1935483870967742
1.1837732160312806
1.1779081133919844
1.173998044965787
1.1671554252199414
1.160312805474096
1.1534701857282503
1.1466275659824048
1.1407624633431086
1.1358748778103618
1.130987292277615
1.126099706744868
1.121212121212121
1.1163245356793745
1.1114369501466277
1.110459433040078
1.1114369501466277
1.110459433040078
1.10752688172043
1.104594330400782
1.1006842619745845
1.096774193548387
1.0928641251221896
1.0899315738025417
1.088954056695992
1.0928641251221896
1.104594330400782
1.1251221896383188
1.1573802541544478
1.2072336265884651
1.2766373411534702
1.3655913978494625
1.4731182795698925
1.5933528836754642
1.7223851417399805
1.8533724340175952
1.9824046920821117
2.1065493646138806
2.220918866080156
2.324535679374389
2.406647116324536
2.474095796676442
2.544477028347996
2.611925708699902
2.67644183773216
2.736070381231672
2.790811339198436
2.8396871945259043
2.8826979472140764
2.918866080156403
2.948191593352884
2.9696969696969697
2.978494623655914
2.9775171065493646
2.972629521016618
2.959921798631476
2.9374389051808407
2.905180840664712
2.86217008797654
2.8103616813294234
2.750733137829912
2.686217008797654
2.619745845552297
2.5532746823069403
2.4887585532746823
2.432062561094819
2.3812316715542523
2.3313782991202348
2.2844574780058653
2.2404692082111435
2.20039100684262
2.1622678396871944
2.126099706744868
2.090909090909091
2.0557184750733137
2.0205278592375366
1.9853372434017595
1.95405669599218
1.924731182795699
1.89247311827957
1.8592375366568916
1.825024437927664
1.790811339198436
1.7556207233626588
1.7204301075268815
1.6793743890518085
1.643206256109482
1.6177908113391983
1.590420332355816
1.564027370478983
1.542521994134897
1.52297165200391
1.501466275659824
1.479960899315738
1.458455522971652
1.4379276637341154
1.418377321603128
1.3998044965786902
1.3822091886608017
1.3655913978494625
1.3499511241446724
1.335288367546432
1.324535679374389
1.3157380254154447
1.3049853372434017
1.29227761485826
1.2795698924731185
1.267839687194526
1.2561094819159335
1.2443792766373412
1.2336265884652982
1.2238514173998043
1.2150537634408602
1.2052785923753666
1.1964809384164223
1.1915933528836755
1.1886608015640274
1.1837732160312806
1.1779081133919844
1.1710654936461389
1.164222873900293
1.1583577712609971
1.1534701857282503
1.1485826001955035
1.1231671554252198
1.0869990224828934
1.067448680351906
1.0586510263929618
1.0557184750733135
1.0527859237536656
1.0488758553274682
1.0439882697947214
1.040078201368524
1.0361681329423265
1.0342130987292275
1.0371456500488758
1.0478983382209188
1.0703812316715542
1.1094819159335287
1.1671554252199414
1.2336265884652982
1.310850439882698
1.412512218963832
1.5298142717497556
1.656891495601173
1.7878787878787878
1.916911045943304
2.0391006842619745
2.1515151515151514
2.254154447702835
2.347018572825025
2.4301075268817205
2.49266862170088
2.5434995112414467
2.598240469208211
2.652003910068426
2.701857282502444
2.747800586510264
2.787878787878788
2.822091886608016
2.849462365591398
2.868035190615836
2.877810361681329
2.878787878787879
2.8690127077223853
2.8484848484848486
2.819159335288368
2.7810361681329425
2.7341153470185726
2.679374389051808
2.618768328445748
2.555229716520039
2.489736070381232
2.4242424242424243
2.360703812316716
2.3010752688172045
2.24633431085044
2.19941348973607
2.1593352883675463
2.120234604105572
2.083088954056696
2.046920821114369
2.0117302052785924
1.9765395894428155
1.9413489736070384
1.906158357771261
1.870967741935484
1.835777126099707
1.8005865102639296
1.7644183773216031
1.7331378299120237
1.704789833822092
1.672531769305963
1.6392961876832846
1.606060606060606
1.5728250244379276
1.5405669599217986
1.509286412512219
1.478983382209189
1.4506353861192571
1.4242424242424243
1.3998044965786902
1.380254154447703
1.3636363636363635
1.3450635386119256
1.3264907135874875
1.3079178885630498
1.2903225806451613
1.2727272727272727
1.2561094819159335
1.2404692082111437
1.2258064516129032
1.2111436950146628
1.1964809384164223
1.1837732160312806
1.1749755620723363
1.164222873900293
1.1505376344086022
1.141739980449658
1.133919843597263
1.1231671554252198
1.1133919843597262
1.1055718475073313
1.096774193548387
1.0869990224828934
1.078201368523949
1.0713587487781036
1.0684261974584557
1.0654936461388074
1.0586510263929618
1.053763440860215
1.0488758553274682
1.043010752688172
1.0391006842619743
1.035190615835777
1.0312805474095796
1.0283479960899315
1.0263929618768328
1.0273704789833822
1.0283479960899315
1.0273704789833822
1.0254154447702837
1.0224828934506354
1.0195503421309873
1.0175953079178883
1.0195503421309873
1.029325513196481
1.0498533724340176
1.0869990224828934
1.142717497556207
1.2189638318670577
1.300097751710655
1.3900293255131966
1.5034213098729228
1.6304985337243405
1.7624633431085044
1.8944281524926687
2.021505376344086
2.1407624633431084
2.249266862170088
2.347996089931574
2.436950146627566
2.5161290322580645
2.5777126099706744
2.6285434995112413
2.6823069403714563
2.7341153470185726
2.782991202346041
2.8269794721407626
2.866080156402737
2.898338220918866
2.9237536656891496
2.941348973607038
2.9501466275659824
2.948191593352884
2.936461388074292
2.913978494623656
2.8826979472140764
2.8426197458455524
2.7947214076246336
2.7390029325513194
2.67644183773216
2.6099706744868034
2.5405669599217986
2.472140762463343
2.406647116324536
2.345063538611926
2.2883675464320627
2.2404692082111435
2.198435972629521
2.157380254154448
2.1192570869990224
2.0821114369501466
2.046920821114369
2.0117302052785924
1.9765395894428155
1.9413489736070384
1.906158357771261
1.8699902248289344
1.833822091886608
1.7976539589442817
1.7653958944281525
1.7360703812316716
1.7038123167155426
1.6695992179863148
1.635386119257087
1.6021505376344083
1.5698924731182795
1.5395894428152492
1.5102639296187683
1.4819159335288368
1.4545454545454546
1.4291300097751711
1.4086021505376345
1.3919843597262953
1.3734115347018572
1.3548387096774193
1.335288367546432
1.316715542521994
1.2991202346041055
1.2825024437927663
1.2658846529814272
1.2512218963831867
1.2365591397849462
1.2228739002932552
1.209188660801564
1.2003910068426198
1.1945259042033236
1.1857282502443791
1.1749755620723363
1.164222873900293
1.1534701857282503
1.1436950146627567
1.133919843597263
1.1251221896383188
1.1163245356793745
1.1085043988269794
1.1016617790811338
1.0977517106549364
1.0957966764418376
1.0928641251221896
1.0879765395894427
1.083088954056696
1.078201368523949
1.0733137829912025
1.0684261974584557
1.064516129032258
1.0596285434995112
1.0557184750733135
1.0518084066471165
1.0478983382209188
1.0478983382209188
1.0488758553274682
1.0478983382209188
1.0469208211143697
1.0469208211143697
1.0518084066471165
1.0654936461388074
1.0918866080156402
1.133919843597263
1.195503421309873
1.2776148582600195
1.3782991202346042
1.478005865102639
1.5796676441837731
1.6989247311827955
1.826001955034213
1.9521016617790807
2.072336265884653
2.182795698924731
2.283479960899316
2.3734115347018574
2.4545454545454546
2.5268817204301075
2.592375366568915
2.652003910068426
2.696969696969697
2.732160312805474
2.7702834799608995
2.8152492668621703
2.8611925708699903
2.89345063538612
2.9149560117302054
2.9266862170087977
2.927663734115347
2.917888563049853
2.8963831867057674
2.863147605083089
2.823069403714565
2.776148582600196
2.719452590420332
2.656891495601173
2.590420332355816
2.5210166177908118
2.452590420332356
2.386119257086999
2.32355816226784
2.264907135874878
2.2111436950146626
2.1622678396871944
2.117302052785924
2.078201368523949
2.042033235581622
2.004887585532747
1.9667644183773216
1.9296187683284456
1.89247311827957
1.855327468230694
1.8172043010752688
1.775171065493646
1.7311827956989247
1.6852394916911049
1.6383186705767352
1.5972629521016617
1.5610948191593352
1.521016617790811
1.4819159335288368
1.4457478005865103
1.4115347018572826
1.380254154447703
1.3499511241446724
1.3225806451612905
1.2961876832844574
1.2717497556207231
1.249266862170088
1.2297165200391007
1.2160312805474096
1.2052785923753666
1.1935483870967742
1.181818181818182
1.1700879765395895
1.1583577712609971
1.1466275659824048
1.1358748778103618
1.1251221896383188
1.1143695014662756
1.1036168132942326
1.093841642228739
1.0879765395894427
1.083088954056696
1.075268817204301
1.0664711632453567
1.056695992179863
1.04594330400782
1.035190615835777
1.0254154447702837
1.0156402737047898
1.0048875855327468
0.9951124144672532
0.9843597262952102
0.978494623655914
0.9736070381231672
0.9648093841642228
0.95405669599218
0.9442815249266864
0.9345063538611924
0.9257086999022482
0.919843597262952
0.916911045943304
0.9159335288367546
0.916911045943304
0.9188660801564028
0.9217986314760508
0.9286412512218964
0.9374389051808406
0.9452590420332356
0.95405669599218
0.967741935483871
0.9902248289345064
1.0263929618768328
1.0791788856304985
1.152492668621701
1.2453567937438903
1.356793743890518
1.4838709677419355
1.6021505376344083
1.715542521994135
1.8435972629521016
1.9745845552297163
2.101661779081134
2.218963831867057
2.326490713587488
2.423264907135875
2.509286412512219
2.587487781036168
2.6578690127077222
2.721407624633431
2.779081133919844
2.8211143695014664
2.8533724340175954
2.8885630498533725
2.921798631476051
2.9501466275659824
2.9716520039100685
2.98435972629521
2.9872922776148583
2.9804496578690127
2.961876832844575
2.932551319648094
2.89345063538612
2.8475073313782997
2.7966764418377323
2.7390029325513194
2.67644183773216
2.6129032258064515
2.550342130987292
2.490713587487781
2.4349951124144678
2.383186705767351
2.3362658846529816
2.2932551319648096
2.254154447702835
2.2160312805474094
2.1818181818181817
2.150537634408602
2.1163245356793743
2.080156402737048
2.043010752688172
2.003910068426197
1.963831867057673
1.9237536656891496
1.8836754643206255
1.8435972629521016
1.8035190615835777
1.7634408602150538
1.729227761485826
1.6979472140762464
1.664711632453568
1.6304985337243405
1.5962854349951123
1.564027370478983
1.5327468230694037
1.5024437927663734
1.474095796676442
1.447702834799609
1.4222873900293256
1.3978494623655917
1.375366568914956
1.3587487781036167
1.3450635386119256
1.3294232649071358
1.313782991202346
1.2981427174975562
1.2825024437927663
1.267839687194526
1.2541544477028348
1.2404692082111437
1.227761485826002
1.2160312805474096
1.203323558162268
1.1945259042033236
1.187683284457478
1.1779081133919844
1.1681329423264908
1.1573802541544478
1.147605083088954
1.1378299120234605
1.1280547409579669
1.1192570869990224
1.110459433040078
1.1026392961876832
1.0948191593352885
1.0879765395894427
1.0850439882697946
1.0840664711632453
1.0811339198435972
1.0772238514173995
1.072336265884653
1.0664711632453567
1.06158357771261
1.056695992179863
1.0527859237536656
1.0488758553274682
1.0439882697947214
1.040078201368524
1.0391006842619743
1.0391006842619743
1.0371456500488758
1.035190615835777
1.0371456500488758
1.0469208211143697
1.0684261974584557
1.1065493646138806
1.164222873900293
1.2443792766373412
1.3450635386119256
1.4633431085043989
1.5943304007820136
1.7145650048875856
1.827956989247312
1.9521016617790807
2.0772238514174
2.1974584555229715
2.3088954056695994
2.410557184750733
2.5024437927663734
2.5865102639296187
2.662756598240469
2.732160312805474
2.795698924731183
2.843597262952102
2.881720430107527
2.921798631476051
2.959921798631476
2.994134897360704
3.021505376344086
3.0410557184750733
3.050830889540567
3.0498533724340176
3.038123167155425
3.01564027370479
2.981427174975562
2.936461388074292
2.886608015640274
2.83088954056696
2.766373411534702
2.695014662756598
2.6207233626588464
2.5454545454545454
2.4711632453567938
2.40078201368524
2.3362658846529816
2.27761485826002
2.2238514173998043
2.175953079178885
2.1358748778103616
2.1006842619745845
2.064516129032258
2.0283479960899315
1.991202346041056
1.95405669599218
1.9159335288367547
1.8778103616813293
1.8387096774193548
1.7986314760508308
1.7673509286412512
1.7409579667644184
1.710654936461388
1.683284457478006
1.656891495601173
1.6275659824046922
1.5972629521016617
1.5669599217986314
1.5376344086021505
1.509286412512219
1.4819159335288368
1.456500488758553
1.43108504398827
1.4066471163245358
1.3841642228739004
1.367546432062561
1.35386119257087
1.3372434017595307
1.3206256109481915
1.3049853372434017
1.289345063538612
1.2746823069403714
1.2609970674486803
1.2473118279569892
1.2346041055718475
1.2218963831867058
1.2052785923753666
1.198435972629521
1.1906158357771262
1.1759530791788857
1.1652003910068427
1.155425219941349
1.1466275659824048
1.1378299120234605
1.130987292277615
1.1241446725317692
1.1173020527859236
1.1114369501466277
1.1055718475073313
1.1026392961876832
1.1016617790811338
1.099706744868035
1.096774193548387
1.093841642228739
1.0909090909090908
1.0879765395894427
1.0850439882697946
1.0821114369501466
1.0791788856304985
1.0772238514173995
1.0772238514173995
1.0772238514173995
1.0772238514173995
1.0772238514173995
1.0772238514173995
1.072336265884653
1.0733137829912025
1.0811339198435972
1.0987292277614855
1.130987292277615
1.1808406647116323
1.249266862170088
1.3372434017595307
1.4418377321603129
1.542521994134897
1.6422287390029326
1.7575757575757576
1.8778103616813293
1.9960899315738023
2.10850439882698
2.212121212121212
2.3059628543499517
2.3900293255131966
2.5004887585532747
2.565982404692082
2.6207233626588464
2.681329423264907
2.721407624633431
2.760508308895406
2.795698924731183
2.8269794721407626
2.852394916911046
2.8699902248289346
2.8797653958944283
2.8797653958944283
2.8699902248289346
2.850439882697948
2.8211143695014664
2.7839687194525906
2.740957966764418
2.6901270772238512
2.632453567937439
2.5386119257087
2.4750733137829912
2.4134897360703813
2.3274682306940373
2.275659824046921
2.228739002932551
2.1867057673509285
2.133919843597263
2.101661779081134
2.069403714565005
2.021505376344086
1.989247311827957
1.9560117302052784
1.9227761485826005
1.889540566959922
1.855327468230694
1.8211143695014664
1.7869012707722385
1.7526881720430108
1.7243401759530792
1.6979472140762464
1.6695992179863148
1.640273704789834
1.6109481915933528
1.581622678396872
1.5542521994134897
1.5278592375366569
1.5024437927663734
1.478005865102639
1.455522971652004
1.434017595307918
1.4173998044965788
1.4027370478983383
1.3861192570869991
1.3695014662756595
1.3528836754643203
1.3372434017595307
1.3225806451612905
1.3079178885630498
1.2942326490713587
1.2805474095796676
1.2688172043010753
1.2570869990224829
1.24633431085044
1.238514173998045
1.2316715542521994
1.2228739002932552
1.2130987292277615
1.2023460410557183
1.1915933528836755
1.181818181818182
1.1730205278592376
1.1652003910068427
1.1573802541544478
1.1505376344086022
1.1436950146627567
1.1397849462365592
1.13880742913001
1.1368523949169111
1.1378299120234605
1.1456500488758554
1.164222873900293
1.1974584555229717
1.2482893450635386
1.316715542521994
1.4037145650048877
1.504398826979472
1.6158357771260996
1.732160312805474
1.8347996089931573
1.927663734115347
2.026392961876833
2.1221896383186705
2.2111436950146626
2.29227761485826
2.364613880742913
2.429130009775171
2.486803519061584
2.5386119257087
2.58455522971652
2.625610948191593
2.654936461388074
2.67644183773216
2.697947214076246
2.7155425219941347
2.727272727272727
2.730205278592375
2.724340175953079
2.708699902248289
2.6823069403714563
2.64613880742913
2.601173020527859
2.549364613880743
2.4916911045943304
2.4359726295210167
2.3812316715542523
2.32355816226784
2.264907135874878
2.209188660801564
2.158357771260997
2.112414467253177
2.070381231671554
2.032258064516129
1.9980449657869013
1.964809384164223
1.932551319648094
1.9042033235581624
1.8778103616813293
1.8484848484848484
1.8172043010752688
1.7849462365591398
1.7526881720430108
1.7204301075268815
1.6871945259042034
1.6549364613880744
1.6226783968719452
1.5923753665689149
1.5620723362658846
1.5327468230694037
1.509286412512219
1.4887585532746823
1.4652981427174976
1.4418377321603129
1.418377321603128
1.3949169110459434
1.3734115347018572
1.3528836754643203
1.3333333333333333
1.3157380254154447
1.2991202346041055
1.2834799608993157
1.2727272727272727
1.2649071358748778
1.2541544477028348
1.241446725317693
1.2287390029325511
1.2160312805474096
1.203323558162268
1.1915933528836755
1.1798631476050832
1.1700879765395895
1.160312805474096
1.1505376344086022
1.141739980449658
1.1368523949169111
1.133919843597263
1.1290322580645162
1.1231671554252198
1.1163245356793745
1.1094819159335287
1.1026392961876832
1.0957966764418376
1.0899315738025417
1.0840664711632453
1.078201368523949
1.0733137829912025
1.0713587487781036
1.0713587487781036
1.0694037145650048
1.0664711632453567
1.0478983382209188
1.021505376344086
1.0068426197458455
0.9990224828934506
0.9941348973607038
0.9902248289345064
0.9872922776148584
0.9863147605083088
0.9882697947214076
0.9931573802541545
0.9960899315738024
0.9980449657869012
1.0
1.0019550342130987
1.0039100684261977
1.0048875855327468
1.0058651026392962
1.0058651026392962
1.0058651026392962
1.0039100684261977
1.002932551319648
1.0048875855327468
1.0117302052785924
1.0224828934506354
1.0439882697947214
1.0811339198435972
1.1378299120234605
1.2179863147605083
1.321603128054741
1.4467253176930597
1.5865102639296187
1.7360703812316716
1.889540566959922
2.021505376344086
2.1388074291300097
2.26197458455523
2.3822091886608017
2.4946236559139785
2.598240469208211
2.69208211143695
2.7781036168132944
2.8563049853372435
2.927663734115347
2.992179863147605
3.0498533724340176
3.1006842619745845
3.134897360703812
3.157380254154448
3.1808406647116323
3.20039100684262
3.212121212121212
3.21505376344086
3.207233626588465
3.187683284457478
3.156402737047898
3.114369501466276
3.06158357771261
3.0
2.9374389051808407
2.8729227761485827
2.8025415444770285
2.730205278592375
2.6578690127077222
2.5884652981427174
2.52297165200391
2.462365591397849
2.406647116324536
2.356793743890518
2.310850439882698
2.267839687194526
2.225806451612903
2.188660801564027
2.1544477028347995
2.117302052785924
2.078201368523949
2.038123167155425
1.997067448680352
1.9560117302052784
1.913978494623656
1.871945259042033
1.83088954056696
1.790811339198436
1.7526881720430108
1.7204301075268815
1.6920821114369502
1.66177908113392
1.6304985337243405
1.6001955034213098
1.5718475073313782
1.543499511241447
1.517106549364614
1.4916911045943304
1.4672531769305963
1.4428152492668622
1.4203323558162269
1.3998044965786902
1.383186705767351
1.3695014662756595
1.3528836754643203
1.3362658846529814
1.3186705767350928
1.3010752688172045
1.284457478005865
1.2688172043010753
1.2531769305962854
1.238514173998045
1.224828934506354
1.2121212121212122
1.2023460410557183
1.195503421309873
1.1857282502443791
1.1730205278592376
1.160312805474096
1.1466275659824048
1.1329423264907137
1.118279569892473
1.1026392961876832
1.0850439882697946
1.0664711632453567
1.04594330400782
1.0254154447702837
1.010752688172043
0.9990224828934506
0.9843597262952102
0.9687194525904204
0.95405669599218
0.9413489736070382
0.9305962854349952
0.9208211143695014
0.913978494623656
0.9090909090909092
0.9071358748778104
0.906158357771261
0.9090909090909092
0.9159335288367546
0.9237536656891496
0.9345063538611924
0.9521016617790812
0.981427174975562
1.0263929618768328
1.0899315738025417
1.1720430107526882
1.273704789833822
1.3919843597262953
1.521994134897361
1.6588465298142718
1.7790811339198436
1.8885630498533723
2.004887585532747
2.1192570869990224
2.225806451612903
2.321603128054741
2.406647116324536
2.4819159335288368
2.547409579667644
2.6050830889540566
2.654936461388074
2.697947214076246
2.727272727272727
2.7468230694037143
2.768328445747801
2.7859237536656893
2.798631476050831
2.803519061583578
2.7996089931573804
2.7859237536656893
2.7624633431085046
2.730205278592375
2.689149560117302
2.641251221896383
2.589442815249267
2.5386119257087
2.489736070381232
2.4389051808406648
2.389051808406647
2.3411534701857284
2.2961876832844577
2.2531769305962857
2.212121212121212
2.1739980449657867
2.136852394916911
2.099706744868035
2.0635386119257086
2.0303030303030303
1.9980449657869013
1.9618768328445748
1.9237536656891496
1.884652981427175
1.844574780058651
1.804496578690127
1.7644183773216031
1.726295210166178
1.689149560117302
1.653958944281525
1.619745845552297
1.5865102639296187
1.5610948191593352
1.5395894428152492
1.5180840664711632
1.4975562072336266
1.478005865102639
1.4604105571847508
1.4437927663734116
1.4281524926686218
1.412512218963832
1.396871945259042
1.3822091886608017
1.3685239491691104
1.359726295210166
1.3528836754643203
1.3450635386119256
1.3372434017595307
1.3294232649071358
1.321603128054741
1.3128054740957966
1.3040078201368523
1.2942326490713587
1.284457478005865
1.273704789833822
1.262952101661779
1.2561094819159335
1.2502443792766371
1.241446725317693
1.2316715542521994
1.2209188660801564
1.2111436950146628
1.2003910068426198
1.1906158357771262
1.181818181818182
1.1730205278592376
1.1652003910068427
1.1573802541544478
1.1505376344086022
1.147605083088954
1.1466275659824048
1.1436950146627567
1.1407624633431086
1.1368523949169111
1.1329423264907137
1.1280547409579669
1.1231671554252198
1.1192570869990224
1.1163245356793745
1.1163245356793745
1.1231671554252198
