ppg
1.4320625610948192
1.392961876832845
1.356793743890518
1.321603128054741
1.2883675464320623
1.2561094819159335
1.2258064516129032
1.1974584555229717
1.1730205278592376
1.155425219941349
1.141739980449658
1.1290322580645162
1.118279569892473
1.1085043988269794
1.1016617790811338
1.0977517106549364
1.0957966764418376
1.0948191593352885
1.0948191593352885
1.0957966764418376
1.0977517106549364
1.1016617790811338
1.1065493646138806
1.1094819159335287
1.110459433040078
1.1114369501466277
1.1114369501466277
1.1114369501466277
1.1114369501466277
1.1114369501466277
1.1114369501466277
1.1114369501466277
1.1094819159335287
1.1055718475073313
1.1055718475073313
1.1094819159335287
1.1173020527859236
1.1348973607038124
1.1710654936461389
1.2326490713587488
1.3206256109481915
1.4330400782013686
1.565982404692082
1.710654936461388
1.8592375366568916
2.0009775171065494
2.117302052785924
2.212121212121212
2.304007820136853
2.3822091886608017
2.441837732160313
2.484848484848485
2.512218963831867
2.525904203323558
2.5268817204301075
2.515151515151515
2.493646138807429
2.463343108504399
2.4252199413489737
2.383186705767351
2.3391984359726297
2.2883675464320627
2.232649071358749
2.1739980449657867
2.113391984359726
2.053763440860215
1.9960899315738023
1.943304007820137
1.8944281524926687
1.8494623655913975
1.8103616813294232
1.780058651026393
1.7546432062561097
1.726295210166178
1.6989247311827955
1.672531769305963
1.64613880742913
1.619745845552297
1.5943304007820136
1.56891495601173
1.544477028347996
1.5190615835777126
1.4936461388074291
1.4701857282502444
1.4516129032258065
1.435972629521017
1.418377321603128
1.401759530791789
1.3851417399804498
1.3665689149560116
1.3470185728250244
1.327468230694037
1.3088954056695992
1.2913000977517106
1.273704789833822
1.2570869990224829
1.2443792766373412
1.2326490713587488
1.217008797653959
1.1994134897360704
1.1798631476050832
1.1593352883675463
1.1397849462365592
1.121212121212121
1.1065493646138806
1.1016617790811338
1.1114369501466277
1.144672531769306
1.2052785923753666
1.278592375366569
1.3695014662756595
1.4868035190615836
1.6187683284457477
1.7556207233626588
1.8885630498533723
2.0127077223851417
2.1221896383186705
2.2111436950146626
2.2795698924731185
2.332355816226784
2.36950146627566
2.389051808406647
2.3958944281524928
2.393939393939394
2.3822091886608017
2.360703812316716
2.3313782991202348
2.2932551319648096
2.247311827956989
2.1955034213098727
2.139784946236559
2.081133919843597
2.021505376344086
1.9716520039100685
1.927663734115347
1.8797653958944285
1.8318670576735088
1.7869012707722385
1.7458455522971652
1.710654936461388
1.6803519061583578
1.6520039100684265
1.6256109481915937
1.5992179863147604
1.5728250244379276
1.5483870967741935
1.5298142717497556
1.5141739980449658
1.495601173020528
1.4750733137829912
1.4545454545454546
1.434017595307918
1.414467253176931
1.3978494623655917
1.3822091886608017
1.3685239491691104
1.3548387096774193
1.3421309872922775
1.3313782991202343
1.321603128054741
1.3079178885630498
1.2932551319648091
1.2776148582600195
1.2639296187683284
1.2502443792766371
1.2375366568914956
1.224828934506354
1.2121212121212122
1.1994134897360704
1.18475073313783
1.166177908113392
1.1515151515151516
1.1407624633431086
1.133919843597263
1.1358748778103618
1.152492668621701
1.1915933528836755
1.2580645161290325
1.35386119257087
1.4731182795698925
1.6080156402737047
1.7497556207233629
1.8905180840664717
2.007820136852395
2.104594330400782
2.1955034213098727
2.2737047898338223
2.340175953079179
2.391006842619746
2.426197458455523
2.44672531769306
2.455522971652004
2.4545454545454546
2.4457478005865103
2.4271749755620724
2.398826979472141
2.366568914956012
2.329423264907136
2.2844574780058653
2.2346041055718477
2.29227761485826
2.4027370478983383
2.429130009775171
2.41544477028348
2.3841642228739004
2.347018572825025
2.3088954056695994
2.2737047898338223
2.2453567937438903
2.219941348973607
2.1925708699902247
2.166177908113392
2.1388074291300097
2.113391984359726
2.088954056695992
2.0635386119257086
2.040078201368524
2.018572825024438
1.9980449657869013
1.9804496578690127
1.964809384164223
1.95405669599218
1.9442815249266865
1.9305962854349952
1.9149560117302051
1.8983382209188664
1.8797653958944285
1.8621700879765395
1.8465298142717497
1.8318670576735088
1.818181818181818
1.804496578690127
1.7917888563049853
1.7839687194525904
1.775171065493646
1.7624633431085044
1.747800586510264
1.7311827956989247
1.7126099706744868
1.694037145650049
1.6764418377321604
1.664711632453568
1.664711632453568
1.6823069403714566
1.7233626588465298
1.7927663734115349
1.871945259042033
1.964809384164223
2.086021505376344
2.222873900293255
2.364613880742913
2.501466275659824
2.625610948191593
2.732160312805474
2.820136852394917
2.8885630498533725
2.940371456500489
2.9775171065493646
2.9980449657869013
3.006842619745845
3.007820136852395
2.99902248289345
2.9804496578690127
2.9530791788856305
2.916911045943304
2.873900293255132
2.825024437927664
2.7722385141739982
2.7155425219941347
2.656891495601173
2.5972629521016617
2.544477028347996
2.4975562072336266
2.450635386119257
2.403714565004888
2.3597262952101663
2.3196480938416424
2.2825024437927666
2.2502443792766376
2.2218963831867056
2.1955034213098727
2.16911045943304
2.1436950146627565
2.1221896383186705
2.103616813294233
2.0840664711632453
2.065493646138808
2.047898338220919
2.0303030303030303
2.0127077223851417
1.994134897360704
1.9745845552297163
1.9560117302052784
1.9374389051808407
1.916911045943304
1.8973607038123168
1.8836754643206255
1.8729227761485825
1.8592375366568916
1.844574780058651
1.8299120234604105
1.8162267839687196
1.8025415444770283
1.7869012707722385
1.7702834799608993
1.750733137829912
1.7282502443792769
1.7057673509286413
1.6911045943304008
1.6852394916911049
1.6852394916911049
1.699902248289345
1.7380254154447703
1.804496578690127
1.8963831867057677
2.010752688172043
2.1407624633431084
2.278592375366569
2.41544477028348
2.544477028347996
2.6578690127077222
2.7419354838709675
2.8044965786901277
2.860215053763441
2.9042033235581624
2.935483870967742
2.9530791788856305
2.959921798631476
2.956989247311828
2.943304007820137
2.919843597262952
2.887585532746823
2.844574780058651
2.80058651026393
2.7546432062561097
2.7008797653958942
2.643206256109482
2.58455522971652
2.527859237536657
2.474095796676442
2.4242424242424243
2.377321603128055
2.332355816226784
2.289345063538612
2.2482893450635384
2.2082111436950145
2.1739980449657867
2.1436950146627565
2.1114369501466275
2.0772238514174
2.043010752688172
2.0087976539589443
1.9765395894428155
1.945259042033236
1.913978494623656
1.8836754643206255
1.8533724340175952
1.825024437927664
1.8035190615835777
1.7839687194525904
1.7605083088954057
1.7350928641251222
1.710654936461388
1.689149560117302
1.6705767350928642
1.651026392961877
1.6314760508308896
1.6109481915933528
1.5894428152492668
1.5679374389051808
1.5513196480938416
1.5386119257087
1.521016617790811
1.499511241446725
1.4750733137829912
1.4516129032258065
1.43108504398827
1.41544477028348
1.4066471163245358
1.4086021505376345
1.4281524926686218
1.4701857282502444
1.5386119257087
1.6187683284457477
1.7116324535679377
1.827956989247312
1.956989247311828
2.0879765395894427
2.2140762463343107
2.329423264907136
2.4301075268817205
2.512218963831867
2.5747800586510263
2.619745845552297
2.6480938416422286
2.662756598240469
2.664711632453568
2.656891495601173
2.6392961876832843
2.613880742913001
2.578690127077224
2.535679374389052
2.4858260019550342
2.4301075268817205
2.3714565004887587
2.312805474095797
2.257086999022483
2.203323558162268
2.1593352883675463
2.121212121212121
2.0821114369501466
2.0449657869012707
2.0097751710654936
1.9775171065493649
1.945259042033236
1.9149560117302051
1.8866080156402736
1.86119257086999
1.835777126099707
1.812316715542522
1.796676441837732
1.7839687194525904
1.76930596285435
1.75366568914956
1.7409579667644184
1.7302052785923754
1.7204301075268815
1.7116324535679377
1.7057673509286413
1.7018572825024438
1.699902248289345
1.699902248289345
1.7028347996089932
1.7086999022482894
1.7135874877810362
1.7165200391006843
1.7174975562072337
1.718475073313783
1.718475073313783
1.7174975562072337
1.7145650048875856
1.7096774193548387
1.7028347996089932
1.696969696969697
1.694037145650049
1.696969696969697
1.7086999022482894
1.7360703812316716
1.782991202346041
1.855327468230694
1.951124144672532
2.067448680351906
2.196480938416422
2.329423264907136
2.458455522971652
2.578690127077224
2.668621700879765
2.7370478983382207
2.7947214076246336
2.838709677419355
2.877810361681329
2.90811339198436
2.9286412512218964
2.9374389051808407
2.935483870967742
2.9227761485826003
2.897360703812317
2.860215053763441
2.812316715542522
2.7565982404692084
2.701857282502444
2.644183773216031
2.5806451612903225
2.515151515151515
2.449657869012708
2.388074291300098
2.3304007820136854
2.278592375366569
2.233626588465298
2.1945259042033234
2.1593352883675463
2.1251221896383186
2.09188660801564
2.0635386119257086
2.0391006842619745
2.010752688172043
1.9775171065493649
1.943304007820137
1.9120234604105573
1.8836754643206255
1.8592375366568916
1.835777126099707
1.8132942326490715
1.7917888563049853
1.7702834799608993
1.7526881720430108
1.737047898338221
1.7194525904203324
1.7018572825024438
1.6823069403714566
1.6598240469208212
1.6383186705767352
1.616813294232649
1.5923753665689149
1.5698924731182795
1.5503421309872922
1.5317693059628543
1.5131964809384164
1.498533724340176
1.4858260019550342
1.469208211143695
1.4496578690127078
1.4320625610948192
1.423264907135875
1.4320625610948192
1.4672531769305963
1.5347018572825024
1.6363636363636365
1.7673509286412512
1.919843597262952
2.0625610948191597
2.1955034213098727
2.3382209188660803
2.47702834799609
2.6021505376344085
2.70772238514174
2.790811339198436
2.852394916911046
2.895405669599218
2.921798631476051
2.930596285434995
2.9257086999022484
2.90811339198436
2.881720430107527
2.8484848484848486
2.8054740957966766
2.752688172043011
2.6930596285435
2.627565982404692
2.560117302052786
2.4916911045943304
2.4252199413489737
2.361681329423265
2.3010752688172045
2.242424242424242
2.1925708699902247
2.150537634408602
2.10752688172043
2.0684261974584555
2.0361681329423265
2.006842619745845
1.978494623655914
1.951124144672532
1.9237536656891496
1.8983382209188664
1.8748778103616808
1.8523949169110456
1.8299120234604105
1.812316715542522
1.796676441837732
1.7781036168132942
1.7565982404692082
1.732160312805474
1.7096774193548387
1.6901270772238517
1.672531769305963
1.6549364613880744
1.6383186705767352
1.6217008797653958
1.6041055718475072
1.590420332355816
1.5777126099706744
1.5610948191593352
1.541544477028348
1.521994134897361
1.5034213098729228
1.482893450635386
1.4604105571847508
1.4379276637341154
1.4164222873900294
1.4037145650048877
1.4076246334310851
1.4301075268817205
1.4750733137829912
1.552297165200391
1.6637341153470186
1.8035190615835777
1.964809384164223
2.1388074291300097
2.312805474095797
2.4780058651026398
2.627565982404692
2.757575757575758
2.866080156402737
2.952101661779081
3.010752688172043
3.050830889540567
3.085043988269794
3.1094819159335287
3.120234604105572
3.1163245356793743
3.0977517106549364
3.067448680351906
3.024437927663734
2.970674486803519
2.911045943304008
2.8475073313782997
2.7869012707722387
2.7282502443792764
2.665689149560117
2.603128054740958
2.5434995112414467
2.486803519061584
2.4330400782013686
2.3822091886608017
2.335288367546432
2.2932551319648096
2.254154447702835
2.2218963831867056
2.193548387096774
2.1681329423264906
2.146627565982405
2.1251221896383186
2.101661779081134
2.0762463343108504
2.0518084066471163
2.029325513196481
2.005865102639296
1.9824046920821117
1.959921798631476
1.9364613880742916
1.9120234604105573
1.8914956011730208
1.8758553274682308
1.8631476050830889
1.8484848484848484
1.8318670576735088
1.81524926686217
1.7976539589442817
1.7781036168132942
1.7575757575757576
1.737047898338221
1.7174975562072337
1.6989247311827955
1.6793743890518085
1.66177908113392
1.6471163245356797
1.6334310850439884
1.6265884652981428
1.6363636363636365
1.6705767350928642
1.7360703812316716
1.8377321603128052
1.9726295210166176
2.134897360703812
2.313782991202346
2.501466275659824
2.662756598240469
2.803519061583578
2.952101661779081
3.090909090909091
3.2111436950146626
3.3118279569892475
3.3919843597262958
3.4516129032258065
3.49266862170088
3.5161290322580645
3.5239491691104594
3.517106549364614
3.4946236559139785
3.4594330400782014
3.4144672531769307
3.3597262952101663
3.2961876832844577
3.2267839687194524
3.15347018572825
3.0772238514174
3.0009775171065494
2.9286412512218964
2.860215053763441
2.795698924731183
2.73802541544477
2.689149560117302
2.6471163245356792
2.6080156402737047
2.570869990224829
2.535679374389052
2.5004887585532747
2.464320625610948
2.4281524926686218
2.3958944281524928
2.366568914956012
2.3382209188660803
2.30791788856305
2.2766373411534704
2.2502443792766376
2.2248289345063537
2.198435972629521
2.172043010752688
2.145650048875855
2.118279569892473
2.089931573802541
2.064516129032258
2.0410557184750733
2.016617790811339
1.991202346041056
1.964809384164223
1.9423264907135875
1.921798631476051
1.8983382209188664
1.871945259042033
1.842619745845552
1.7086999022482894
1.5239491691104594
1.4203323558162269
1.359726295210166
1.3264907135874875
1.3196480938416422
1.3440860215053765
1.4037145650048877
1.4809384164222874
1.5796676441837731
1.718475073313783
1.8866080156402736
2.071358748778104
2.260997067448681
2.4457478005865103
2.616813294232649
2.76930596285435
2.898338220918866
3.003910068426197
3.0879765395894427
3.1407624633431084
3.172043010752688
3.1955034213098727
3.206256109481916
3.2023460410557183
3.1847507331378297
3.150537634408602
3.099706744868035
3.035190615835777
2.960899315738025
2.8797653958944283
2.7966764418377323
2.713587487781036
2.638318670576735
2.567937438905181
2.495601173020528
2.4242424242424243
2.357771260997068
2.2961876832844577
2.242424242424242
2.1915933528836757
2.1407624633431084
2.090909090909091
2.0410557184750733
1.9902248289345064
1.946236559139785
1.9071358748778104
1.8631476050830889
1.8162267839687196
1.7683284457478006
1.7194525904203324
1.6695992179863148
1.6217008797653958
1.5747800586510263
1.5288367546432062
1.4848484848484849
1.4428152492668622
1.401759530791789
1.367546432062561
1.33822091886608
1.3069403714565004
1.2746823069403714
1.241446725317693
1.2072336265884651
1.173998044965787
1.142717497556207
1.1114369501466277
1.0811339198435972
1.050830889540567
1.0205278592375366
0.997067448680352
0.975562072336266
0.9481915933528836
0.9217986314760508
0.9032258064516128
0.9012707722385142
0.9257086999022482
0.9853372434017597
1.0840664711632453
1.2189638318670577
1.3851417399804498
1.573802541544477
1.7732160312805474
1.9472140762463344
2.099706744868035
2.2561094819159337
2.39980449657869
2.5210166177908118
2.6158357771261
2.6881720430107525
2.739980449657869
2.7702834799608995
2.782991202346041
2.779081133919844
2.757575757575758
2.7233626588465296
2.678396871945259
2.6207233626588464
2.5513196480938416
2.4711632453567938
2.3841642228739004
2.2932551319648096
2.20039100684262
2.110459433040078
2.026392961876833
1.9472140762463344
1.8729227761485825
1.8113391984359728
1.7605083088954057
1.710654936461388
1.66177908113392
1.6148582600195502
1.56891495601173
1.5239491691104594
1.4809384164222874
1.4408602150537635
1.4037145650048877
1.3695014662756595
1.3372434017595307
1.3079178885630498
1.2854349951124144
1.2668621700879763
1.2453567937438903
1.2218963831867058
1.1974584555229717
1.1730205278592376
1.1495601173020529
1.1300097751710656
1.115347018572825
1.104594330400782
1.0977517106549364
1.093841642228739
1.0948191593352885
1.0987292277614855
1.104594330400782
1.110459433040078
1.1133919843597262
1.1143695014662756
1.1133919843597262
1.1094819159335287
1.1026392961876832
1.0977517106549364
1.1016617790811338
1.1202346041055715
1.1612903225806452
1.2189638318670577
1.2991202346041055
1.4193548387096775
1.576735092864125
1.7634408602150538
1.9696969696969695
2.1837732160312804
2.3919843597262958
2.5855327468230693
2.755620723362659
2.898338220918866
3.0127077223851417
3.0869990224828934
3.132942326490713
3.1700879765395893
3.1945259042033234
3.204301075268817
3.196480938416422
3.1710654936461387
3.1300097751710654
3.074291300097752
3.006842619745845
2.930596285434995
2.8484848484848486
2.7624633431085046
2.681329423264907
2.6050830889540566
2.5268817204301075
2.4516129032258065
2.378299120234604
2.3098729227761488
2.24633431085044
2.188660801564027
2.1358748778103616
2.0879765395894427
2.043010752688172
1.9990224828934504
1.9608993157380252
1.9266862170087975
1.89247311827957
1.857282502443793
1.8211143695014664
1.7859237536656891
1.7517106549364614
1.7174975562072337
1.6813294232649072
1.64613880742913
1.611925708699902
1.5786901270772238
1.547409579667644
1.520039100684262
1.4946236559139785
1.4652981427174976
1.435972629521017
1.4056695992179864
1.375366568914956
1.3479960899315735
1.3235581622678396
1.2981427174975562
1.2727272727272727
1.241446725317693
1.2140762463343109
1.1974584555229717
1.1779081133919844
1.1544477028347997
1.1329423264907137
1.1173020527859236
1.1163245356793745
1.1397849462365592
1.1935483870967742
1.2834799608993157
1.409579667644184
1.5698924731182795
1.7575757575757576
1.9589442815249267
2.1358748778103616
2.2932551319648096
2.4545454545454546
2.6041055718475072
2.7341153470185726
2.838709677419355
2.917888563049853
2.972629521016618
3.002932551319648
3.0117302052785924
3.002932551319648
2.975562072336266
2.935483870967742
2.8856304985337244
2.823069403714565
2.7517106549364616
2.673509286412512
2.589442815249267
2.5024437927663734
2.4144672531769307
2.3274682306940373
2.2453567937438903
2.1681329423264906
2.096774193548387
2.03128054740958
1.975562072336266
1.9296187683284456
1.881720430107527
1.8318670576735088
1.7859237536656891
1.7429130009775171
1.7018572825024438
1.6608015640273706
1.6236559139784943
1.5884652981427174
1.5562072336265884
1.5317693059628543
1.5161290322580645
1.501466275659824
1.4819159335288368
1.4594330400782014
1.435972629521017
1.4105571847507332
1.3851417399804498
1.3607038123167154
1.33822091886608
1.3157380254154447
1.2942326490713587
1.2727272727272727
1.2531769305962854
1.2394916911045943
1.2267839687194526
1.2121212121212122
1.1964809384164223
1.1798631476050832
1.1622678396871946
1.1407624633431086
1.1173020527859236
1.093841642228739
1.0713587487781036
1.0527859237536656
1.043010752688172
1.0469208211143697
1.0694037145650048
1.118279569892473
1.1994134897360704
1.313782991202346
1.4594330400782014
1.6275659824046922
1.8093841642228736
1.992179863147605
2.1652003910068425
2.320625610948192
2.4545454545454546
2.5669599217986314
2.6451612903225805
2.699902248289345
2.745845552297165
2.777126099706745
2.792766373411535
2.792766373411535
2.7781036168132944
2.747800586510264
2.705767350928641
2.653958944281525
2.5943304007820136
2.527859237536657
2.463343108504399
2.398826979472141
2.3284457478005867
2.257086999022483
2.188660801564027
2.12316715542522
2.0625610948191597
2.006842619745845
1.9530791788856303
1.903225806451613
1.8592375366568916
1.818181818181818
1.7790811339198436
1.7468230694037146
1.7174975562072337
1.686217008797654
1.6549364613880744
1.6256109481915937
1.5962854349951123
1.5669599217986314
1.5395894428152492
1.5141739980449658
1.490713587487781
1.4682306940371457
1.4457478005865103
1.4271749755620724
1.404692082111437
1.380254154447703
1.3626588465298142
1.343108504398827
1.3225806451612905
1.303030303030303
1.284457478005865
1.2658846529814272
1.2453567937438903
1.2267839687194526
1.2101661779081134
1.1974584555229717
1.1857282502443791
1.1681329423264908
1.1466275659824048
1.1221896383186705
1.099706744868035
1.0840664711632453
1.0791788856304985
1.0918866080156402
1.1319648093841643
1.2043010752688172
1.310850439882698
1.4486803519061584
1.5865102639296187
1.7282502443792769
1.895405669599218
2.071358748778104
2.241446725317693
2.3958944281524928
2.530791788856305
2.6451612903225805
2.735092864125122
2.80058651026393
2.844574780058651
2.870967741935484
2.877810361681329
2.8690127077223853
2.849462365591398
2.820136852394917
2.7810361681329425
2.7311827956989245
2.670576735092864
2.6021505376344085
2.5268817204301075
2.447702834799609
2.36950146627566
2.294232649071359
2.2218963831867056
2.160312805474096
2.1055718475073317
2.0518084066471163
2.0
1.9521016617790807
1.9071358748778104
1.866080156402737
1.826001955034213
1.7888563049853372
1.7546432062561097
1.7233626588465298
1.6911045943304008
1.6627565982404693
1.6363636363636365
1.608993157380254
1.5796676441837731
1.5503421309872922
1.521016617790811
1.4916911045943304
1.4643206256109482
1.439882697947214
1.4173998044965788
1.3949169110459434
1.3743890518084063
1.35386119257087
1.3362658846529814
1.321603128054741
1.303030303030303
1.2834799608993157
1.262952101661779
1.2424242424242424
1.2218963831867058
1.2023460410557183
1.1808406647116323
1.1573802541544478
1.130987292277615
1.1055718475073313
1.0869990224828934
1.0772238514173995
1.0742913000977516
1.0879765395894427
1.1280547409579669
1.2013685239491692
1.3098729227761483
1.4506353861192571
1.616813294232649
1.7996089931573802
1.988269794721408
2.1710654936461387
2.337243401759531
2.466275659824047
2.56891495601173
2.665689149560117
2.747800586510264
2.8103616813294234
2.854349951124145
2.8807429130009776
2.889540566959922
2.881720430107527
2.860215053763441
2.8240469208211145
2.774193548387097
2.718475073313783
2.656891495601173
2.58455522971652
2.505376344086021
2.4222873900293256
2.3362658846529816
2.251221896383187
2.1681329423264906
2.0869990224828934
2.010752688172043
1.9393939393939397
1.870967741935484
1.8054740957966764
1.7517106549364614
1.7057673509286413
1.656891495601173
1.607038123167155
1.5464320625610948
1.4936461388074291
1.456500488758553
1.4173998044965788
1.3773216031280548
1.3372434017595307
1.2991202346041055
1.262952101661779
1.2346041055718475
1.209188660801564
1.1808406647116323
1.1515151515151516
1.1221896383186705
1.0948191593352885
1.067448680351906
1.0391006842619743
1.0097751710654936
0.981427174975562
0.95405669599218
0.927663734115347
0.9012707722385142
0.8817204301075269
0.8680351906158358
0.8504398826979472
0.8299120234604106
0.8093841642228738
0.7878787878787878
0.7644183773216031
0.7390029325513197
0.7145650048875856
0.696969696969697
0.6930596285434996
0.7106549364613881
0.7468230694037146
0.8093841642228738
0.9090909090909092
1.043010752688172
1.2082111436950147
1.393939393939394
1.5894428152492668
1.782991202346041
1.964809384164223
2.1270772238514173
2.264907135874878
2.377321603128055
2.466275659824047
2.5249266862170088
2.5610948191593352
2.5884652981427174
2.603128054740958
2.603128054740958
2.618768328445748
2.636363636363636
2.619745845552297
2.579667644183773
2.5239491691104594
2.458455522971652
2.3870967741935485
2.320625610948192
2.257086999022483
2.189638318670577
2.12316715542522
2.060606060606061
2.002932551319648
1.951124144672532
1.9042033235581624
1.8631476050830889
1.825024437927664
1.7898338220918866
1.758553274682307
1.7311827956989247
1.710654936461388
1.6920821114369502
1.672531769305963
1.653958944281525
1.6373411534701858
1.6207233626588464
