ppg
2.209188660801564
2.158357771260997
2.1114369501466275
2.0684261974584555
2.0283479960899315
1.989247311827957
1.9560117302052784
1.924731182795699
1.8905180840664717
1.857282502443793
1.825024437927664
1.7927663734115349
1.7605083088954057
1.7302052785923754
1.699902248289345
1.6686217008797657
1.6383186705767352
1.6099706744868034
1.5806451612903225
1.5562072336265884
1.5347018572825024
1.5102639296187683
1.4848484848484849
1.4594330400782014
1.4330400782013686
1.4056695992179864
1.3792766373411536
1.35386119257087
1.3304007820136852
1.3079178885630498
1.2864125122189638
1.270772238514174
1.2580645161290325
1.2424242424242424
1.2258064516129032
1.2082111436950147
1.1915933528836755
1.1749755620723363
1.1593352883675463
1.144672531769306
1.130987292277615
1.118279569892473
1.10752688172043
1.096774193548387
1.0899315738025417
1.086021505376344
1.0801564027370478
1.0733137829912025
1.0654936461388074
1.0576735092864125
1.0488758553274682
1.0391006842619743
1.0273704789833822
1.0166177908113392
1.0068426197458455
1.002932551319648
1.0087976539589445
1.0254154447702837
1.056695992179863
1.10752688172043
1.181818181818182
1.278592375366569
1.3958944281524928
1.5268817204301075
1.6637341153470186
1.801564027370479
1.935483870967742
2.0635386119257086
2.1837732160312804
2.280547409579668
2.363636363636364
2.4516129032258065
2.5386119257087
2.621700879765396
2.699902248289345
2.773216031280548
2.838709677419355
2.898338220918866
2.951124144672532
2.9980449657869013
3.038123167155425
3.065493646138808
3.0821114369501466
3.0987292277614857
3.112414467253177
3.121212121212121
3.124144672531769
3.1192570869990224
3.10752688172043
3.088954056695992
3.064516129032258
3.0332355816226784
2.997067448680352
2.956989247311828
2.9120234604105573
2.859237536656892
2.80058651026393
2.7341153470185726
2.66177908113392
2.587487781036168
2.5112414467253177
2.436950146627566
2.366568914956012
2.3010752688172045
2.239491691104594
2.1818181818181817
2.132942326490713
2.088954056695992
2.0439882697947214
2.0
1.956989247311828
1.916911045943304
1.8807429130009776
1.844574780058651
1.8093841642228736
1.775171065493646
1.7409579667644184
1.7067448680351909
1.678396871945259
1.6529814271749756
1.624633431085044
1.5962854349951123
1.5669599217986314
1.5386119257087
1.509286412512219
1.479960899315738
1.4496578690127078
1.4203323558162269
1.3919843597262953
1.3655913978494625
1.33822091886608
1.316715542521994
1.2991202346041055
1.2795698924731185
1.2570869990224829
1.2355816226783969
1.2150537634408602
1.1945259042033236
1.1759530791788857
1.1583577712609971
1.1407624633431086
1.1251221896383188
1.110459433040078
1.1006842619745845
1.093841642228739
1.0840664711632453
1.072336265884653
1.06158357771261
1.0518084066471165
1.0420332355816226
1.0332355816226784
1.0254154447702837
1.018572825024438
1.010752688172043
1.0019550342130987
0.9931573802541545
0.9882697947214076
0.9853372434017597
0.9775171065493646
0.967741935483871
0.9589442815249268
0.956989247311828
0.9667644183773216
0.9941348973607038
1.0420332355816226
1.1143695014662756
1.2111436950146628
1.3284457478005864
1.4437927663734116
1.5581622678396871
1.6901270772238517
1.8269794721407624
1.9608993157380252
2.088954056695992
2.2082111436950145
2.317693059628544
2.4173998044965788
2.5083088954056696
2.592375366568915
2.668621700879765
2.7370478983382207
2.788856304985337
2.8299120234604107
2.873900293255132
2.916911045943304
2.956011730205278
2.991202346041056
3.0195503421309877
3.042033235581622
3.0576735092864125
3.067448680351906
3.070381231671554
3.0664711632453567
3.053763440860215
3.034213098729228
3.0117302052785924
2.98435972629521
2.951124144672532
2.9120234604105573
2.866080156402737
2.8132942326490715
2.752688172043011
2.6852394916911044
2.613880742913001
2.5405669599217986
2.4672531769305963
2.401759530791789
2.3421309872922778
2.278592375366569
2.21505376344086
2.155425219941349
2.099706744868035
2.046920821114369
1.997067448680352
1.9501466275659824
1.906158357771261
1.866080156402737
1.8269794721407624
1.7898338220918866
1.7556207233626588
1.7233626588465298
1.6911045943304008
1.6608015640273706
1.6304985337243405
1.6011730205278591
1.5728250244379276
1.5454545454545454
1.5180840664711632
1.490713587487781
1.4643206256109482
1.4379276637341154
1.4164222873900294
1.3978494623655917
1.3763440860215057
1.3528836754643203
1.3294232649071358
1.305962854349951
1.2825024437927663
1.2590420332355816
1.2365591397849462
1.2160312805474096
1.195503421309873
1.1759530791788857
1.1622678396871946
1.1505376344086022
1.1368523949169111
1.121212121212121
1.104594330400782
1.088954056695992
1.075268817204301
1.0625610948191593
1.050830889540567
1.040078201368524
1.0303030303030305
1.021505376344086
1.0127077223851415
1.0087976539589445
1.0068426197458455
1.0019550342130987
0.9960899315738024
0.989247311827957
0.9824046920821116
0.975562072336266
0.9687194525904204
0.9618768328445748
0.9550342130987292
0.9521016617790812
0.9560117302052786
0.9687194525904204
0.9941348973607038
1.0381231671554252
1.1026392961876832
1.1896383186705768
1.295210166177908
1.414467253176931
1.543499511241447
1.6764418377321604
1.8074291300097751
1.932551319648094
2.047898338220919
2.1544477028347995
2.239491691104594
2.3118279569892475
2.388074291300098
2.462365591397849
2.5347018572825024
2.6021505376344085
2.6637341153470184
2.718475073313783
2.7673509286412514
2.8084066471163247
2.843597262952102
2.8729227761485827
2.8885630498533725
2.895405669599218
2.903225806451613
2.9071358748778104
2.9071358748778104
2.902248289345064
2.89247311827957
2.877810361681329
2.857282502443793
2.83088954056696
2.7976539589442817
2.758553274682307
2.7126099706744866
2.664711632453568
2.613880742913001
2.5532746823069403
2.486803519061584
2.4173998044965788
2.347996089931574
2.280547409579668
2.2170087976539588
2.156402737047898
2.0987292277614857
2.04594330400782
1.997067448680352
1.9560117302052784
1.919843597262952
1.8836754643206255
1.847507331378299
1.8132942326490715
1.7810361681329423
1.750733137829912
1.7204301075268815
1.6911045943304008
1.6627565982404693
1.6363636363636365
1.6109481915933528
1.5894428152492668
1.5698924731182795
1.547409579667644
1.52297165200391
1.498533724340176
1.4750733137829912
1.4516129032258065
1.4271749755620724
1.401759530791789
1.3773216031280548
1.3519061583577712
1.3284457478005864
1.3049853372434017
1.2873900293255132
1.2727272727272727
1.2541544477028348
1.2346041055718475
1.2150537634408602
1.1964809384164223
1.1798631476050832
1.164222873900293
1.1495601173020529
1.1348973607038124
1.1202346041055715
1.1065493646138806
1.096774193548387
1.0899315738025417
1.0801564027370478
1.0703812316715542
1.0596285434995112
1.050830889540567
1.043010752688172
1.035190615835777
1.0283479960899315
1.021505376344086
1.013685239491691
1.0048875855327468
0.9960899315738024
0.9912023460410556
0.989247311827957
0.9853372434017597
0.9824046920821116
0.9833822091886608
0.9921798631476052
1.0146627565982405
1.0557184750733135
1.118279569892473
1.203323558162268
1.3098729227761483
1.434017595307918
1.5503421309872922
1.66177908113392
1.7859237536656891
1.9130009775171064
2.037145650048876
2.1524926686217007
2.260019550342131
2.358748778103617
2.4486803519061584
2.530791788856305
2.6070381231671558
2.67644183773216
2.7390029325513194
2.78494623655914
2.820136852394917
2.8582600195503423
2.89247311827957
2.921798631476051
2.945259042033236
2.961876832844575
2.972629521016618
2.978494623655914
2.979472140762464
2.9765395894428157
2.9687194525904204
2.9550342130987293
2.935483870967742
2.9120234604105573
2.8836754643206257
2.849462365591398
2.807429130009776
2.7595307917888565
2.704789833822092
2.644183773216031
2.578690127077224
2.5112414467253177
2.443792766373412
2.378299120234604
2.321603128054741
2.270772238514174
2.218963831867057
2.16911045943304
2.1221896383186705
2.078201368523949
2.035190615835777
1.9951124144672527
1.9579667644183771
1.9227761485826005
1.8885630498533723
1.855327468230694
1.8269794721407624
1.801564027370479
1.775171065493646
1.747800586510264
1.7194525904203324
1.6911045943304008
1.66177908113392
1.6334310850439884
1.6050830889540566
1.5777126099706744
1.5513196480938416
1.5249266862170088
1.499511241446725
1.478983382209189
1.4613880742913
1.4418377321603129
1.4213098729227762
1.4007820136852396
1.380254154447703
1.359726295210166
1.3391984359726294
1.3196480938416422
1.3010752688172045
1.2825024437927663
1.2649071358748778
1.252199413489736
1.241446725317693
1.2287390029325511
1.2150537634408602
1.2023460410557183
1.1915933528836755
1.181818181818182
1.1730205278592376
1.1652003910068427
1.1583577712609971
1.1515151515151516
1.1456500488758554
1.1407624633431086
1.13880742913001
1.13880742913001
1.1358748778103618
1.1319648093841643
1.126099706744868
1.1192570869990224
1.1251221896383188
1.1368523949169111
1.1397849462365592
1.141739980449658
1.1485826001955035
1.166177908113392
1.1935483870967742
1.2355816226783969
1.2991202346041055
1.3851417399804498
1.4887585532746823
1.606060606060606
1.732160312805474
1.8621700879765395
1.9902248289345064
2.112414467253177
2.2267839687194524
2.3313782991202348
2.426197458455523
2.5004887585532747
2.563049853372434
2.6285434995112413
2.69208211143695
2.752688172043011
2.8084066471163247
2.860215053763441
2.9071358748778104
2.948191593352884
2.98435972629521
3.01564027370479
3.0410557184750733
3.0547409579667644
3.060606060606061
3.0664711632453567
3.069403714565005
3.0684261974584555
3.0635386119257086
3.0547409579667644
3.040078201368524
3.0205278592375366
2.995112414467253
2.962854349951124
2.9237536656891496
2.87683284457478
2.8269794721407626
2.774193548387097
2.7145650048875853
2.650048875855328
2.58455522971652
2.520039100684262
2.4574780058651027
2.398826979472141
2.3440860215053765
2.294232649071359
2.2482893450635384
2.2052785923753664
2.1681329423264906
2.1358748778103616
2.103616813294233
2.071358748778104
2.040078201368524
2.010752688172043
1.981427174975562
1.9521016617790807
1.924731182795699
1.8983382209188664
1.8729227761485825
1.847507331378299
1.823069403714565
1.801564027370479
1.7771260997067448
1.750733137829912
1.7223851417399805
1.694037145650049
1.6656891495601174
1.6383186705767352
1.611925708699902
1.585532746823069
1.560117302052786
1.5366568914956011
1.5141739980449658
1.4965786901270772
1.4819159335288368
1.4633431085043989
1.4437927663734116
1.4242424242424243
1.404692082111437
1.3851417399804498
1.364613880742913
1.3450635386119256
1.3255131964809383
1.3049853372434017
1.284457478005865
1.2688172043010753
1.2561094819159335
1.2404692082111437
1.2228739002932552
1.2052785923753666
1.1867057673509287
1.1681329423264908
1.1495601173020529
1.130987292277615
1.1143695014662756
1.099706744868035
1.0840664711632453
1.067448680351906
1.0547409579667644
1.04594330400782
1.035190615835777
1.0254154447702837
1.0195503421309873
1.0234604105571847
1.0410557184750733
1.0772238514173995
1.1358748778103618
1.217008797653959
1.3206256109481915
1.439882697947214
1.5532746823069403
1.6608015640273706
1.780058651026393
1.8993157380254155
2.0146627565982405
2.121212121212121
2.218963831867057
2.30791788856305
2.3900293255131966
2.464320625610948
2.530791788856305
2.590420332355816
2.644183773216031
2.684261974584555
2.7155425219941347
2.747800586510264
2.7781036168132944
2.8054740957966766
2.8269794721407626
2.841642228739003
2.8514173998044967
2.8563049853372435
2.855327468230694
2.850439882697948
2.8406647116324537
2.8269794721407626
2.8084066471163247
2.787878787878788
2.763440860215054
2.7341153470185726
2.6989247311827955
2.6578690127077222
2.6099706744868034
2.557184750733138
2.4995112414467253
2.4379276637341154
2.375366568914956
2.314760508308896
2.26197458455523
2.21505376344086
2.166177908113392
2.120234604105572
2.0772238514174
2.038123167155425
2.002932551319648
1.9726295210166176
1.946236559139785
1.9227761485826005
1.9012707722385145
1.8826979472140764
1.868035190615836
1.855327468230694
1.842619745845552
1.8299120234604105
1.8162267839687196
1.8025415444770283
1.7888563049853372
1.7732160312805474
1.7575757575757576
1.7409579667644184
1.7243401759530792
1.70772238514174
1.6920821114369502
1.678396871945259
1.6656891495601174
1.6500488758553276
1.6344086021505375
1.6177908113391983
1.6011730205278591
1.585532746823069
1.5698924731182795
1.555229716520039
1.5405669599217986
1.525904203323558
1.5112414467253177
1.500488758553275
1.4916911045943304
1.4819159335288368
1.4711632453567938
1.4594330400782014
1.447702834799609
1.436950146627566
1.4271749755620724
1.4203323558162269
1.4173998044965788
1.4173998044965788
1.4213098729227762
1.4281524926686218
1.4379276637341154
1.4496578690127078
1.4633431085043989
1.4760508308895406
1.487781036168133
1.4965786901270772
1.5024437927663734
1.5053763440860215
1.5073313782991202
1.512218963831867
1.521994134897361
1.542521994134897
1.5698924731182795
1.6080156402737047
1.6637341153470186
1.7341153470185728
1.8142717497556209
1.8993157380254155
1.9853372434017595
2.070381231671554
2.1515151515151514
2.228739002932551
2.3010752688172045
2.3685239491691106
2.4330400782013686
2.486803519061584
2.5347018572825024
2.591397849462365
2.653958944281525
2.720430107526881
2.789833822091887
2.860215053763441
2.930596285434995
3.0009775171065494
3.070381231671554
3.1378299120234603
3.20039100684262
3.2453567937438903
3.27761485826002
3.3098729227761488
3.335288367546432
3.347996089931574
3.347996089931574
3.333333333333333
3.304007820136853
3.260997067448681
3.2052785923753664
3.1358748778103616
3.0547409579667644
2.962854349951124
2.8054740957966766
2.6177908113391983
2.4780058651026398
2.361681329423265
2.259042033235582
2.1652003910068425
2.078201368523949
1.9980449657869013
1.9237536656891496
1.855327468230694
1.793743890518084
1.7380254154447703
1.6920821114369502
1.653958944281525
1.6148582600195502
1.5777126099706744
1.542521994134897
1.5102639296187683
1.4819159335288368
1.455522971652004
1.4301075268817205
1.4066471163245358
1.383186705767351
1.3587487781036167
1.335288367546432
1.316715542521994
1.300097751710655
1.281524926686217
1.2609970674486803
1.2404692082111437
1.219941348973607
1.1994134897360704
1.1788856304985338
1.1593352883675463
1.1397849462365592
1.1202346041055715
1.1006842619745845
1.086021505376344
1.0742913000977516
1.0596285434995112
1.043010752688172
1.0263929618768328
1.0097751710654936
0.9921798631476052
0.9765395894428152
0.9608993157380256
0.9442815249266864
0.9286412512218964
0.9149560117302052
0.9071358748778104
0.9022482893450636
0.8944281524926686
0.8856304985337243
0.8758553274682307
0.8670576735092864
0.8592375366568915
0.852394916911046
0.8475073313782991
0.8426197458455523
0.8387096774193549
0.8347996089931574
0.8299120234604106
0.8289345063538612
0.8318670576735093
0.833822091886608
0.8377321603128055
0.8504398826979472
0.8748778103616813
0.9149560117302052
0.9726295210166178
1.0478983382209188
1.1368523949169111
1.2365591397849462
1.3411534701857282
1.4330400782013686
1.517106549364614
1.6050830889540566
1.689149560117302
1.7673509286412512
1.8387096774193548
1.903225806451613
1.9608993157380252
2.013685239491691
2.060606060606061
2.103616813294233
2.1417399804496577
2.174975562072336
2.20039100684262
2.220918866080156
2.241446725317693
2.260019550342131
2.274682306940372
2.286412512218964
2.2932551319648096
2.2952101661779083
2.2932551319648096
2.2873900293255134
2.2766373411534704
2.26197458455523
2.243401759530792
2.222873900293255
2.198435972629521
2.1700879765395893
2.136852394916911
2.099706744868035
2.0576735092864125
2.0117302052785924
1.962854349951124
1.913978494623656
1.865102639296188
1.8162267839687196
1.7702834799608993
1.7311827956989247
1.6979472140762464
1.6637341153470186
1.629521016617791
1.5962854349951123
1.563049853372434
1.5317693059628543
1.5024437927663734
1.4760508308895406
1.4506353861192571
1.426197458455523
1.4027370478983383
1.383186705767351
1.3665689149560116
1.3479960899315735
1.3284457478005864
1.3088954056695992
1.289345063538612
1.2688172043010753
1.2473118279569892
1.2258064516129032
1.2052785923753666
1.18475073313783
1.164222873900293
1.1436950146627567
1.1280547409579669
1.115347018572825
1.1006842619745845
1.0850439882697946
1.0694037145650048
1.0527859237536656
1.0371456500488758
1.0224828934506354
1.007820136852395
0.9931573802541545
0.9794721407624634
0.9657869012707724
0.9579667644183774
0.9521016617790812
0.9433040078201368
0.9325513196480938
0.9217986314760508
0.9130009775171064
0.9051808406647116
0.8973607038123167
0.8905180840664711
0.884652981427175
0.8797653958944281
0.8748778103616813
0.8699902248289345
0.8699902248289345
0.8699902248289345
0.8699902248289345
0.8699902248289345
0.8699902248289345
0.8533724340175953
0.855327468230694
0.8680351906158358
0.8944281524926686
0.93841642228739
0.9990224828934506
1.0762463343108504
1.155425219941349
1.2365591397849462
1.3304007820136852
1.4281524926686218
1.52297165200391
1.611925708699902
1.694037145650049
1.7683284457478006
1.835777126099707
1.895405669599218
1.951124144672532
2.0019550342130987
2.048875855327468
2.0840664711632453
2.113391984359726
2.1436950146627565
2.172043010752688
2.1974584555229715
2.218963831867057
2.236559139784946
2.2502443792766376
2.260997067448681
2.2688172043010755
2.272727272727273
2.271749755620724
2.2658846529814274
2.2561094819159337
2.244379276637341
2.2297165200391005
2.2111436950146626
2.188660801564027
2.163245356793744
2.132942326490713
2.0977517106549364
2.0576735092864125
2.013685239491691
1.967741935483871
1.920821114369501
1.878787878787879
1.8406647116324533
1.8005865102639296
1.7605083088954057
1.7223851417399805
1.686217008797654
1.6529814271749756
1.6217008797653958
1.5913978494623655
1.563049853372434
1.5356793743890518
1.509286412512219
1.487781036168133
1.469208211143695
1.4486803519061584
1.4271749755620724
1.404692082111437
1.3822091886608017
1.3607038123167154
1.3391984359726294
1.3186705767350928
1.2981427174975562
1.278592375366569
1.260019550342131
1.241446725317693
1.227761485826002
1.2150537634408602
1.198435972629521
1.1798631476050832
1.1612903225806452
1.142717497556207
1.1251221896383188
1.1085043988269794
1.0928641251221896
1.078201368523949
1.0635386119257086
1.0488758553274682
1.0391006842619743
1.0312805474095796
1.0205278592375366
1.007820136852395
0.9951124144672532
0.9833822091886608
0.9726295210166178
1.0127077223851415
1.078201368523949
1.1065493646138806
1.115347018572825
1.115347018572825
1.110459433040078
1.10752688172043
1.104594330400782
1.096774193548387
1.0879765395894427
1.078201368523949
1.0684261974584557
1.0625610948191593
1.064516129032258
1.078201368523949
1.1085043988269794
1.1583577712609971
1.2287390029325511
1.305962854349951
1.3919843597262953
1.498533724340176
1.6138807429130009
1.729227761485826
1.839687194525904
1.9423264907135875
2.034213098729228
2.1163245356793743
2.188660801564027
2.2531769305962857
2.310850439882698
2.355816226783969
2.3919843597262958
2.4271749755620724
2.4594330400782014
2.4887585532746823
2.5141739980449658
2.535679374389052
2.552297165200391
2.5650048875855327
2.5747800586510263
2.581622678396872
2.58455522971652
2.5835777126099706
2.578690127077224
2.5698924731182795
2.558162267839687
2.544477028347996
2.525904203323558
2.5034213098729228
2.4760508308895406
2.443792766373412
2.407624633431085
2.366568914956012
2.320625610948192
2.271749755620724
2.225806451612903
2.182795698924731
2.1358748778103616
2.088954056695992
2.0439882697947214
2.002932551319648
1.9657869012707725
1.932551319648094
1.902248289345064
1.8748778103616808
1.8494623655913975
1.826001955034213
1.8035190615835777
1.7859237536656891
1.7712609970674489
1.7546432062561097
1.7360703812316716
1.7174975562072337
1.699902248289345
1.6823069403714566
1.6627565982404693
1.643206256109482
1.6236559139784943
1.603128054740958
1.5835777126099706
1.5679374389051808
1.555229716520039
1.5395894428152492
1.521994134897361
1.5034213098729228
1.4838709677419355
1.4643206256109482
1.444770283479961
1.4252199413489737
1.4076246334310851
1.391006842619746
1.3763440860215057
1.3616813294232648
1.3509286412512218
1.343108504398827
1.3313782991202343
1.3186705767350928
1.3049853372434017
1.2903225806451613
1.2766373411534702
1.2649071358748778
1.2551319648093842
1.24633431085044
1.238514173998045
1.23069403714565
1.2287390029325511
1.227761485826002
1.2238514173998043
1.2179863147605083
1.2101661779081134
1.2043010752688172
1.203323558162268
1.2121212121212122
1.2346041055718475
1.2756598240469208
1.3372434017595307
1.4193548387096775
1.517106549364614
1.6129032258064515
1.70772238514174
1.812316715542522
1.9178885630498532
2.0175953079178885
2.10850439882698
2.188660801564027
2.257086999022483
2.315738025415445
2.3655913978494625
2.409579667644184
2.447702834799609
2.4750733137829912
2.496578690127077
2.5180840664711632
2.5386119257087
2.5562072336265884
2.5718475073313782
2.58455522971652
2.5943304007820136
2.601173020527859
2.603128054740958
2.6021505376344085
2.598240469208211
2.590420332355816
2.579667644183773
2.5650048875855327
2.548387096774193
2.527859237536657
2.504398826979472
2.4760508308895406
2.443792766373412
2.407624633431085
2.367546432062561
2.3225806451612905
2.274682306940372
2.2267839687194524
2.1847507331378297
2.146627565982405
2.10752688172043
2.069403714565005
2.035190615835777
2.004887585532747
1.9765395894428155
1.951124144672532
1.9286412512218964
1.9071358748778104
1.8875855327468232
1.869012707722385
1.8504398826979471
1.835777126099707
1.823069403714565
1.8084066471163245
1.7927663734115349
1.7771260997067448
1.761485826001955
1.7448680351906158
1.7282502443792769
1.7126099706744868
1.6959921798631477
1.6774193548387095
1.6578690127077225
1.6422287390029326
1.6285434995112416
1.6129032258064515
1.595307917888563
1.5777126099706744
1.560117302052786
1.542521994134897
1.5249266862170088
1.5073313782991202
1.4916911045943304
1.47702834799609
1.4623655913978495
1.4486803519061584
1.439882697947214
1.434017595307918
1.4242424242424243
1.4134897360703813
1.4037145650048877
1.3949169110459434
1.3870967741935485
1.3792766373411536
1.370478983382209
1.3607038123167154
1.3499511241446724
1.33822091886608
1.3304007820136852
1.3264907135874875
1.3225806451612905
1.3255131964809383
1.3411534701857282
1.3724340175953078
1.4242424242424243
1.4975562072336266
1.5884652981427174
1.6930596285434996
1.8035190615835777
1.9149560117302051
2.021505376344086
2.10850439882698
2.1808406647116323
2.2502443792766376
2.312805474095797
2.3685239491691106
2.4164222873900294
2.458455522971652
2.495601173020528
2.529814271749756
2.5591397849462365
2.58455522971652
2.6050830889540566
2.6177908113391983
2.625610948191593
2.634408602150537
2.641251221896383
2.64613880742913
2.649071358748778
2.649071358748778
2.6451612903225805
2.638318670576735
2.6295210166177907
2.6177908113391983
2.6021505376344085
2.5835777126099706
2.563049853372434
2.5386119257087
2.509286412512219
2.4750733137829912
2.436950146627566
2.393939393939394
2.3489736070381237
2.302052785923754
2.2561094819159337
2.2111436950146626
2.1681329423264906
2.1280547409579667
2.0957966764418376
2.1163245356793743
2.1593352883675463
2.1652003910068425
2.15347018572825
2.134897360703812
2.114369501466276
2.0948191593352883
2.0762463343108504
