ppg
1.5112414467253177
1.5298142717497556
1.5454545454545454
1.5571847507331378
1.565982404692082
1.5718475073313782
1.5728250244379276
1.5698924731182795
1.563049853372434
1.552297165200391
1.5386119257087
1.5239491691104594
1.5073313782991202
1.4887585532746823
1.4731182795698925
1.458455522971652
1.4408602150537635
1.4213098729227762
1.401759530791789
1.383186705767351
1.364613880742913
1.348973607038123
1.3362658846529814
1.327468230694037
1.3235581622678396
1.324535679374389
1.3294232649071358
1.33822091886608
1.348973607038123
1.3607038123167154
1.370478983382209
1.3773216031280548
1.383186705767351
1.391006842619746
1.4056695992179864
1.435972629521017
1.4916911045943304
1.5806451612903225
1.7067448680351909
1.839687194525904
1.9853372434017595
2.166177908113392
2.360703812316716
2.550342130987292
2.720430107526881
2.8611925708699903
2.967741935483871
3.040078201368524
3.081133919843597
3.093841642228739
3.083088954056696
3.0527859237536656
3.0117302052785924
2.961876832844575
2.9012707722385143
2.832844574780059
2.7595307917888565
2.684261974584555
2.6080156402737047
2.5317693059628543
2.458455522971652
2.388074291300098
2.3196480938416424
2.2521994134897363
2.1925708699902247
2.1358748778103616
2.0733137829912023
2.006842619745845
1.9374389051808407
1.869012707722385
1.8025415444770283
1.739980449657869
1.6852394916911049
1.640273704789834
1.606060606060606
1.58455522971652
1.5747800586510263
1.5757575757575757
1.58455522971652
1.6011730205278591
1.6236559139784943
1.651026392961877
1.6793743890518085
1.7057673509286413
1.729227761485826
1.7487781036168133
1.7644183773216031
1.7741935483870968
1.7790811339198436
1.780058651026393
1.7781036168132942
1.7712609970674489
1.7605083088954057
1.7458455522971652
1.7282502443792769
1.70772238514174
1.6852394916911049
1.6627565982404693
1.6392961876832846
1.6148582600195502
1.5913978494623655
1.5698924731182795
1.5542521994134897
1.541544477028348
1.5298142717497556
1.521016617790811
1.5151515151515151
1.5131964809384164
1.5131964809384164
1.5151515151515151
1.5161290322580645
1.5151515151515151
1.512218963831867
1.5083088954056696
1.509286412512219
1.5180840664711632
1.542521994134897
1.5933528836754642
1.678396871945259
1.8005865102639296
1.9589442815249267
2.1436950146627565
2.3411534701857284
2.5376344086021505
2.717497556207233
2.8690127077223853
2.9872922776148583
3.0625610948191597
3.103616813294233
3.1251221896383186
3.1251221896383186
3.1055718475073317
3.069403714565005
3.0195503421309877
2.9579667644183774
2.8885630498533725
2.8132942326490715
2.7341153470185726
2.6529814271749754
2.5777126099706744
2.506353861192571
2.429130009775171
2.3489736070381237
2.267839687194526
2.185728250244379
2.103616813294233
2.0205278592375366
1.9374389051808407
1.855327468230694
1.7761485826001957
1.699902248289345
1.629521016617791
1.5747800586510263
1.5327468230694037
1.495601173020528
1.466275659824047
1.4457478005865103
1.4349951124144673
1.4320625610948192
1.435972629521017
1.4437927663734116
1.4535679374389052
1.4633431085043989
1.4731182795698925
1.4819159335288368
1.4887585532746823
1.4926686217008798
1.4936461388074291
1.4916911045943304
1.4868035190615836
1.479960899315738
1.4711632453567938
1.4604105571847508
1.447702834799609
1.4330400782013686
1.4164222873900294
1.3978494623655917
1.3812316715542523
1.3655913978494625
1.343108504398827
1.3176930596285434
1.2903225806451613
1.262952101661779
1.2365591397849462
1.2121212121212122
1.1906158357771262
1.1730205278592376
1.1593352883675463
1.1485826001955035
1.1436950146627567
1.141739980449658
1.1368523949169111
1.1290322580645162
1.1192570869990224
1.110459433040078
1.1085043988269794
1.121212121212121
1.1593352883675463
1.2326490713587488
1.3470185728250244
1.501466275659824
1.6881720430107527
1.866080156402737
2.038123167155425
2.225806451612903
2.404692082111437
2.5239491691104594
2.591397849462365
2.649071358748778
2.6852394916911044
2.696969696969697
2.6881720430107525
2.6608015640273703
2.618768328445748
2.5718475073313782
2.5190615835777126
2.4574780058651027
2.388074291300098
2.313782991202346
2.2355816226783967
2.1544477028347995
2.072336265884653
1.988269794721408
1.903225806451613
1.818181818181818
1.7331378299120237
1.6598240469208212
1.5933528836754642
1.520039100684262
1.4467253176930597
1.3763440860215057
1.3118279569892473
1.2570869990224829
1.2130987292277615
1.1837732160312806
1.1681329423264908
1.166177908113392
1.1779081133919844
1.1994134897360704
1.2258064516129032
1.2561094819159335
1.2913000977517106
1.3284457478005864
1.364613880742913
1.3978494623655917
1.4271749755620724
1.4506353861192571
1.4682306940371457
1.478983382209189
1.4838709677419355
1.4819159335288368
1.478005865102639
1.4711632453567938
1.458455522971652
1.4418377321603129
1.4242424242424243
1.404692082111437
1.3841642228739004
1.3636363636363635
1.3440860215053765
1.324535679374389
1.3049853372434017
1.2864125122189638
1.2688172043010753
1.2561094819159335
1.24633431085044
1.2365591397849462
1.2297165200391007
1.224828934506354
1.2218963831867058
1.219941348973607
1.2179863147605083
1.2150537634408602
1.2121212121212122
1.2121212121212122
1.2218963831867058
1.2424242424242424
1.2805474095796676
1.3499511241446724
1.457478005865103
1.6011730205278591
1.7771260997067448
1.9736070381231672
2.176930596285435
2.372434017595308
2.5464320625610948
2.69208211143695
2.8044965786901277
2.884652981427175
2.9286412512218964
2.9442815249266863
2.9442815249266863
2.927663734115347
2.895405669599218
2.8484848484848486
2.789833822091887
2.7223851417399803
2.6471163245356792
2.567937438905181
2.487781036168133
2.407624633431085
2.3362658846529816
2.271749755620724
2.204301075268817
2.1358748778103616
2.067448680351906
1.997067448680352
1.924731182795699
1.8514173998044965
1.7781036168132942
1.704789833822092
1.6344086021505375
1.5679374389051808
1.5083088954056696
1.4613880742913
1.4252199413489737
1.3919843597262953
1.364613880742913
1.3450635386119256
1.3343108504398826
1.3313782991202343
1.3362658846529814
1.346041055718475
1.3607038123167154
1.3773216031280548
1.3949169110459434
1.4115347018572826
1.4271749755620724
1.4408602150537635
1.4506353861192571
1.457478005865103
1.4604105571847508
1.458455522971652
1.452590420332356
1.4418377321603129
1.4271749755620724
1.4086021505376345
1.3870967741935485
1.3636363636363635
1.3450635386119256
1.3284457478005864
1.310850439882698
1.2942326490713587
1.2795698924731185
1.2688172043010753
1.2619745845552297
1.2580645161290325
1.2590420332355816
1.262952101661779
1.270772238514174
1.281524926686217
1.2932551319648091
1.303030303030303
1.310850439882698
1.313782991202346
1.3128054740957966
1.3128054740957966
1.3225806451612905
1.3509286412512218
1.4076246334310851
1.501466275659824
1.6334310850439884
1.7996089931573802
1.9902248289345064
2.164222873900293
2.3225806451612905
2.490713587487781
2.64613880742913
2.776148582600196
2.87683284457478
2.948191593352884
2.989247311827957
3.003910068426197
2.992179863147605
2.956989247311828
2.9012707722385143
2.835777126099707
2.7595307917888565
2.667644183773216
2.565982404692082
2.4594330400782014
2.35386119257087
2.2502443792766376
2.150537634408602
2.0547409579667644
1.962854349951124
1.8729227761485825
1.7839687194525904
1.696969696969697
1.6217008797653958
1.5542521994134897
1.4819159335288368
1.4105571847507332
1.3450635386119256
1.289345063538612
1.2453567937438903
1.2140762463343109
1.195503421309873
1.1896383186705768
1.1964809384164223
1.2130987292277615
1.2336265884652982
1.2580645161290325
1.2873900293255132
1.3176930596285434
1.346041055718475
1.3695014662756595
1.388074291300098
1.3988269794721409
1.4027370478983383
1.3998044965786902
1.391006842619746
1.3773216031280548
1.3607038123167154
1.3470185728250244
1.3343108504398826
1.3176930596285434
1.2991202346041055
1.2805474095796676
1.2619745845552297
1.2443792766373412
1.227761485826002
1.2121212121212122
1.1974584555229717
1.1837732160312806
1.1700879765395895
1.1612903225806452
1.1544477028347997
1.144672531769306
1.133919843597263
1.1231671554252198
1.1133919843597262
1.1026392961876832
1.0918866080156402
1.0801564027370478
1.0664711632453567
1.0518084066471165
1.0391006842619743
1.035190615835777
1.043010752688172
1.0694037145650048
1.1241446725317692
1.2140762463343109
1.3421309872922775
1.504398826979472
1.6920821114369502
1.89247311827957
2.090909090909091
2.2737047898338223
2.4301075268817205
2.5542521994134897
2.6373411534701856
2.686217008797654
2.7155425219941347
2.7233626588465296
2.7096774193548385
2.678396871945259
2.633431085043988
2.576735092864125
2.512218963831867
2.442815249266862
2.3704789833822093
2.29227761485826
2.217986314760508
2.15347018572825
2.088954056695992
2.024437927663734
1.9608993157380252
1.8963831867057677
1.83088954056696
1.7634408602150538
1.6930596285434996
1.6217008797653958
1.5493646138807429
1.478005865102639
1.4105571847507332
1.356793743890518
1.313782991202346
1.2727272727272727
1.2394916911045943
1.217008797653959
1.206256109481916
1.206256109481916
1.2150537634408602
1.23069403714565
1.2502443792766371
1.2717497556207231
1.29227761485826
1.310850439882698
1.327468230694037
1.3401759530791788
1.3479960899315735
1.3509286412512218
1.348973607038123
1.3421309872922775
1.3313782991202343
1.3176930596285434
1.300097751710655
1.2805474095796676
1.260019550342131
1.238514173998045
1.2209188660801564
1.2043010752688172
1.1837732160312806
1.1593352883675463
1.1329423264907137
1.104594330400782
1.0762463343108504
1.0478983382209188
1.0205278592375366
0.9951124144672532
0.9736070381231672
0.9579667644183774
0.9501466275659824
0.9511241446725318
0.9560117302052786
0.9667644183773216
0.9843597262952102
1.0087976539589445
1.040078201368524
1.0801564027370478
1.133919843597263
1.206256109481916
1.303030303030303
1.4291300097751711
1.585532746823069
1.7409579667644184
1.8993157380254155
2.0869990224828934
2.281524926686217
2.464320625610948
2.6236559139784945
2.7497556207233624
2.8396871945259043
2.8944281524926687
2.916911045943304
2.9120234604105573
2.8856304985337244
2.84652981427175
2.7976539589442817
2.7390029325513194
2.673509286412512
2.6041055718475072
2.5317693059628543
2.458455522971652
2.3851417399804498
2.313782991202346
2.242424242424242
2.172043010752688
2.103616813294233
2.037145650048876
1.978494623655914
1.924731182795699
1.8670576735092863
1.8093841642228736
1.75366568914956
1.699902248289345
1.6500488758553276
1.6041055718475072
1.564027370478983
1.5317693059628543
1.5063538611925709
1.487781036168133
1.47702834799609
1.4721407624633431
1.4701857282502444
1.4721407624633431
1.478983382209189
1.4887585532746823
1.500488758553275
1.5131964809384164
1.5268817204301075
1.5395894428152492
1.5513196480938416
1.5610948191593352
1.56891495601173
1.5747800586510263
1.5786901270772238
1.5806451612903225
1.5806451612903225
1.5777126099706744
1.5728250244379276
1.5650048875855327
1.555229716520039
1.543499511241447
1.5298142717497556
1.5151515151515151
1.500488758553275
1.4887585532746823
1.478983382209189
1.4682306940371457
1.4594330400782014
1.452590420332356
1.4486803519061584
1.4496578690127078
1.4545454545454546
1.4633431085043989
1.4750733137829912
1.4887585532746823
1.5034213098729228
1.5161290322580645
1.5249266862170088
1.530791788856305
1.5347018572825024
1.5405669599217986
1.5562072336265884
1.5894428152492668
1.6480938416422288
1.7380254154447703
1.8602150537634408
2.0097751710654936
2.176930596285435
2.347996089931574
2.490713587487781
2.6080156402737047
2.719452590420332
2.809384164222874
2.8719452590420333
2.906158357771261
2.9149560117302054
2.9012707722385143
2.8699902248289346
2.8260019550342133
2.7702834799608995
2.7067448680351904
2.6373411534701856
2.5698924731182795
2.504398826979472
2.432062561094819
2.357771260997068
2.283479960899316
2.2111436950146626
2.139784946236559
2.070381231671554
2.0009775171065494
1.9315738025415443
1.86119257086999
1.7898338220918866
1.726295210166178
1.667644183773216
1.6041055718475072
1.541544477028348
1.482893450635386
1.4330400782013686
1.392961876832845
1.3655913978494625
1.3499511241446724
1.346041055718475
1.3509286412512218
1.364613880742913
1.3841642228739004
1.404692082111437
1.4271749755620724
1.4516129032258065
1.4760508308895406
1.498533724340176
1.517106549364614
1.530791788856305
1.5395894428152492
1.542521994134897
1.5395894428152492
1.5327468230694037
1.52297165200391
1.5131964809384164
1.5024437927663734
1.487781036168133
1.4721407624633431
1.4545454545454546
1.435972629521017
1.4173998044965788
1.3988269794721409
1.380254154447703
1.3616813294232648
1.3450635386119256
1.3304007820136852
1.3206256109481915
1.3147605083088951
1.3098729227761483
1.3069403714565004
1.305962854349951
1.3088954056695992
1.3128054740957966
1.316715542521994
1.3186705767350928
1.3196480938416422
1.3196480938416422
1.3225806451612905
1.3343108504398826
1.3548387096774193
1.3919843597262953
1.457478005865103
1.555229716520039
1.6842619745845553
1.839687194525904
2.0117302052785924
2.187683284457478
2.35386119257087
2.4995112414467253
2.6158357771261
2.699902248289345
2.7468230694037143
2.764418377321604
2.7624633431085046
2.740957966764418
2.701857282502444
2.649071358748778
2.5855327468230693
2.515151515151515
2.439882697947214
2.3626588465298144
2.2854349951124147
2.2082111436950145
2.132942326490713
2.065493646138808
2.003910068426197
1.9364613880742916
1.8670576735092863
1.7976539589442817
1.7419354838709675
1.6950146627565983
1.6392961876832846
1.5806451612903225
1.521994134897361
1.4672531769305963
1.4203323558162269
1.3851417399804498
1.3616813294232648
1.3440860215053765
1.3343108504398826
1.3343108504398826
1.3440860215053765
1.3607038123167154
1.3822091886608017
1.4076246334310851
1.434017595307918
1.4604105571847508
1.4848484848484849
1.5063538611925709
1.52297165200391
1.5356793743890518
1.544477028347996
1.5483870967741935
1.5483870967741935
1.543499511241447
1.533724340175953
1.521016617790811
1.504398826979472
1.4838709677419355
1.4604105571847508
1.4349951124144673
1.4134897360703813
1.392961876832845
1.367546432062561
1.3401759530791788
1.3128054740957966
1.2873900293255132
1.2639296187683284
1.2434017595307918
1.2267839687194526
1.2150537634408602
1.2082111436950147
1.206256109481916
1.209188660801564
1.2160312805474096
1.2258064516129032
1.2355816226783969
1.2443792766373412
1.252199413489736
1.2590420332355816
1.2688172043010753
1.2883675464320623
1.3264907135874875
1.3919843597262953
1.4916911045943304
1.6265884652981428
1.7663734115347018
1.9159335288367547
2.0957966764418376
2.2844574780058653
2.463343108504399
2.618768328445748
2.742913000977517
2.83088954056696
2.8826979472140764
2.903225806451613
2.895405669599218
2.866080156402737
2.819159335288368
2.7653958944281527
2.7067448680351904
2.638318670576735
2.5650048875855327
2.489736070381232
2.4134897360703813
2.340175953079179
2.267839687194526
2.198435972629521
2.131964809384164
2.0664711632453567
2.002932551319648
1.9472140762463344
1.895405669599218
1.8377321603128052
1.7790811339198436
1.7194525904203324
1.66177908113392
1.6080156402737047
1.5591397849462365
1.5180840664711632
1.4848484848484849
1.4604105571847508
1.4457478005865103
1.439882697947214
1.4408602150537635
1.447702834799609
1.458455522971652
1.4731182795698925
1.4887585532746823
1.504398826979472
1.5190615835777126
1.5327468230694037
1.543499511241447
1.552297165200391
1.5581622678396871
1.5620723362658846
1.564027370478983
1.564027370478983
1.560117302052786
1.5532746823069403
1.543499511241447
1.5317693059628543
1.517106549364614
1.500488758553275
1.4819159335288368
1.4613880742913
1.439882697947214
1.4173998044965788
1.3958944281524928
1.3792766373411536
1.3665689149560116
1.3528836754643203
1.3411534701857282
1.3313782991202343
1.3255131964809383
1.3235581622678396
1.324535679374389
1.3294232649071358
1.3362658846529814
1.343108504398827
1.348973607038123
1.35386119257087
1.3577712609970674
1.3607038123167154
1.367546432062561
1.3861192570869991
1.4252199413489737
1.4936461388074291
1.5943304007820136
1.726295210166178
1.8856304985337244
2.060606060606061
2.239491691104594
2.407624633431085
2.5386119257087
2.6373411534701856
2.7223851417399803
2.782991202346041
2.8152492668621703
2.820136852394917
2.801564027370479
2.7624633431085046
2.70772238514174
2.641251221896383
2.565982404692082
2.484848484848485
2.409579667644184
2.3382209188660803
2.26197458455523
2.185728250244379
2.112414467253177
2.043010752688172
1.9765395894428155
1.9130009775171064
1.8523949169110456
1.7927663734115349
1.7331378299120237
1.672531769305963
1.6109481915933528
1.5581622678396871
1.5102639296187683
1.457478005865103
1.4066471163245358
1.3607038123167154
1.3225806451612905
1.295210166177908
1.2776148582600195
1.270772238514174
1.273704789833822
1.284457478005865
1.3010752688172045
1.321603128054741
1.3440860215053765
1.3695014662756595
1.3949169110459434
1.4193548387096775
1.4408602150537635
1.458455522971652
1.4721407624633431
1.4809384164222874
1.4858260019550342
1.4868035190615836
1.4848484848484849
1.4819159335288368
1.47702834799609
1.4682306940371457
1.455522971652004
1.4389051808406648
1.418377321603128
1.3958944281524928
1.3724340175953078
1.3479960899315735
1.324535679374389
1.3040078201368523
1.2864125122189638
1.273704789833822
1.267839687194526
1.2668621700879763
1.267839687194526
1.2727272727272727
1.2805474095796676
1.2903225806451613
1.3010752688172045
1.310850439882698
1.3196480938416422
1.327468230694037
1.3362658846529814
1.3519061583577712
1.375366568914956
1.4134897360703813
1.478983382209189
1.5757575757575757
1.7057673509286413
1.8631476050830889
2.0391006842619745
2.219941348973607
2.393939393939394
2.548387096774193
2.674486803519061
2.7673509286412514
2.827956989247312
2.8563049853372435
2.859237536656892
2.844574780058651
2.8132942326490715
2.7673509286412514
2.710654936461388
2.6451612903225805
2.572825024437928
2.495601173020528
2.41544477028348
2.334310850439883
2.254154447702835
2.182795698924731
2.117302052785924
2.047898338220919
1.9775171065493649
1.90811339198436
1.8387096774193548
1.7712609970674489
1.704789833822092
1.640273704789834
1.5777126099706744
1.520039100684262
1.4682306940371457
1.3822091886608017
1.2873900293255132
1.2355816226783969
1.2072336265884651
1.1964809384164223
1.2003910068426198
1.2140762463343109
1.2355816226783969
1.2609970674486803
1.2873900293255132
1.3118279569892473
1.3333333333333333
1.3509286412512218
1.364613880742913
1.375366568914956
1.3812316715542523
1.3822091886608017
1.3792766373411536
1.3734115347018572
1.3626588465298142
1.348973607038123
1.3313782991202343
1.3118279569892473
1.2903225806451613
1.267839687194526
1.2453567937438903
1.2267839687194526
1.2101661779081134
1.1915933528836755
1.1720430107526882
1.152492668621701
1.133919843597263
1.1163245356793745
1.1016617790811338
1.0909090909090908
1.083088954056696
1.0801564027370478
1.0801564027370478
1.0850439882697946
1.0928641251221896
1.1016617790811338
1.1094819159335287
1.1163245356793745
1.1231671554252198
1.1319648093841643
1.147605083088954
1.1788856304985338
1.2346041055718475
1.3235581622678396
1.4516129032258065
1.616813294232649
1.7810361681329423
1.948191593352884
2.1436950146627565
2.3411534701857284
2.5219941348973607
2.674486803519061
2.789833822091887
2.8670576735092865
2.9071358748778104
2.913978494623656
2.89345063538612
2.849462365591398
2.7947214076246336
2.7311827956989245
2.653958944281525
2.5669599217986314
2.474095796676442
2.378299120234604
2.280547409579668
2.1837732160312804
2.088954056695992
1.997067448680352
1.9071358748778104
1.8191593352883677
1.7341153470185728
1.66177908113392
1.5962854349951123
1.525904203323558
1.455522971652004
1.3890518084066472
1.3304007820136852
1.2805474095796676
1.2424242424242424
1.2179863147605083
1.2072336265884651
1.209188660801564
1.2228739002932552
1.2424242424242424
1.267839687194526
1.300097751710655
1.335288367546432
1.370478983382209
1.404692082111437
1.435972629521017
1.4623655913978495
1.482893450635386
1.4975562072336266
1.5053763440860215
1.5063538611925709
1.500488758553275
1.4916911045943304
1.478983382209189
1.458455522971652
1.4330400782013686
1.4056695992179864
1.375366568914956
1.3440860215053765
1.3118279569892473
1.2795698924731185
1.2473118279569892
1.2160312805474096
1.187683284457478
1.1681329423264908
1.1544477028347997
1.141739980449658
1.1329423264907137
1.1290322580645162
1.1319648093841643
1.1397849462365592
1.1515151515151516
1.166177908113392
1.181818181818182
1.1964809384164223
1.209188660801564
1.219941348973607
1.2297165200391007
1.241446725317693
1.260019550342131
1.295210166177908
1.3548387096774193
1.4467253176930597
1.573802541544477
1.7350928641251222
1.921798631476051
2.1221896383186705
2.320625610948192
2.5034213098729228
2.643206256109482
2.744868035190616
2.8299120234604107
2.886608015640274
2.9120234604105573
2.9071358748778104
2.87683284457478
2.8260019550342133
2.758553274682307
2.679374389051808
2.592375366568915
2.5004887585532747
2.406647116324536
2.321603128054741
2.243401759530792
2.160312805474096
2.075268817204301
1.992179863147605
1.9100684261974583
1.827956989247312
1.7458455522971652
1.6637341153470186
1.581622678396872
1.499511241446725
1.418377321603128
1.3509286412512218
1.2913000977517106
1.2297165200391007
1.1710654936461389
1.1192570869990224
1.078201368523949
1.0469208211143697
1.0273704789833822
1.0175953079178883
1.018572825024438
1.0283479960899315
1.04594330400782
1.0664711632453567
1.0899315738025417
1.1163245356793745
1.142717497556207
1.1681329423264908
1.1925708699902249
1.2150537634408602
1.2336265884652982
1.2482893450635386
1.2590420332355816
1.2668621700879763
1.2697947214076246
1.2697947214076246
1.2688172043010753
1.2649071358748778
1.2561094819159335
1.2443792766373412
1.2287390029325511
1.2101661779081134
1.1896383186705768
1.1691104594330402
1.1485826001955035
1.1290322580645162
1.1124144672531768
1.1006842619745845
1.0957966764418376
1.0957966764418376
1.0987292277614855
1.1055718475073313
1.1143695014662756
1.126099706744868
1.1378299120234605
1.1485826001955035
1.155425219941349
1.1593352883675463
1.164222873900293
1.1759530791788857
1.203323558162268
1.2443792766373412
1.3079178885630498
1.4115347018572826
1.5562072336265884
1.7360703812316716
1.9403714565004888
2.155425219941349
2.3655913978494625
2.555229716520039
2.7145650048875853
2.835777126099707
2.9159335288367547
2.9550342130987293
2.961876832844575
2.946236559139785
2.909090909090909
2.8533724340175954
2.782991202346041
2.702834799608993
2.6158357771261
2.5239491691104594
2.43108504398827
2.337243401759531
2.2453567937438903
2.1544477028347995
2.0762463343108504
2.004887585532747
1.927663734115347
1.8484848484848484
1.7683284457478006
1.6881720430107527
1.608993157380254
1.5298142717497556
1.452590420332356
1.3792766373411536
1.3118279569892473
1.2531769305962854
1.2111436950146628
1.181818181818182
1.1593352883675463
1.1466275659824048
1.144672531769306
1.152492668621701
1.1681329423264908
1.1906158357771262
1.2189638318670577
1.2502443792766371
1.281524926686217
1.3098729227761483
1.3343108504398826
1.3528836754643203
1.3665689149560116
1.375366568914956
1.3792766373411536
1.3782991202346042
1.3734115347018572
1.3636363636363635
1.3499511241446724
1.3333333333333333
1.313782991202346
1.29227761485826
1.2697947214076246
1.2502443792766371
