ppg
1.7126099706744868
1.6911045943304008
1.667644183773216
1.6480938416422288
1.629521016617791
1.6050830889540566
1.5777126099706744
1.547409579667644
1.5141739980449658
1.478005865102639
1.4389051808406648
1.3978494623655917
1.356793743890518
1.3176930596285434
1.2883675464320623
1.2776148582600195
1.2873900293255132
1.321603128054741
1.391006842619746
1.4975562072336266
1.640273704789834
1.8132942326490715
2.005865102639296
2.206256109481916
2.4027370478983383
2.5855327468230693
2.747800586510264
2.884652981427175
2.9824046920821115
3.048875855327468
3.102639296187683
3.139784946236559
3.158357771260997
3.1593352883675463
3.145650048875855
3.120234604105572
3.085043988269794
3.042033235581622
2.989247311827957
2.927663734115347
2.866080156402737
2.80058651026393
2.724340175953079
2.6402737047898337
2.550342130987292
2.4565004887585533
2.3626588465298144
2.2688172043010755
2.1788856304985336
2.0957966764418376
2.0195503421309877
1.9521016617790807
1.8944281524926687
1.8504398826979471
1.8172043010752688
1.7888563049853372
1.7663734115347018
1.7487781036168133
1.7341153470185728
1.7204301075268815
1.70772238514174
1.694037145650049
1.6793743890518085
1.6627565982404693
1.6441837732160314
1.6285434995112416
1.6138807429130009
1.595307917888563
1.5728250244379276
1.5464320625610948
1.5161290322580645
1.4838709677419355
1.4496578690127078
1.4134897360703813
1.3734115347018572
1.332355816226784
1.29227761485826
1.2570869990224829
1.2346041055718475
1.2287390029325511
1.2424242424242424
1.2864125122189638
1.367546432062561
1.4887585532746823
1.6451612903225807
1.828934506353861
2.0283479960899315
2.231671554252199
2.4281524926686218
2.606060606060606
2.7438905180840663
2.849462365591398
2.945259042033236
3.021505376344086
3.075268817204301
3.10752688172043
3.120234604105572
3.1163245356793743
3.0977517106549364
3.0664711632453567
3.0254154447702835
2.9745845552297165
2.9159335288367547
2.8563049853372435
2.793743890518084
2.720430107526881
2.6392961876832843
2.5513196480938416
2.4594330400782014
2.364613880742913
2.2688172043010755
2.174975562072336
2.0879765395894427
2.0087976539589443
1.9393939393939397
1.8856304985337244
1.8435972629521016
1.8035190615835777
1.76930596285435
1.7419354838709675
1.7204301075268815
1.704789833822092
1.694037145650049
1.6852394916911049
1.6764418377321604
1.6656891495601174
1.653958944281525
1.6383186705767352
1.624633431085044
1.6109481915933528
1.5923753665689149
1.5698924731182795
1.544477028347996
1.517106549364614
1.4868035190615836
1.4545454545454546
1.4193548387096775
1.3812316715542523
1.3401759530791788
1.2991202346041055
1.2658846529814272
1.241446725317693
1.2218963831867058
1.2179863147605083
1.238514173998045
1.29227761485826
1.3851417399804498
1.5161290322580645
1.6813294232649072
1.8699902248289344
2.0205278592375366
2.147605083088954
2.302052785923754
2.436950146627566
2.550342130987292
2.658846529814272
2.750733137829912
2.819159335288368
2.863147605083089
2.884652981427175
2.8856304985337244
2.8699902248289346
2.8406647116324537
2.80058651026393
2.750733137829912
2.6989247311827955
2.643206256109482
2.576735092864125
2.5004887585532747
2.4164222873900294
2.3255131964809386
2.228739002932551
2.1300097751710654
2.03128054740958
1.9335288367546437
1.8406647116324533
1.7556207233626588
1.678396871945259
1.616813294232649
1.56891495601173
1.5249266862170088
1.4868035190615836
1.4545454545454546
1.4301075268817205
1.412512218963832
1.3988269794721409
1.3870967741935485
1.3763440860215057
1.3655913978494625
1.35386119257087
1.3450635386119256
1.335288367546432
1.3196480938416422
1.2991202346041055
1.2766373411534702
1.2512218963831867
1.2238514173998043
1.1945259042033236
1.163245356793744
1.130987292277615
1.096774193548387
1.0596285434995112
1.0205278592375366
0.9882697947214076
0.9608993157380256
0.9315738025415444
0.9090909090909092
0.9042033235581622
0.9266862170087976
0.9843597262952102
1.0801564027370478
1.2160312805474096
1.3851417399804498
1.5777126099706744
1.782991202346041
1.962854349951124
2.1221896383186705
2.2854349951124147
2.4349951124144678
2.5610948191593352
2.659824046920821
2.730205278592375
2.774193548387097
2.7947214076246336
2.795698924731183
2.780058651026393
2.7517106549364616
2.7116324535679373
2.6666666666666665
2.616813294232649
2.557184750733138
2.489736070381232
2.4144672531769307
2.332355816226784
2.244379276637341
2.1515151515151514
2.0576735092864125
1.963831867057673
1.871945259042033
1.7839687194525904
1.7116324535679377
1.6500488758553276
1.5894428152492668
1.5356793743890518
1.490713587487781
1.4545454545454546
1.426197458455523
1.404692082111437
1.3890518084066472
1.3763440860215057
1.3665689149560116
1.3577712609970674
1.3528836754643203
1.3479960899315735
1.3391984359726294
1.3255131964809383
1.3079178885630498
1.2883675464320623
1.2649071358748778
1.2394916911045943
1.2111436950146628
1.1808406647116323
1.1485826001955035
1.1143695014662756
1.0791788856304985
1.050830889540567
1.024437927663734
0.9912023460410556
0.9550342130987292
0.9237536656891496
0.9032258064516128
0.9032258064516128
0.9335288367546432
1.0009775171065494
1.1085043988269794
1.2541544477028348
1.4330400782013686
1.606060606060606
1.7761485826001957
1.967741935483871
2.161290322580645
2.3411534701857284
2.4975562072336266
2.625610948191593
2.724340175953079
2.793743890518084
2.835777126099707
2.8533724340175954
2.852394916911046
2.8367546432062563
2.809384164222874
2.774193548387097
2.730205278592375
2.677419354838709
2.6177908113391983
2.5513196480938416
2.47702834799609
2.3978494623655915
2.313782991202346
2.2248289345063537
2.132942326490713
2.0410557184750733
1.962854349951124
1.8934506353861196
1.822091886608016
1.7556207233626588
1.696969696969697
1.6471163245356797
1.607038123167155
1.5777126099706744
1.5571847507331378
1.544477028347996
1.5356793743890518
1.5288367546432062
1.521994134897361
1.517106549364614
1.512218963831867
1.504398826979472
1.4936461388074291
1.478983382209189
1.4613880742913
1.4418377321603129
1.4193548387096775
1.3958944281524928
1.3714565004887584
1.3450635386119256
1.3157380254154447
1.2913000977517106
1.2688172043010753
1.238514173998045
1.2043010752688172
1.1681329423264908
1.1348973607038124
1.1114369501466277
1.10752688172043
1.130987292277615
1.1906158357771262
1.289345063538612
1.4271749755620724
1.5992179863147604
1.7683284457478006
1.9374389051808407
2.131964809384164
2.3313782991202348
2.5210166177908118
2.6901270772238512
2.831867057673509
2.943304007820137
3.024437927663734
3.078201368523949
3.1065493646138806
3.113391984359726
3.101661779081134
3.0772238514174
3.043010752688172
2.99902248289345
2.946236559139785
2.886608015640274
2.820136852394917
2.745845552297165
2.664711632453568
2.5777126099706744
2.4858260019550342
2.389051808406647
2.291300097751711
2.2052785923753664
2.126099706744868
2.0449657869012707
1.9667644183773216
1.8944281524926687
1.8318670576735088
1.7790811339198436
1.737047898338221
1.7038123167155426
1.6793743890518085
1.6608015640273706
1.6471163245356797
1.6383186705767352
1.6304985337243405
1.6207233626588464
1.6080156402737047
1.5923753665689149
1.573802541544477
1.5532746823069403
1.5317693059628543
1.5073313782991202
1.478983382209189
1.4486803519061584
1.4164222873900294
1.3822091886608017
1.35386119257087
1.3264907135874875
1.29227761485826
1.2541544477028348
1.2130987292277615
1.1730205278592376
1.1407624633431086
1.1241446725317692
1.1329423264907137
1.1759530791788857
1.2590420332355816
1.3851417399804498
1.521994134897361
1.6735092864125125
1.8641251221896384
2.0733137829912023
2.2668621700879767
2.436950146627566
2.5943304007820136
2.730205278592375
2.8406647116324537
2.924731182795699
2.983382209188661
3.0175953079178885
3.03128054740958
3.027370478983382
3.010752688172043
2.9853372434017595
2.952101661779081
2.911045943304008
2.86217008797654
2.806451612903226
2.742913000977517
2.6715542521994133
2.593352883675464
2.509286412512219
2.421309872922776
2.3411534701857284
2.264907135874878
2.1818181818181817
2.0987292277614857
2.018572825024438
1.945259042033236
1.8797653958944285
1.823069403714565
1.7761485826001957
1.737047898338221
1.7067448680351909
1.6852394916911049
1.6686217008797657
1.656891495601173
1.6480938416422288
1.6392961876832846
1.6285434995112416
1.616813294232649
1.6011730205278591
1.5826001955034212
1.5620723362658846
1.5395894428152492
1.5151515151515151
1.4887585532746823
1.4613880742913
1.4389051808406648
1.4173998044965788
1.3890518084066472
1.3558162267839686
1.3186705767350928
1.2795698924731185
1.2404692082111437
1.2072336265884651
1.18475073313783
1.181818181818182
1.206256109481916
1.2639296187683284
1.3587487781036167
1.4672531769305963
1.5933528836754642
1.7575757575757576
1.943304007820137
2.1358748778103616
2.32355816226784
2.495601173020528
2.6451612903225805
2.76930596285435
2.866080156402737
2.935483870967742
2.9804496578690127
3.0
3.0009775171065494
2.992179863147605
2.973607038123167
2.946236559139785
2.9100684261974585
2.865102639296188
2.812316715542522
2.752688172043011
2.6852394916911044
2.6099706744868034
2.527859237536657
2.450635386119257
2.3743890518084068
2.290322580645161
2.203323558162268
2.1163245356793743
2.032258064516129
1.9550342130987293
1.8856304985337244
1.825024437927664
1.7732160312805474
1.7302052785923754
1.696969696969697
1.6705767350928642
1.6529814271749756
1.640273704789834
1.6285434995112416
1.6177908113391983
1.606060606060606
1.5933528836754642
1.5786901270772238
1.563049853372434
1.5454545454545454
1.5249266862170088
1.5034213098729228
1.478983382209189
1.457478005865103
1.435972629521017
1.409579667644184
1.3792766373411536
1.346041055718475
1.3098729227761483
1.2717497556207231
1.2316715542521994
1.1935483870967742
1.1622678396871946
1.1466275659824048
1.1544477028347997
1.1925708699902249
1.252199413489736
1.33822091886608
1.466275659824047
1.6265884652981428
1.8093841642228736
2.002932551319648
2.196480938416422
2.377321603128055
2.539589442815249
2.67644183773216
2.7859237536656893
2.8670576735092865
2.916911045943304
2.9423264907135875
2.9550342130987293
2.9530791788856305
2.9374389051808407
2.911045943304008
2.874877810361681
2.8299120234604107
2.777126099706745
2.7145650048875853
2.6451612903225805
2.567937438905181
2.484848484848485
2.406647116324536
2.329423264907136
2.242424242424242
2.150537634408602
2.058651026392962
1.9696969696969695
1.8866080156402736
1.8093841642228736
1.739980449657869
1.6803519061583578
1.6314760508308896
1.5913978494623655
1.563049853372434
1.543499511241447
1.525904203323558
1.5112414467253177
1.498533724340176
1.4858260019550342
1.4731182795698925
1.458455522971652
1.4418377321603129
1.4222873900293256
1.3998044965786902
1.3743890518084063
1.3470185728250244
1.324535679374389
1.3040078201368523
1.2776148582600195
1.2473118279569892
1.2140762463343109
1.1779081133919844
1.13880742913001
1.0987292277614855
1.0576735092864125
1.0195503421309873
0.9912023460410556
0.9794721407624634
0.9882697947214076
1.0224828934506354
1.0909090909090908
1.198435972629521
1.3421309872922775
1.5151515151515151
1.7067448680351909
1.903225806451613
2.0948191593352883
2.271749755620724
2.426197458455523
2.5532746823069403
2.652003910068426
2.716520039100684
2.7546432062561097
2.777126099706745
2.78494623655914
2.777126099706745
2.7565982404692084
2.7253176930596283
2.684261974584555
2.634408602150537
2.576735092864125
2.5131964809384164
2.442815249266862
2.3743890518084068
2.304007820136853
2.222873900293255
2.134897360703812
2.0439882697947214
1.9530791788856303
1.865102639296188
1.782991202346041
1.7086999022482894
1.6422287390029326
1.585532746823069
1.5395894428152492
1.5034213098729228
1.479960899315738
1.4643206256109482
1.4516129032258065
1.4408602150537635
1.4320625610948192
1.4252199413489737
1.418377321603128
1.409579667644184
1.3978494623655917
1.383186705767351
1.3655913978494625
1.3450635386119256
1.3264907135874875
1.3088954056695992
1.2864125122189638
1.260019550342131
1.2316715542521994
1.2013685239491692
1.1691104594330402
1.1329423264907137
1.0948191593352885
1.0547409579667644
1.018572825024438
0.9912023460410556
0.9794721407624634
0.9882697947214076
1.0205278592375366
1.0840664711632453
1.1827956989247312
1.3176930596285434
1.4809384164222874
1.6637341153470186
1.855327468230694
2.0449657869012707
2.2218963831867056
2.3704789833822093
2.487781036168133
2.5718475073313782
2.6295210166177907
2.673509286412512
2.701857282502444
2.7126099706744866
2.7096774193548385
2.6940371456500487
2.667644183773216
2.634408602150537
2.593352883675464
2.5454545454545454
2.490713587487781
2.429130009775171
2.3685239491691106
2.3069403714565007
2.2355816226783967
2.1593352883675463
2.0791788856304985
1.9980449657869013
1.9188660801564028
1.844574780058651
1.7761485826001957
1.7174975562072337
1.667644183773216
1.6265884652981428
1.5992179863147604
1.5796676441837731
1.564027370478983
1.552297165200391
1.543499511241447
1.5356793743890518
1.5288367546432062
1.521016617790811
1.5112414467253177
1.500488758553275
1.4868035190615836
1.4711632453567938
1.457478005865103
1.4437927663734116
1.4252199413489737
1.4037145650048877
1.3792766373411536
1.3519061583577712
1.3225806451612905
1.2903225806451613
1.2570869990224829
1.2228739002932552
1.1886608015640274
1.1573802541544478
1.1348973607038124
1.126099706744868
1.1368523949169111
1.1710654936461389
1.2365591397849462
1.3362658846529814
1.4682306940371457
1.624633431085044
1.7976539589442817
1.975562072336266
2.1495601173020527
2.3098729227761488
2.4486803519061584
2.5513196480938416
2.625610948191593
2.689149560117302
2.735092864125122
2.7624633431085046
2.774193548387097
2.771260997067449
2.7565982404692084
2.732160312805474
2.699902248289345
2.6608015640273703
2.613880742913001
2.560117302052786
2.506353861192571
2.449657869012708
2.383186705767351
2.3098729227761488
2.231671554252199
2.1495601173020527
2.0664711632453567
1.9853372434017595
1.90811339198436
1.836754643206256
1.772238514173998
1.7174975562072337
1.675464320625611
1.643206256109482
1.6138807429130009
1.590420332355816
1.5718475073313782
1.5571847507331378
1.544477028347996
1.533724340175953
1.52297165200391
1.5112414467253177
1.498533724340176
1.482893450635386
1.4652981427174976
1.4496578690127078
1.4349951124144673
1.414467253176931
1.3900293255131966
1.3636363636363635
1.3362658846529814
1.3069403714565004
1.2766373411534702
1.2434017595307918
1.2072336265884651
1.1710654936461389
1.1358748778103618
1.1124144672531768
1.1026392961876832
1.1055718475073313
1.1329423264907137
1.1906158357771262
1.281524926686217
1.4027370478983383
1.5493646138807429
1.710654936461388
1.8778103616813293
2.042033235581622
2.193548387096774
2.326490713587488
2.4252199413489737
2.4975562072336266
2.560117302052786
2.606060606060606
2.635386119257087
2.649071358748778
2.649071358748778
2.638318670576735
2.616813294232649
2.5855327468230693
2.5464320625610948
2.501466275659824
2.4545454545454546
2.4056695992179864
2.347996089931574
2.283479960899316
2.212121212121212
2.1358748778103616
2.0557184750733137
1.9745845552297163
1.895405669599218
1.8191593352883677
1.7487781036168133
1.6842619745845553
1.6265884652981428
1.5826001955034212
1.5483870967741935
1.517106549364614
1.4897360703812317
1.4672531769305963
1.4506353861192571
1.436950146627566
1.426197458455523
1.41544477028348
1.4037145650048877
1.391006842619746
1.3763440860215057
1.364613880742913
1.3528836754643203
1.3362658846529814
1.316715542521994
1.295210166177908
1.2727272727272727
1.2473118279569892
1.2189638318670577
1.1886608015640274
1.155425219941349
1.121212121212121
1.0850439882697946
1.050830889540567
1.0273704789833822
1.0156402737047898
1.0127077223851415
1.029325513196481
1.072336265884653
1.1456500488758554
1.249266862170088
1.3792766373411536
1.5288367546432062
1.686217008797654
1.8416422287390029
1.9872922776148585
2.103616813294233
2.196480938416422
2.2825024437927666
2.35386119257087
2.406647116324536
2.441837732160313
2.4604105571847508
2.464320625610948
2.4565004887585533
2.4379276637341154
2.4115347018572826
2.378299120234604
2.3391984359726297
2.2991202346041058
2.2561094819159337
2.203323558162268
2.142717497556207
2.078201368523949
2.0087976539589443
1.9364613880742916
1.8621700879765395
1.7888563049853372
1.7174975562072337
1.6500488758553276
1.5884652981427174
1.5395894428152492
1.501466275659824
1.4643206256109482
1.4320625610948192
1.404692082111437
1.383186705767351
1.367546432062561
1.3558162267839686
1.346041055718475
1.3372434017595307
1.327468230694037
1.316715542521994
1.3049853372434017
1.295210166177908
1.2854349951124144
1.2717497556207231
1.2541544477028348
1.2336265884652982
1.2121212121212122
1.1886608015640274
1.164222873900293
1.1368523949169111
1.1085043988269794
1.0772238514173995
1.0449657869012707
1.018572825024438
0.997067448680352
0.975562072336266
0.9638318670576737
0.967741935483871
0.9941348973607038
1.0478983382209188
1.130987292277615
1.2404692082111437
1.3714565004887584
1.5151515151515151
1.66177908113392
1.8025415444770283
1.9178885630498532
2.0117302052785924
2.099706744868035
2.1730205278592374
2.270772238514174
2.3714565004887587
2.4252199413489737
2.447702834799609
2.449657869012708
2.4359726295210167
2.412512218963832
2.380254154447703
2.346041055718475
2.3088954056695994
2.26197458455523
2.2082111436950145
2.147605083088954
2.081133919843597
2.010752688172043
1.9364613880742916
1.8602150537634408
1.7839687194525904
1.710654936461388
1.6412512218963833
1.5865102639296187
1.5405669599217986
1.4936461388074291
1.4506353861192571
1.4134897360703813
1.383186705767351
1.359726295210166
1.3421309872922775
1.3284457478005864
1.3186705767350928
1.310850439882698
1.3020527859237536
1.2932551319648091
1.2873900293255132
1.2805474095796676
1.2688172043010753
1.2531769305962854
1.2346041055718475
1.2140762463343109
1.1915933528836755
1.1671554252199414
1.1407624633431086
1.1143695014662756
1.0869990224828934
1.0576735092864125
1.035190615835777
1.0156402737047898
0.989247311827957
0.9638318670576737
0.9452590420332356
0.9413489736070382
0.9589442815249268
1.0048875855327468
1.0811339198435972
1.187683284457478
1.3206256109481915
1.4721407624633431
1.6314760508308896
1.7702834799608993
1.8934506353861196
2.0175953079178885
2.1300097751710654
2.2248289345063537
2.2981427174975564
2.3499511241446727
2.383186705767351
2.398826979472141
2.39980449657869
2.388074291300098
2.3685239491691106
2.345063538611926
2.3167155425219943
2.280547409579668
2.2385141739980448
2.189638318670577
2.1358748778103616
2.075268817204301
2.010752688172043
1.9423264907135875
1.8729227761485825
1.804496578690127
1.7380254154447703
1.6744868035190617
1.6236559139784943
1.581622678396872
1.5395894428152492
1.501466275659824
1.469208211143695
1.4437927663734116
1.4252199413489737
1.4134897360703813
1.4056695992179864
1.4007820136852396
1.396871945259042
1.3919843597262953
1.3900293255131966
1.388074291300098
1.380254154447703
1.3685239491691104
1.3528836754643203
1.3362658846529814
1.3176930596285434
1.2971652003910068
1.2766373411534702
1.2541544477028348
1.2316715542521994
1.2072336265884651
1.1808406647116323
1.1593352883675463
1.1407624633431086
1.1163245356793745
1.0909090909090908
1.072336265884653
1.0694037145650048
1.0879765395894427
1.133919843597263
1.209188660801564
1.3157380254154447
1.4486803519061584
1.6011730205278591
1.7429130009775171
1.87683284457478
2.022482893450636
2.1622678396871944
2.2873900293255134
2.3929618768328447
2.4750733137829912
2.535679374389052
2.576735092864125
2.5992179863147604
2.606060606060606
2.60019550342131
2.58455522971652
2.563049853372434
2.5376344086021505
2.506353861192571
2.469208211143695
2.426197458455523
2.378299120234604
2.324535679374389
2.264907135874878
2.20039100684262
2.132942326490713
2.065493646138808
1.9990224828934504
1.9423264907135875
1.89247311827957
1.842619745845552
1.7976539589442817
1.758553274682307
1.726295210166178
1.7008797653958945
1.683284457478006
1.672531769305963
1.6656891495601174
1.6598240469208212
1.6549364613880744
1.6490713587487782
1.6441837732160314
1.6392961876832846
1.6304985337243405
1.6187683284457477
1.6050830889540566
1.5894428152492668
1.5708699902248289
1.5503421309872922
1.5278592375366569
1.504398826979472
1.479960899315738
1.4545454545454546
1.434017595307918
1.41544477028348
1.3900293255131966
1.3616813294232648
1.335288367546432
1.3157380254154447
1.3098729227761483
1.3255131964809383
1.3695014662756595
1.4437927663734116
1.5493646138807429
1.6813294232649072
1.8328445747800584
1.9726295210166176
2.104594330400782
2.249266862170088
2.389051808406647
2.5161290322580645
2.6236559139784945
2.710654936461388
2.776148582600196
2.822091886608016
2.849462365591398
2.8611925708699903
2.859237536656892
2.8475073313782997
2.827956989247312
2.801564027370479
2.7702834799608995
2.732160312805474
2.686217008797654
2.633431085043988
2.573802541544477
2.5083088954056696
2.4389051808406648
2.366568914956012
2.29227761485826
2.219941348973607
2.158357771260997
2.102639296187683
2.0449657869012707
1.991202346041056
1.9423264907135875
1.8993157380254155
1.8641251221896384
1.836754643206256
1.8162267839687196
1.7996089931573802
1.7859237536656891
1.7741935483870968
1.7653958944281525
1.7575757575757576
1.7468230694037146
1.7350928641251222
1.721407624633431
1.704789833822092
1.6852394916911049
1.6637341153470186
1.6412512218963833
1.6177908113391983
1.5923753665689149
1.565982404692082
1.5376344086021505
1.5131964809384164
1.4887585532746823
1.4594330400782014
1.4271749755620724
1.3958944281524928
1.370478983382209
1.3577712609970674
1.3655913978494625
1.3998044965786902
1.4643206256109482
1.560117302052786
1.686217008797654
1.812316715542522
1.9423264907135875
2.0957966764418376
2.2561094819159337
2.410557184750733
2.5513196480938416
2.6725317693059627
2.771260997067449
2.8475073313782997
2.902248289345064
2.936461388074292
2.959921798631476
2.9716520039100685
2.9657869012707723
2.949169110459433
2.9237536656891496
2.8914956011730206
2.852394916911046
2.807429130009776
2.755620723362659
2.6959921798631474
2.631476050830889
2.5610948191593352
2.486803519061584
2.409579667644184
2.340175953079179
2.2766373411534704
2.210166177908113
2.144672531769306
2.083088954056696
2.027370478983382
1.9794721407624636
1.9403714565004888
1.90811339198436
1.8826979472140764
1.8631476050830889
1.8484848484848484
1.8377321603128052
1.8299120234604105
1.8201368523949168
1.8103616813294232
1.7986314760508308
1.7859237536656891
1.7702834799608993
1.75366568914956
1.7350928641251222
1.7067448680351909
1.6793743890518085
1.6588465298142718
1.6344086021505375
1.6138807429130009
1.5933528836754642
1.5669599217986314
1.5366568914956011
1.5034213098729228
1.4701857282502444
1.4408602150537635
1.4222873900293256
1.4213098729227762
1.444770283479961
1.499511241446725
1.5865102639296187
1.6852394916911049
1.796676441837732
1.9403714565004888
2.101661779081134
2.267839687194526
2.4281524926686218
2.572825024437928
2.696969696969697
2.7976539589442817
2.874877810361681
2.9286412512218964
2.961876832844575
2.9775171065493646
2.9765395894428157
2.962854349951124
2.940371456500489
2.9100684261974585
2.8719452590420333
2.8269794721407626
2.774193548387097
2.7145650048875853
2.6480938416422286
2.576735092864125
2.5004887585532747
2.420332355816227
