ppg
1.2121212121212122
1.1925708699902249
1.173998044965787
1.1573802541544478
1.141739980449658
1.1290322580645162
1.1163245356793745
1.1036168132942326
1.0957966764418376
1.0899315738025417
1.0811339198435972
1.0694037145650048
1.056695992179863
1.043010752688172
1.0283479960899315
1.013685239491691
1.0
0.9872922776148584
0.975562072336266
0.9667644183773216
0.9618768328445748
0.9638318670576737
0.9765395894428152
0.9980449657869012
1.0303030303030305
1.0772238514173995
1.1397849462365592
1.219941348973607
1.313782991202346
1.4203323558162269
1.5376344086021505
1.6608015640273706
1.7859237536656891
1.8934506353861196
1.988269794721408
2.088954056695992
2.1867057673509285
2.275659824046921
2.3528836754643208
2.419354838709677
2.474095796676442
2.5210166177908118
2.5591397849462365
2.5884652981427174
2.608993157380254
2.621700879765396
2.624633431085044
2.6236559139784945
2.6207233626588464
2.6148582600195502
2.603128054740958
2.5855327468230693
2.5610948191593352
2.5317693059628543
2.498533724340176
2.4594330400782014
2.41544477028348
2.36950146627566
2.326490713587488
2.2844574780058653
2.2404692082111435
2.1955034213098727
2.150537634408602
2.10752688172043
2.0664711632453567
2.026392961876833
1.989247311827957
1.95405669599218
1.921798631476051
1.8905180840664717
1.86119257086999
1.835777126099707
1.8113391984359728
1.7839687194525904
1.7556207233626588
1.7243401759530792
1.6901270772238517
1.6559139784946235
1.6207233626588464
1.585532746823069
1.5503421309872922
1.5141739980449658
1.478005865102639
1.4486803519061584
1.4213098729227762
1.391006842619746
1.3587487781036167
1.3264907135874875
1.2961876832844574
1.2668621700879763
1.238514173998045
1.2121212121212122
1.1857282502443791
1.1612903225806452
1.13880742913001
1.118279569892473
1.104594330400782
1.0948191593352885
1.0821114369501466
1.067448680351906
1.0518084066471165
1.0361681329423265
1.021505376344086
1.0068426197458455
0.9931573802541545
0.9794721407624634
0.9667644183773216
0.95405669599218
0.9472140762463344
0.9423264907135877
0.9345063538611924
0.9247311827956988
0.9110459433040078
0.8963831867057673
0.8836754643206256
0.8758553274682307
0.873900293255132
0.8807429130009775
0.9002932551319648
0.9345063538611924
0.9843597262952102
1.0420332355816226
1.110459433040078
1.2003910068426198
1.3040078201368523
1.418377321603128
1.541544477028348
1.6686217008797657
1.793743890518084
1.9120234604105573
2.022482893450636
2.12316715542522
2.2130987292277613
2.2825024437927666
2.3362658846529816
2.3870967741935485
2.4330400782013686
2.4701857282502444
2.496578690127077
2.515151515151515
2.5268817204301075
2.529814271749756
2.5268817204301075
2.5180840664711632
2.504398826979472
2.487781036168133
2.4672531769305963
2.4408602150537635
2.409579667644184
2.439882697947214
2.496578690127077
2.4995112414467253
2.47702834799609
2.443792766373412
2.407624633431085
2.3704789833822093
2.334310850439883
2.300097751710655
2.270772238514174
2.24633431085044
2.222873900293255
2.201368523949169
2.1808406647116323
2.1593352883675463
2.1378299120234603
2.117302052785924
2.0987292277614857
2.078201368523949
2.0547409579667644
2.029325513196481
2.006842619745845
1.9853372434017595
1.9589442815249267
1.9315738025415443
1.905180840664712
1.8778103616813293
1.8494623655913975
1.822091886608016
1.7947214076246334
1.7683284457478006
1.7409579667644184
1.7145650048875856
1.6901270772238517
1.6715542521994136
1.6549364613880744
1.6363636363636365
1.6158357771260996
1.5943304007820136
1.5747800586510263
1.5581622678396871
1.543499511241447
1.530791788856305
1.520039100684262
1.5102639296187683
1.500488758553275
1.4946236559139785
1.490713587487781
1.4848484848484849
1.4760508308895406
1.4643206256109482
1.4496578690127078
1.4349951124144673
1.4203323558162269
1.4066471163245358
1.392961876832845
1.380254154447703
1.3695014662756595
1.3616813294232648
1.3587487781036167
1.3616813294232648
1.3695014662756595
1.3870967741935485
1.418377321603128
1.4672531769305963
1.5347018572825024
1.6207233626588464
1.7243401759530792
1.8416422287390029
1.9696969696969695
2.103616813294233
2.220918866080156
2.3284457478005867
2.4486803519061584
2.56891495601173
2.6832844574780057
2.7859237536656893
2.875855327468231
2.9530791788856305
3.0175953079178885
3.072336265884653
3.118279569892473
3.155425219941349
3.182795698924731
3.196480938416422
3.2023460410557183
3.2082111436950145
3.2111436950146626
3.2082111436950145
3.19941348973607
3.1847507331378297
3.164222873900293
3.136852394916911
3.102639296187683
3.0635386119257086
3.0195503421309877
2.9745845552297165
2.9286412512218964
2.87683284457478
2.8211143695014664
2.7653958944281527
2.7096774193548385
2.6559139784946235
2.603128054740958
2.555229716520039
2.5112414467253177
2.4701857282502444
2.429130009775171
2.3900293255131966
2.356793743890518
2.324535679374389
2.2883675464320627
2.251221896383187
2.212121212121212
2.1730205278592374
2.134897360703812
2.0987292277614857
2.0625610948191597
2.0254154447702835
1.9872922776148585
1.949169110459433
1.9149560117302051
1.8826979472140764
1.8455522971652003
1.804496578690127
1.7634408602150538
1.7243401759530792
1.6881720430107527
1.6549364613880744
1.6226783968719452
1.5923753665689149
1.564027370478983
1.5366568914956011
1.509286412512219
1.4897360703812317
1.4731182795698925
1.4516129032258065
1.4301075268817205
1.4105571847507332
1.392961876832845
1.3773216031280548
1.3636363636363635
1.348973607038123
1.332355816226784
1.3157380254154447
1.2991202346041055
1.289345063538612
1.2805474095796676
1.2697947214076246
1.2580645161290325
1.2443792766373412
1.2297165200391007
1.2150537634408602
1.2023460410557183
1.1915933528836755
1.1837732160312806
1.1827956989247312
1.1945259042033236
1.2238514173998043
1.2649071358748778
1.3196480938416422
1.396871945259042
1.4965786901270772
1.6148582600195502
1.7468230694037146
1.8866080156402736
2.03128054740958
2.176930596285435
2.318670576735093
2.453567937438905
2.5806451612903225
2.6823069403714563
2.7673509286412514
2.8533724340175954
2.9335288367546437
3.006842619745845
3.072336265884653
3.129032258064516
3.177908113391984
3.219941348973607
3.2551319648093844
3.2844574780058653
3.30791788856305
3.3255131964809386
3.332355816226784
3.3313782991202348
3.3284457478005867
3.3225806451612905
3.3118279569892475
3.2932551319648096
3.2658846529814274
3.228739002932551
3.1837732160312804
3.131964809384164
3.074291300097752
3.0117302052785924
2.9501466275659824
2.8905180840664717
2.8260019550342133
2.760508308895406
2.6959921798631474
2.633431085043988
2.573802541544477
2.5180840664711632
2.466275659824047
2.4173998044965788
2.372434017595308
2.3284457478005867
2.290322580645161
2.257086999022483
2.2218963831867056
2.1847507331378297
2.147605083088954
2.1114369501466275
2.075268817204301
2.037145650048876
1.9980449657869013
1.9579667644183771
1.9149560117302051
1.8699902248289344
1.826001955034213
1.7888563049853372
1.7546432062561097
1.7165200391006843
1.6774193548387095
1.6383186705767352
1.6001955034213098
1.564027370478983
1.5288367546432062
1.495601173020528
1.4643206256109482
1.434017595307918
1.4056695992179864
1.3841642228739004
1.3665689149560116
1.3470185728250244
1.3264907135874875
1.305962854349951
1.2873900293255132
1.2688172043010753
1.2512218963831867
1.2336265884652982
1.217008797653959
1.2013685239491692
1.18475073313783
1.1681329423264908
1.1573802541544478
1.1505376344086022
1.1397849462365592
1.1300097751710656
1.1241446725317692
1.1231671554252198
1.130987292277615
1.1505376344086022
1.1857282502443791
1.241446725317693
1.2776148582600195
1.310850439882698
1.3714565004887584
1.4486803519061584
1.5503421309872922
1.667644183773216
1.7917888563049853
1.945259042033236
2.081133919843597
2.174975562072336
2.269794721407625
2.3597262952101663
2.442815249266862
2.5180840664711632
2.5835777126099706
2.631476050830889
2.6666666666666665
2.701857282502444
2.7331378299120237
2.7614858260019552
2.78494623655914
2.8044965786901277
2.820136852394917
2.8299120234604107
2.833822091886608
2.831867057673509
2.8240469208211145
2.809384164222874
2.7869012707722387
2.7595307917888565
2.7262952101661777
2.6852394916911044
2.638318670576735
2.5865102639296187
2.530791788856305
2.474095796676442
2.4164222873900294
2.358748778103617
2.3010752688172045
2.24633431085044
2.198435972629521
2.1544477028347995
2.1094819159335287
2.064516129032258
2.0234604105571847
1.9853372434017595
1.9501466275659824
1.9159335288367547
1.8836754643206255
1.8514173998044965
1.8201368523949168
1.7898338220918866
1.7634408602150538
1.7380254154447703
1.70772238514174
1.675464320625611
1.6422287390029326
1.6080156402737047
1.5728250244379276
1.5376344086021505
1.504398826979472
1.4711632453567938
1.4389051808406648
1.4076246334310851
1.3792766373411536
1.3587487781036167
1.3401759530791788
1.3176930596285434
1.29227761485826
1.267839687194526
1.2434017595307918
1.2179863147605083
1.1935483870967742
1.1710654936461389
1.1495601173020529
1.1300097751710656
1.1114369501466277
1.0987292277614855
1.0879765395894427
1.0742913000977516
1.0586510263929618
1.043010752688172
1.0263929618768328
1.010752688172043
0.9951124144672532
0.9775171065493646
0.959921798631476
0.9433040078201368
0.927663734115347
0.9159335288367546
0.9130009775171064
0.9178885630498532
0.9286412512218964
0.9530791788856304
0.9921798631476052
1.0488758553274682
1.1231671554252198
1.2140762463343109
1.3196480938416422
1.436950146627566
1.5620723362658846
1.6920821114369502
1.804496578690127
1.9042033235581624
2.010752688172043
2.114369501466276
2.2111436950146626
2.3010752688172045
2.3812316715542523
2.450635386119257
2.512218963831867
2.565982404692082
2.610948191593353
2.6480938416422286
2.679374389051808
2.699902248289345
2.7116324535679373
2.721407624633431
2.727272727272727
2.7282502443792764
2.724340175953079
2.7145650048875853
2.697947214076246
2.673509286412512
2.643206256109482
2.6080156402737047
2.5650048875855327
2.5219941348973607
2.4780058651026398
2.4281524926686218
2.376344086021505
2.312805474095797
2.257086999022483
2.218963831867057
2.1788856304985336
2.129032258064516
2.085043988269794
2.053763440860215
2.022482893450636
1.992179863147605
1.964809384164223
1.9393939393939397
1.9120234604105573
1.8836754643206255
1.8533724340175952
1.823069403714565
1.7927663734115349
1.7644183773216031
1.7341153470185728
1.7018572825024438
1.667644183773216
1.6334310850439884
1.6050830889540566
1.5786901270772238
1.5513196480938416
1.521016617790811
1.490713587487781
1.4594330400782014
1.4271749755620724
1.396871945259042
1.3695014662756595
1.343108504398827
1.3176930596285434
1.2942326490713587
1.2727272727272727
1.2570869990224829
1.2443792766373412
1.227761485826002
1.2101661779081134
1.1915933528836755
1.1730205278592376
1.155425219941349
1.1407624633431086
1.1280547409579669
1.1143695014662756
1.1006842619745845
1.086021505376344
1.0762463343108504
1.064516129032258
1.050830889540567
1.0410557184750733
1.0303030303030305
1.018572825024438
1.0068426197458455
0.997067448680352
0.9912023460410556
0.9980449657869012
1.0117302052785924
1.029325513196481
1.0586510263929618
1.1231671554252198
1.1964809384164223
1.2590420332355816
1.346041055718475
1.4838709677419355
1.6490713587487782
1.793743890518084
1.9266862170087975
2.047898338220919
2.158357771260997
2.2580645161290325
2.3284457478005867
2.386119257086999
2.452590420332356
2.512218963831867
2.5542521994134897
2.591397849462365
2.633431085043988
2.6637341153470184
2.6852394916911044
2.6989247311827955
2.7067448680351904
2.710654936461388
2.705767350928641
2.6911045943304006
2.673509286412512
2.650048875855328
2.622678396871945
2.591397849462365
2.5542521994134897
2.5112414467253177
2.464320625610948
2.4144672531769307
2.363636363636364
2.312805474095797
2.2639296187683287
2.219941348973607
2.1808406647116323
2.1417399804496577
2.102639296187683
2.065493646138808
2.032258064516129
2.0019550342130987
1.9726295210166176
1.9442815249266865
1.916911045943304
1.8905180840664717
1.8631476050830889
1.8377321603128052
1.8132942326490715
1.7839687194525904
1.7517106549364614
1.718475073313783
1.6852394916911049
1.651026392961877
1.6158357771260996
1.5786901270772238
1.5405669599217986
1.504398826979472
1.4682306940371457
1.434017595307918
1.4066471163245358
1.3822091886608017
1.3528836754643203
1.3225806451612905
1.321603128054741
1.335288367546432
1.327468230694037
1.3098729227761483
1.289345063538612
1.2668621700879763
1.2443792766373412
1.2228739002932552
1.2082111436950147
1.1964809384164223
1.181818181818182
1.166177908113392
1.1505376344086022
1.1358748778103618
1.1221896383186705
1.1094819159335287
1.096774193548387
1.0821114369501466
1.064516129032258
1.04594330400782
1.0273704789833822
1.0146627565982405
1.0058651026392962
0.9951124144672532
0.9863147605083088
0.9824046920821116
0.9853372434017597
0.9990224828934506
1.0263929618768328
1.067448680351906
1.1241446725317692
1.198435972629521
1.2873900293255132
1.3763440860215057
1.4711632453567938
1.5835777126099706
1.704789833822092
1.828934506353861
1.9521016617790807
2.071358748778104
2.1818181818181817
2.280547409579668
2.367546432062561
2.442815249266862
2.505376344086021
2.558162267839687
2.595307917888563
2.621700879765396
2.6451612903225805
2.66177908113392
2.670576735092864
2.674486803519061
2.6725317693059627
2.6637341153470184
2.650048875855328
2.632453567937439
2.608993157380254
2.5806451612903225
2.550342130987292
2.517106549364614
2.479960899315738
2.4389051808406648
2.396871945259042
2.355816226783969
2.3167155425219943
2.280547409579668
2.24633431085044
2.2130987292277613
2.1808406647116323
2.150537634408602
2.12316715542522
2.101661779081134
2.0821114369501466
2.060606060606061
2.037145650048876
2.0146627565982405
1.991202346041056
1.9667644183773216
1.9423264907135875
1.9188660801564028
1.8934506353861196
1.8670576735092863
1.839687194525904
1.8142717497556209
1.790811339198436
1.7634408602150538
1.7341153470185728
1.7028347996089932
1.6715542521994136
1.6422287390029326
1.6138807429130009
1.5865102639296187
1.5591397849462365
1.5327468230694037
1.509286412512219
1.4868035190615836
1.469208211143695
1.456500488758553
1.4418377321603129
1.4291300097751711
1.418377321603128
1.4086021505376345
1.3988269794721409
1.3900293255131966
1.3822091886608017
1.375366568914956
1.370478983382209
1.3655913978494625
1.364613880742913
1.364613880742913
1.3616813294232648
1.3558162267839686
1.3499511241446724
1.343108504398827
1.3343108504398826
1.327468230694037
1.321603128054741
1.3176930596285434
1.3176930596285434
1.3235581622678396
1.3411534701857282
1.3685239491691104
1.4056695992179864
1.458455522971652
1.5288367546432062
1.616813294232649
1.7204301075268815
1.835777126099707
1.959921798631476
2.0879765395894427
2.21505376344086
2.337243401759531
2.453567937438905
2.547409579667644
2.624633431085044
2.702834799608993
2.777126099706745
2.843597262952102
2.900293255131965
2.9472140762463344
2.983382209188661
3.0097751710654936
3.027370478983382
3.038123167155425
3.043010752688172
3.043010752688172
3.035190615835777
3.022482893450636
3.005865102639296
2.98435972629521
2.956989247311828
2.9257086999022484
2.889540566959922
2.8475073313782997
2.8025415444770285
2.755620723362659
2.708699902248289
2.662756598240469
2.6207233626588464
2.5806451612903225
2.5386119257087
2.4995112414467253
2.463343108504399
2.4301075268817205
2.398826979472141
2.36950146627566
2.340175953079179
2.3098729227761488
2.278592375366569
2.247311827956989
2.217986314760508
2.190615835777126
2.160312805474096
2.1280547409579667
2.093841642228739
2.0576735092864125
2.018572825024438
1.981427174975562
1.9442815249266865
1.9090909090909087
1.8748778103616808
1.839687194525904
1.804496578690127
1.7761485826001957
1.750733137829912
1.7204301075268815
1.6881720430107527
1.656891495601173
1.6265884652981428
1.5972629521016617
1.5679374389051808
1.5405669599217986
1.5141739980449658
1.4916911045943304
1.4711632453567938
1.4545454545454546
1.4408602150537635
1.426197458455523
1.4105571847507332
1.3958944281524928
1.3822091886608017
1.3695014662756595
1.356793743890518
1.3440860215053765
1.332355816226784
1.3186705767350928
1.3040078201368523
1.289345063538612
1.2805474095796676
1.2717497556207231
1.2590420332355816
1.24633431085044
1.2355816226783969
1.2267839687194526
1.2228739002932552
1.227761485826002
1.24633431085044
1.2825024437927663
1.33822091886608
1.412512218963832
1.4916911045943304
1.5786901270772238
1.6881720430107527
1.8132942326490715
1.945259042033236
2.0791788856304985
2.2130987292277613
2.3421309872922778
2.463343108504399
2.575757575757576
2.678396871945259
2.76930596285435
2.8475073313782997
2.905180840664712
2.949169110459433
2.9931573802541545
3.035190615835777
3.0733137829912023
3.1065493646138806
3.132942326490713
3.15347018572825
3.16911045943304
3.179863147605083
3.1867057673509285
3.187683284457478
3.1788856304985336
3.164222873900293
3.1485826001955037
3.1280547409579667
3.099706744868035
3.0625610948191597
3.0175953079178885
2.9657869012707723
2.9071358748778104
2.844574780058651
2.7810361681329425
2.6832844574780057
2.5718475073313782
2.49266862170088
2.43108504398827
2.375366568914956
2.3255131964809386
2.280547409579668
2.2375366568914954
2.1974584555229715
2.158357771260997
2.121212121212121
2.085043988269794
2.0498533724340176
2.016617790811339
1.986314760508309
1.959921798631476
1.9315738025415443
1.903225806451613
1.8729227761485825
1.8416422287390029
1.8093841642228736
1.7771260997067448
1.7448680351906158
1.7116324535679377
1.678396871945259
1.64613880742913
1.616813294232649
1.5923753665689149
1.5708699902248289
1.5464320625610948
1.521016617790811
1.495601173020528
1.4721407624633431
1.4496578690127078
1.4271749755620724
1.404692082111437
1.383186705767351
1.3636363636363635
1.3450635386119256
1.3313782991202343
1.3196480938416422
1.305962854349951
1.2942326490713587
1.2825024437927663
1.2697947214076246
1.2561094819159335
1.2424242424242424
1.227761485826002
1.2130987292277615
1.198435972629521
1.1837732160312806
1.1710654936461389
1.1652003910068427
1.1652003910068427
1.1691104594330402
1.1827956989247312
1.2072336265884651
1.2453567937438903
1.2961876832844574
1.3626588465298142
1.444770283479961
1.5395894428152492
1.6471163245356797
1.761485826001955
1.8641251221896384
1.959921798631476
2.0664711632453567
2.1739980449657867
2.2766373411534704
2.3704789833822093
2.455522971652004
2.530791788856305
2.598240469208211
2.656891495601173
2.705767350928641
2.747800586510264
2.78494623655914
2.809384164222874
2.8260019550342133
2.841642228739003
2.8533724340175954
2.86217008797654
2.8670576735092865
2.865102639296188
2.8582600195503423
2.84652981427175
2.83088954056696
2.809384164222874
2.782013685239492
2.7517106549364616
2.716520039100684
2.675464320625611
2.6285434995112413
2.5777126099706744
2.5239491691104594
2.4701857282502444
2.4164222873900294
2.363636363636364
2.312805474095797
2.2639296187683287
2.219941348973607
2.1788856304985336
2.144672531769306
2.115347018572825
2.086021505376344
2.0576735092864125
2.027370478983382
1.9960899315738023
1.964809384164223
1.9345063538611929
1.9042033235581624
1.873900293255132
1.8416422287390029
1.8093841642228736
1.7810361681329423
1.7556207233626588
1.7272727272727273
1.6979472140762464
1.667644183773216
1.6363636363636365
1.606060606060606
1.5757575757575757
1.544477028347996
1.5141739980449658
1.4858260019550342
1.4604105571847508
1.4408602150537635
1.4242424242424243
1.4037145650048877
1.383186705767351
1.3636363636363635
1.3450635386119256
1.3264907135874875
1.3088954056695992
1.29227761485826
1.2756598240469208
1.2590420332355816
1.2443792766373412
1.23069403714565
1.2218963831867058
1.2140762463343109
1.2023460410557183
1.1896383186705768
1.1759530791788857
1.1612903225806452
1.147605083088954
1.1358748778103618
1.126099706744868
1.121212121212121
1.1231671554252198
1.1358748778103618
1.1573802541544478
1.1906158357771262
1.238514173998045
1.303030303030303
1.383186705767351
1.4760508308895406
1.5786901270772238
1.6881720430107527
1.8025415444770283
1.916911045943304
2.0283479960899315
2.1358748778103616
2.236559139784946
2.3167155425219943
2.383186705767351
2.450635386119257
2.5141739980449658
2.570869990224829
2.618768328445748
2.659824046920821
2.6930596285435
2.718475073313783
2.7390029325513194
2.7546432062561097
2.764418377321604
2.7653958944281527
2.760508308895406
2.7536656891495603
2.7438905180840663
2.729227761485826
2.7096774193548385
2.6832844574780057
2.650048875855328
2.6129032258064515
2.570869990224829
2.525904203323558
2.4789833822091887
2.4301075268817205
2.3841642228739004
2.3411534701857284
2.2961876832844577
2.2531769305962857
2.212121212121212
2.1739980449657867
2.139784946236559
2.10752688172043
2.078201368523949
2.050830889540567
2.022482893450636
1.9931573802541545
1.967741935483871
1.943304007820137
1.9159335288367547
1.8875855327468232
1.8592375366568916
1.83088954056696
1.8005865102639296
1.76930596285435
1.7380254154447703
1.70772238514174
1.6764418377321604
1.643206256109482
1.6099706744868034
1.581622678396872
1.5562072336265884
1.5288367546432062
1.500488758553275
1.4750733137829912
1.4496578690127078
1.423264907135875
1.3998044965786902
1.3773216031280548
1.356793743890518
1.3372434017595307
1.3186705767350928
1.3049853372434017
1.2932551319648091
1.278592375366569
1.262952101661779
1.2482893450635386
1.2355816226783969
1.224828934506354
1.2160312805474096
1.2072336265884651
1.1974584555229717
1.187683284457478
1.176930596285435
1.164222873900293
1.1564027370478984
1.1505376344086022
1.142717497556207
1.1368523949169111
1.133919843597263
1.1348973607038124
1.1436950146627567
1.1652003910068427
1.198435972629521
1.24633431085044
1.3118279569892473
1.392961876832845
1.4750733137829912
1.5610948191593352
1.6627565982404693
1.7712609970674489
1.881720430107527
1.9990224828934504
2.120234604105572
2.2355816226783967
2.3411534701857284
2.4359726295210167
2.5190615835777126
2.589442815249267
2.6480938416422286
2.686217008797654
2.7116324535679373
2.736070381231672
2.7565982404692084
2.773216031280548
2.7859237536656893
2.792766373411535
2.795698924731183
2.792766373411535
2.7839687194525906
2.76930596285435
2.7468230694037143
2.720430107526881
2.6901270772238512
2.654936461388074
2.6158357771261
2.572825024437928
2.5268817204301075
2.47702834799609
2.4271749755620724
2.378299120234604
2.333333333333333
2.29227761485826
2.2521994134897363
2.21505376344086
2.182795698924731
2.1544477028347995
2.124144672531769
2.0948191593352883
2.0664711632453567
2.037145650048876
2.007820136852395
1.9775171065493649
1.946236559139785
1.913978494623656
1.8807429130009776
1.8465298142717497
1.8162267839687196
1.7869012707722385
1.75366568914956
1.7194525904203324
1.6852394916911049
1.6500488758553276
1.6109481915933528
1.5718475073313782
1.533724340175953
1.495601173020528
1.458455522971652
1.423264907135875
1.3890518084066472
1.3616813294232648
1.3372434017595307
1.3098729227761483
1.2834799608993157
1.260019550342131
1.2375366568914956
1.2160312805474096
1.1945259042033236
1.173998044965787
1.155425219941349
1.1407624633431086
1.1280547409579669
1.1192570869990224
1.1124144672531768
1.1026392961876832
1.0909090909090908
1.0772238514173995
1.064516129032258
1.050830889540567
1.0371456500488758
