ppg
2.27761485826002
2.380254154447703
2.4750733137829912
2.563049853372434
2.631476050830889
2.6881720430107525
2.747800586510264
2.8044965786901277
2.857282502443793
2.903225806451613
2.941348973607038
2.972629521016618
2.9980449657869013
3.0175953079178885
3.032258064516129
3.043010752688172
3.04594330400782
3.0439882697947214
3.0410557184750733
3.034213098729228
3.0205278592375366
2.99902248289345
2.9687194525904204
2.9286412512218964
2.8797653958944283
2.822091886608016
2.757575757575758
2.6881720430107525
2.6177908113391983
2.555229716520039
2.4975562072336266
2.439882697947214
2.3851417399804498
2.335288367546432
2.289345063538612
2.247311827956989
2.2082111436950145
2.1710654936461387
2.133919843597263
2.0987292277614857
2.064516129032258
2.0361681329423265
2.0097751710654936
1.9824046920821117
1.9550342130987293
1.9266862170087975
1.8983382209188664
1.8699902248289344
1.842619745845552
1.8162267839687196
1.790811339198436
1.7644183773216031
1.739980449657869
1.7194525904203324
1.699902248289345
1.6774193548387095
1.653958944281525
1.6304985337243405
1.607038123167155
1.5835777126099706
1.5610948191593352
1.5395894428152492
1.520039100684262
1.5024437927663734
1.487781036168133
1.474095796676442
1.4652981427174976
1.4594330400782014
1.4506353861192571
1.4389051808406648
1.423264907135875
1.4056695992179864
1.3851417399804498
1.3636363636363635
1.343108504398827
1.3255131964809383
1.310850439882698
1.300097751710655
1.295210166177908
1.2971652003910068
1.3049853372434017
1.3206256109481915
1.3470185728250244
1.3870967741935485
1.444770283479961
1.5190615835777126
1.6080156402737047
1.7096774193548387
1.8191593352883677
1.9315738025415443
2.042033235581622
2.134897360703812
2.21505376344086
2.297165200391007
2.3734115347018574
2.4408602150537635
2.496578690127077
2.5405669599217986
2.5747800586510263
2.60019550342131
2.6177908113391983
2.63049853372434
2.6402737047898337
2.643206256109482
2.643206256109482
2.6451612903225805
2.6480938416422286
2.650048875855328
2.649071358748778
2.643206256109482
2.63049853372434
2.608993157380254
2.579667644183773
2.541544477028348
2.496578690127077
2.4457478005865103
2.396871945259042
2.350928641251222
2.3010752688172045
2.2521994134897363
2.207233626588465
2.1652003910068425
2.1251221896383186
2.086021505376344
2.046920821114369
2.006842619745845
1.9657869012707725
1.9237536656891496
1.8866080156402736
1.8533724340175952
1.818181818181818
1.782991202346041
1.7497556207233629
1.7204301075268815
1.694037145650049
1.6705767350928642
1.6480938416422288
1.6275659824046922
1.6080156402737047
1.5884652981427174
1.5698924731182795
1.5562072336265884
1.544477028347996
1.530791788856305
1.5161290322580645
1.501466275659824
1.4868035190615836
1.4711632453567938
1.455522971652004
1.4408602150537635
1.426197458455523
1.412512218963832
1.3988269794721409
1.3900293255131966
1.383186705767351
1.3743890518084063
1.3636363636363635
1.3519061583577712
1.3401759530791788
1.3264907135874875
1.3118279569892473
1.2961876832844574
1.2795698924731185
1.262952101661779
1.2473118279569892
1.2336265884652982
1.2267839687194526
1.224828934506354
1.2228739002932552
1.2238514173998043
1.2287390029325511
1.2424242424242424
1.2668621700879763
1.3069403714565004
1.3626588465298142
1.435972629521017
1.5268817204301075
1.6314760508308896
1.7302052785923754
1.826001955034213
1.9335288367546437
2.042033235581622
2.145650048875855
2.241446725317693
2.3255131964809386
2.3978494623655915
2.4594330400782014
2.5112414467253177
2.5542521994134897
2.589442815249267
2.618768328445748
2.638318670576735
2.652003910068426
2.6666666666666665
2.6803519061583576
2.6930596285435
2.701857282502444
2.70772238514174
2.708699902248289
2.7038123167155423
2.668621700879765
2.611925708699902
2.5610948191593352
2.5131964809384164
2.464320625610948
2.407624633431085
2.346041055718475
2.281524926686217
2.2170087976539588
2.155425219941349
2.096774193548387
2.043010752688172
1.994134897360704
1.949169110459433
1.90811339198436
1.871945259042033
1.8416422287390029
1.8162267839687196
1.7888563049853372
1.7624633431085044
1.737047898338221
1.7135874877810362
1.6911045943304008
1.6705767350928642
1.651026392961877
1.6334310850439884
1.616813294232649
1.6011730205278591
1.5884652981427174
1.576735092864125
1.563049853372434
1.5483870967741935
1.5347018572825024
1.521016617790811
1.5073313782991202
1.4936461388074291
1.479960899315738
1.4643206256109482
1.4467253176930597
1.4271749755620724
1.4076246334310851
1.3919843597262953
1.3792766373411536
1.3655913978494625
1.3519061583577712
1.3372434017595307
1.3225806451612905
1.305962854349951
1.2873900293255132
1.2668621700879763
1.2453567937438903
1.2238514173998043
1.2043010752688172
1.1906158357771262
1.181818181818182
1.1730205278592376
1.163245356793744
1.1544477028347997
1.147605083088954
1.144672531769306
1.147605083088954
1.1612903225806452
1.1915933528836755
1.2394916911045943
1.3088954056695992
1.3988269794721409
1.4916911045943304
1.5894428152492668
1.7057673509286413
1.8318670576735088
1.9589442815249267
2.080156402737048
2.1915933528836757
2.2932551319648096
2.3851417399804498
2.4652981427174976
2.535679374389052
2.5972629521016617
2.6422287390029324
2.67644183773216
2.713587487781036
2.7497556207233624
2.782991202346041
2.811339198435973
2.833822091886608
2.849462365591398
2.8582600195503423
2.860215053763441
2.854349951124145
2.8406647116324537
2.820136852394917
2.782013685239492
2.742913000977517
2.7096774193548385
2.6608015640273703
2.5972629521016617
2.5219941348973607
2.4349951124144678
2.343108504398827
2.2531769305962857
2.1739980449657867
2.110459433040078
2.064516129032258
2.035190615835777
2.016617790811339
2.003910068426197
1.991202346041056
1.975562072336266
1.9550342130987293
1.9315738025415443
1.9042033235581624
1.8758553274682308
1.844574780058651
1.812316715542522
1.780058651026393
1.7526881720430108
1.7302052785923754
1.70772238514174
1.6881720430107527
1.6715542521994136
1.653958944281525
1.632453567937439
1.603128054740958
1.564027370478983
1.517106549364614
1.466275659824047
1.41544477028348
1.367546432062561
1.332355816226784
1.305962854349951
1.281524926686217
1.260019550342131
1.238514173998045
1.2150537634408602
1.1886608015640274
1.160312805474096
1.1300097751710656
1.1006842619745845
1.0742913000977516
1.053763440860215
1.043010752688172
1.040078201368524
1.0391006842619743
1.0410557184750733
1.0449657869012707
1.0498533724340176
1.0527859237536656
1.053763440860215
1.053763440860215
1.0557184750733135
1.0635386119257086
1.0821114369501466
1.1173020527859236
1.1622678396871946
1.2209188660801564
1.3020527859237536
1.4007820136852396
1.5112414467253177
1.6265884652981428
1.739980449657869
1.847507331378299
1.945259042033236
2.03128054740958
2.1065493646138806
2.1730205278592374
2.2248289345063537
2.2658846529814274
2.3098729227761488
2.3519061583577714
2.3919843597262958
2.4281524926686218
2.4604105571847508
2.487781036168133
2.5102639296187683
2.5288367546432062
2.541544477028348
2.549364613880743
2.550342130987292
2.5434995112414467
2.529814271749756
2.5102639296187683
2.482893450635386
2.444770283479961
2.396871945259042
2.340175953079179
2.275659824046921
2.204301075268817
2.1309872922776147
2.058651026392962
1.9902248289345064
1.9345063538611929
1.8875855327468232
1.8416422287390029
1.7996089931573802
1.761485826001955
1.726295210166178
1.694037145650049
1.6637341153470186
1.6373411534701858
1.611925708699902
1.5884652981427174
1.5679374389051808
1.5493646138807429
1.5356793743890518
1.52297165200391
1.5083088954056696
1.4916911045943304
1.4731182795698925
1.4506353861192571
1.4242424242424243
1.3949169110459434
1.3636363636363635
1.3313782991202343
1.2991202346041055
1.2697947214076246
1.2473118279569892
1.23069403714565
1.2140762463343109
1.1994134897360704
1.18475073313783
1.1730205278592376
1.164222873900293
1.155425219941349
1.1456500488758554
1.1358748778103618
1.1241446725317692
1.1114369501466277
1.0977517106549364
1.0879765395894427
1.0801564027370478
1.067448680351906
1.053763440860215
1.040078201368524
1.0283479960899315
1.018572825024438
1.0117302052785924
1.0058651026392962
1.0009775171065494
0.997067448680352
0.9951124144672532
1.0
1.010752688172043
1.0303030303030305
1.0654936461388074
1.1192570869990224
1.1945259042033236
1.289345063538612
1.4007820136852396
1.5239491691104594
1.651026392961877
1.7761485826001957
1.8934506353861196
2.0
2.083088954056696
2.1495601173020527
2.2160312805474094
2.3010752688172045
2.3929618768328447
2.462365591397849
2.5180840664711632
2.5650048875855327
2.6070381231671558
2.643206256109482
2.675464320625611
2.701857282502444
2.716520039100684
2.7233626588465296
2.7262952101661777
2.7223851417399803
2.7096774193548385
2.6852394916911044
2.650048875855328
2.603128054740958
2.5464320625610948
2.482893450635386
2.41544477028348
2.346041055718475
2.27761485826002
2.218963831867057
2.167155425219941
2.1163245356793743
2.069403714565005
2.026392961876833
1.986314760508309
1.949169110459433
1.9149560117302051
1.884652981427175
1.8563049853372435
1.828934506353861
1.8025415444770283
1.7810361681329423
1.761485826001955
1.739980449657869
1.7174975562072337
1.6950146627565983
1.672531769305963
1.6490713587487782
1.6265884652981428
1.6041055718475072
1.581622678396872
1.560117302052786
1.5386119257087
1.5180840664711632
1.501466275659824
1.4868035190615836
1.4701857282502444
1.452590420332356
1.4349951124144673
1.4173998044965788
1.4007820136852396
1.3841642228739004
1.367546432062561
1.3519061583577712
1.33822091886608
1.3255131964809383
1.316715542521994
1.310850439882698
1.3010752688172045
1.289345063538612
1.278592375366569
1.267839687194526
1.2570869990224829
1.2453567937438903
1.2326490713587488
1.2209188660801564
1.2101661779081134
1.1994134897360704
1.1935483870967742
1.1915933528836755
1.1906158357771262
1.1964809384164223
1.2150537634408602
1.2512218963831867
1.3079178885630498
1.3870967741935485
1.487781036168133
1.607038123167155
1.7380254154447703
1.8748778103616808
2.0117302052785924
2.1270772238514173
2.2267839687194524
2.329423264907136
2.426197458455523
2.5131964809384164
2.591397849462365
2.659824046920821
2.7311827956989245
2.789833822091887
2.8289345063538613
2.866080156402737
2.8993157380254155
2.920821114369501
2.935483870967742
2.952101661779081
2.9667644183773216
2.9765395894428157
2.981427174975562
2.979472140762464
2.9687194525904204
2.948191593352884
2.9159335288367547
2.8729227761485827
2.819159335288368
2.755620723362659
2.69208211143695
2.6285434995112413
2.558162267839687
2.486803519061584
2.419354838709677
2.357771260997068
2.303030303030303
2.2561094819159337
2.21505376344086
2.179863147605083
2.1485826001955037
2.120234604105572
2.0948191593352883
2.072336265884653
2.048875855327468
2.0234604105571847
1.9960899315738023
1.967741935483871
1.93841642228739
1.90811339198436
1.87683284457478
1.8465298142717497
1.8172043010752688
1.7888563049853372
1.7624633431085044
1.739980449657869
1.7194525904203324
1.696969696969697
1.672531769305963
1.64613880742913
1.619745845552297
1.5913978494623655
1.563049853372434
1.533724340175953
1.5053763440860215
1.478005865102639
1.452590420332356
1.434017595307918
1.418377321603128
1.3998044965786902
1.3812316715542523
1.364613880742913
1.348973607038123
1.3333333333333333
1.3196480938416422
1.3079178885630498
1.2991202346041055
1.2913000977517106
1.284457478005865
1.2776148582600195
1.273704789833822
1.270772238514174
1.2658846529814272
1.2619745845552297
1.262952101661779
1.273704789833822
1.2981427174975562
1.3411534701857282
1.404692082111437
1.4897360703812317
1.5913978494623655
1.7067448680351909
1.8132942326490715
1.9149560117302051
2.026392961876833
2.1388074291300097
2.2453567937438903
2.3421309872922778
2.429130009775171
2.506353861192571
2.572825024437928
2.63049853372434
2.679374389051808
2.721407624633431
2.757575757575758
2.7839687194525906
2.803519061583578
2.8260019550342133
2.84652981427175
2.8641251221896384
2.875855327468231
2.881720430107527
2.878787878787879
2.8670576735092865
2.8455522971652005
2.8132942326490715
2.76930596285435
2.720430107526881
2.664711632453568
2.5972629521016617
2.5210166177908118
2.4408602150537635
2.358748778103617
2.2795698924731185
2.207233626588465
2.1417399804496577
2.0840664711632453
2.0332355816226784
1.989247311827957
1.949169110459433
1.916911045943304
1.889540566959922
1.8602150537634408
1.828934506353861
1.796676441837732
1.7634408602150538
1.729227761485826
1.6959921798631477
1.6656891495601174
1.6373411534701858
1.606060606060606
1.5796676441837731
1.5650048875855327
1.5503421309872922
1.5317693059628543
1.5112414467253177
1.487781036168133
1.4623655913978495
1.4349951124144673
1.4076246334310851
1.3812316715542523
1.356793743890518
1.335288367546432
1.316715542521994
1.303030303030303
1.295210166177908
1.29227761485826
1.2913000977517106
1.2942326490713587
1.3040078201368523
1.3255131964809383
1.3616813294232648
1.4164222873900294
1.4916911045943304
1.5865102639296187
1.6979472140762464
1.818181818181818
1.9266862170087975
2.026392961876833
2.132942326490713
2.2355816226783967
2.3304007820136854
2.41544477028348
2.4887585532746823
2.5513196480938416
2.6021505376344085
2.644183773216031
2.673509286412512
2.69208211143695
2.7067448680351904
2.713587487781036
2.7126099706744866
2.70772238514174
2.695014662756598
2.6725317693059627
2.641251221896383
2.598240469208211
2.5454545454545454
2.482893450635386
2.41544477028348
2.346041055718475
2.278592375366569
2.2218963831867056
2.1739980449657867
2.1300097751710654
2.09188660801564
2.059628543499511
2.0332355816226784
2.0097751710654936
1.9872922776148585
1.9657869012707725
1.943304007820137
1.919843597262952
1.8944281524926687
1.870967741935484
1.8465298142717497
1.8191593352883677
1.7917888563049853
1.7653958944281525
1.7419354838709675
1.7233626588465298
1.7086999022482894
1.699902248289345
1.6950146627565983
1.694037145650049
1.696969696969697
1.7008797653958945
1.704789833822092
1.70772238514174
1.7096774193548387
1.710654936461388
1.7086999022482894
1.7038123167155426
1.6979472140762464
1.6901270772238517
1.678396871945259
1.6637341153470186
1.6441837732160314
1.619745845552297
1.5972629521016617
1.5757575757575757
1.5513196480938416
1.5298142717497556
1.512218963831867
1.498533724340176
1.4887585532746823
1.482893450635386
1.479960899315738
1.478983382209189
1.479960899315738
1.482893450635386
1.487781036168133
1.4946236559139785
1.5024437927663734
1.512218963831867
1.521016617790811
1.5288367546432062
1.5356793743890518
1.5405669599217986
1.541544477028348
1.5395894428152492
1.5347018572825024
1.5278592375366569
1.5190615835777126
1.5131964809384164
1.5102639296187683
1.5073313782991202
1.5073313782991202
1.509286412512219
1.5141739980449658
1.52297165200391
1.5366568914956011
1.560117302052786
1.5992179863147604
1.656891495601173
1.7350928641251222
1.833822091886608
1.932551319648094
2.0733137829912023
2.218963831867057
2.3274682306940373
2.453567937438905
2.58455522971652
2.7116324535679373
2.8289345063538613
2.9345063538611926
3.0283479960899315
3.10850439882698
3.1739980449657867
3.2170087976539588
3.2453567937438903
3.2737047898338223
3.2991202346041058
3.3225806451612905
3.3421309872922778
3.3597262952101663
3.3734115347018574
3.3792766373411536
3.376344086021505
3.3626588465298144
3.337243401759531
3.2991202346041058
3.251221896383187
3.193548387096774
3.12316715542522
3.0439882697947214
2.9579667644183774
2.8690127077223853
2.782991202346041
2.7038123167155423
2.633431085043988
2.573802541544477
2.52297165200391
2.4789833822091887
2.441837732160313
2.4086021505376345
2.376344086021505
2.3440860215053765
2.310850439882698
2.27761485826002
2.2453567937438903
2.2130987292277613
2.1808406647116323
2.146627565982405
2.1094819159335287
2.0684261974584555
2.024437927663734
1.9843597262952104
1.945259042033236
1.903225806451613
1.86119257086999
1.8201368523949168
1.7820136852394917
1.7458455522971652
1.7096774193548387
1.672531769305963
1.635386119257087
1.5992179863147604
1.565982404692082
1.541544477028348
1.525904203323558
1.5131964809384164
1.5063538611925709
1.504398826979472
1.5053763440860215
1.5063538611925709
1.5053763440860215
1.501466275659824
1.4965786901270772
1.4916911045943304
1.4868035190615836
1.482893450635386
1.4809384164222874
1.4809384164222874
1.4809384164222874
1.4809384164222874
1.479960899315738
1.47702834799609
1.4711632453567938
1.4613880742913
1.4496578690127078
1.435972629521017
1.426197458455523
1.4252199413489737
1.435972629521017
1.4633431085043989
1.5161290322580645
1.5972629521016617
1.704789833822092
1.8318670576735088
1.970674486803519
2.1114369501466275
2.247311827956989
2.3714565004887587
2.4838709677419355
2.5865102639296187
2.681329423264907
2.755620723362659
2.820136852394917
2.89247311827957
2.9657869012707723
3.0361681329423265
3.0987292277614857
3.1515151515151514
3.1925708699902247
3.219941348973607
3.233626588465298
3.232649071358749
3.219941348973607
3.196480938416422
3.1652003910068425
3.1270772238514173
3.0821114369501466
3.0283479960899315
2.9657869012707723
2.89345063538612
2.8132942326490715
2.7282502443792764
2.6402737047898337
2.5532746823069403
2.4682306940371457
2.3870967741935485
2.318670576735093
2.260019550342131
2.201368523949169
2.147605083088954
2.0928641251221896
2.048875855327468
2.021505376344086
1.9990224828934504
1.9794721407624636
1.9618768328445748
1.943304007820137
1.919843597262952
1.895405669599218
1.868035190615836
1.8328445747800584
1.793743890518084
1.7526881720430108
1.7135874877810362
1.678396871945259
1.6471163245356797
1.6217008797653958
1.6011730205278591
1.581622678396872
1.5620723362658846
1.541544477028348
1.52297165200391
1.5053763440860215
1.4838709677419355
1.4604105571847508
1.435972629521017
1.4134897360703813
1.392961876832845
1.3743890518084063
1.3587487781036167
1.3440860215053765
1.3304007820136852
1.3176930596285434
1.3088954056695992
1.3010752688172045
1.289345063538612
1.2766373411534702
1.2003910068426198
1.0928641251221896
1.0342130987292275
1.0
0.9775171065493646
0.9618768328445748
0.9501466275659824
0.9433040078201368
0.9442815249266864
0.9550342130987292
0.978494623655914
1.018572825024438
1.0801564027370478
1.163245356793744
1.2639296187683284
1.3792766373411536
1.5034213098729228
1.6314760508308896
1.7565982404692082
1.8748778103616808
1.9843597262952104
2.069403714565005
2.139784946236559
2.2111436950146626
2.2766373411534704
2.335288367546432
2.386119257086999
2.429130009775171
2.466275659824047
2.496578690127077
2.5219941348973607
2.5434995112414467
2.560117302052786
2.567937438905181
2.56891495601173
2.567937438905181
2.5610948191593352
2.5454545454545454
2.5219941348973607
2.490713587487781
2.450635386119257
2.40078201368524
2.3411534701857284
2.272727272727273
2.196480938416422
2.115347018572825
2.042033235581622
1.9736070381231672
1.903225806451613
1.835777126099707
1.7732160312805474
1.7174975562072337
1.6666666666666667
1.619745845552297
1.5747800586510263
1.5317693059628543
1.4887585532746823
1.4486803519061584
1.41544477028348
1.3861192570869991
1.356793743890518
1.3294232649071358
1.3040078201368523
1.281524926686217
1.2619745845552297
1.2434017595307918
1.224828934506354
1.206256109481916
1.187683284457478
1.1671554252199414
1.1456500488758554
1.1280547409579669
1.1124144672531768
1.0928641251221896
1.0694037145650048
1.0439882697947214
1.0087976539589445
0.9765395894428152
0.9530791788856304
0.9266862170087976
0.8993157380254154
0.8729227761485826
0.8475073313782991
0.8289345063538612
0.8142717497556208
0.7986314760508308
0.782991202346041
0.7653958944281525
0.7497556207233627
0.7390029325513197
0.729227761485826
0.7165200391006843
0.7047898338220919
0.696969696969697
0.6901270772238515
0.6881720430107527
0.6930596285434996
0.7057673509286413
0.7282502443792767
0.7663734115347018
0.823069403714565
0.8993157380254154
0.9951124144672532
1.1397849462365592
1.2776148582600195
1.3782991202346042
1.4887585532746823
1.598240469208211
1.6881720430107527
1.7644183773216031
1.8416422287390029
1.913978494623656
1.9804496578690127
2.0391006842619745
2.089931573802541
2.132942326490713
2.1700879765395893
2.2023460410557183
2.228739002932551
2.2502443792766376
2.2668621700879767
2.275659824046921
2.27761485826002
2.27761485826002
2.271749755620724
2.260019550342131
2.2385141739980448
2.206256109481916
2.161290322580645
2.104594330400782
2.0361681329423265
1.9579667644183771
1.873900293255132
1.7956989247311828
1.7223851417399805
1.624633431085044
1.5386119257087
1.478983382209189
1.4203323558162269
1.3665689149560116
1.3196480938416422
1.2776148582600195
1.2394916911045943
1.203323558162268
1.1681329423264908
1.133919843597263
1.1055718475073313
1.0811339198435972
1.053763440860215
1.024437927663734
0.9882697947214076
0.9481915933528836
0.9149560117302052
0.8914956011730205
0.8641251221896383
0.8357771260997068
0.8142717497556208
0.7878787878787878
0.7653958944281525
0.7458455522971652
0.7204301075268817
0.6930596285434996
0.6578690127077224
0.6265884652981427
0.6041055718475073
0.5806451612903226
0.5513196480938416
0.520039100684262
0.4956011730205278
0.4789833822091887
0.4701857282502444
0.4623655913978494
0.4565004887585532
0.4496578690127077
0.4398826979472141
0.4301075268817204
0.4232649071358749
0.4164222873900293
0.4066471163245357
0.3988269794721407
0.3910068426197458
0.3841642228739003
0.3831867057673509
0.386119257086999
0.3880742913000977
0.3939393939393939
0.4115347018572825
0.4467253176930596
0.5024437927663734
0.581622678396872
0.6490713587487781
0.750733137829912
0.906158357771261
1.053763440860215
1.1915933528836755
1.3069403714565004
1.404692082111437
1.5024437927663734
1.5923753665689149
1.6715542521994136
1.7390029325513197
1.796676441837732
1.8455522971652003
1.8856304985337244
1.9188660801564028
1.946236559139785
1.967741935483871
1.9804496578690127
1.9872922776148585
1.992179863147605
1.9931573802541545
1.9902248289345064
1.981427174975562
1.964809384164223
1.9393939393939397
1.905180840664712
1.86119257086999
1.8084066471163245
1.7468230694037146
1.6813294232649072
1.6207233626588464
1.564027370478983
1.5034213098729228
1.4437927663734116
1.3900293255131966
1.343108504398827
1.3040078201368523
1.270772238514174
1.2424242424242424
1.2179863147605083
1.1964809384164223
1.1749755620723363
1.1564027370478984
1.1407624633431086
1.1221896383186705
1.1016617790811338
1.0811339198435972
1.0596285434995112
1.0361681329423265
1.0117302052785924
0.9863147605083088
0.9608993157380256
0.9364613880742912
0.9120234604105572
0.8934506353861192
0.8787878787878788
0.8621700879765396
0.8455522971652004
0.8279569892473119
0.8113391984359726
0.793743890518084
0.7771260997067448
0.761485826001955
0.7458455522971652
0.7321603128054741
0.8690127077223851
1.083088954056696
1.1915933528836755
1.2482893450635386
1.2766373411534702
1.2913000977517106
1.2981427174975562
1.3020527859237536
1.3040078201368523
1.3040078201368523
1.3020527859237536
1.2981427174975562
1.2932551319648091
1.2864125122189638
1.2834799608993157
1.2805474095796676
1.273704789833822
1.2658846529814272
1.2609970674486803
1.2619745845552297
1.2746823069403714
1.303030303030303
1.3509286412512218
1.4193548387096775
1.5063538611925709
1.6080156402737047
1.7204301075268815
