ppg
1.56891495601173
1.5650048875855327
1.560117302052786
1.555229716520039
1.5503421309872922
1.544477028347996
1.5376344086021505
1.530791788856305
1.52297165200391
1.5161290322580645
1.509286412512219
1.504398826979472
1.495601173020528
1.4838709677419355
1.4760508308895406
1.4721407624633431
1.4711632453567938
1.4760508308895406
1.490713587487781
1.5180840664711632
1.563049853372434
1.629521016617791
1.7194525904203324
1.83088954056696
1.9393939393939397
2.050830889540567
2.1847507331378297
2.326490713587488
2.4652981427174976
2.592375366568915
2.7038123167155423
2.795698924731183
2.868035190615836
2.920821114369501
2.9550342130987293
2.972629521016618
2.973607038123167
2.962854349951124
2.946236559139785
2.9237536656891496
2.895405669599218
2.863147605083089
2.8260019550342133
2.7859237536656893
2.742913000977517
2.696969696969697
2.6480938416422286
2.595307917888563
2.5405669599217986
2.487781036168133
2.434017595307918
2.3734115347018574
2.3088954056695994
2.2404692082111435
2.166177908113392
2.0879765395894427
2.003910068426197
1.9159335288367547
1.826001955034213
1.7360703812316716
1.6480938416422288
1.5757575757575757
1.5141739980449658
1.4535679374389052
1.3988269794721409
1.35386119257087
1.3176930596285434
1.2903225806451613
1.270772238514174
1.2551319648093842
1.2434017595307918
1.2336265884652982
1.2238514173998043
1.2140762463343109
1.2072336265884651
1.2013685239491692
1.1925708699902249
1.181818181818182
1.1710654936461389
1.160312805474096
1.1495601173020529
1.1397849462365592
1.130987292277615
1.1221896383186705
1.1143695014662756
1.1085043988269794
1.10752688172043
1.10752688172043
1.10752688172043
1.10752688172043
1.1094819159335287
1.1114369501466277
1.1133919843597262
1.1163245356793745
1.1192570869990224
1.1221896383186705
1.1270772238514175
1.1319648093841643
1.13880742913001
1.1456500488758554
1.1515151515151516
1.1564027370478984
1.1593352883675463
1.1622678396871946
1.1652003910068427
1.1681329423264908
1.1710654936461389
1.173998044965787
1.176930596285435
1.1788856304985338
1.1798631476050832
1.1827956989247312
1.1857282502443791
1.1867057673509287
1.1857282502443791
1.1837732160312806
1.181818181818182
1.1788856304985338
1.1759530791788857
1.1730205278592376
1.1710654936461389
1.1681329423264908
1.1652003910068427
1.163245356793744
1.1622678396871946
1.160312805474096
1.1583577712609971
1.160312805474096
1.1720430107526882
1.198435972629521
1.2443792766373412
1.3157380254154447
1.412512218963832
1.533724340175953
1.6764418377321604
1.8328445747800584
1.9726295210166176
2.101661779081134
2.239491691104594
2.372434017595308
2.49266862170088
2.5962854349951123
2.6803519061583576
2.744868035190616
2.791788856304985
2.823069403714565
2.8396871945259043
2.844574780058651
2.8377321603128056
2.823069403714565
2.803519061583578
2.779081133919844
2.7517106549364616
2.720430107526881
2.6852394916911044
2.64613880742913
2.6021505376344085
2.5542521994134897
2.5034213098729228
2.447702834799609
2.3870967741935485
2.3284457478005867
2.269794721407625
2.20039100684262
2.1221896383186705
2.037145650048876
1.948191593352884
1.8592375366568916
1.772238514173998
1.6911045943304008
1.6177908113391983
1.552297165200391
1.4965786901270772
1.455522971652004
1.426197458455523
1.3998044965786902
1.3782991202346042
1.3626588465298142
1.3509286412512218
1.3411534701857282
1.332355816226784
1.3235581622678396
1.3157380254154447
1.3079178885630498
1.2991202346041055
1.289345063538612
1.2825024437927663
1.2776148582600195
1.2717497556207231
1.2668621700879763
1.2609970674486803
1.2570869990224829
1.2561094819159335
1.2570869990224829
1.2609970674486803
1.2668621700879763
1.2746823069403714
1.2854349951124144
1.2981427174975562
1.313782991202346
1.332355816226784
1.3519061583577712
1.3724340175953078
1.3949169110459434
1.418377321603128
1.439882697947214
1.4594330400782014
1.478983382209189
1.4965786901270772
1.512218963831867
1.5249266862170088
1.533724340175953
1.541544477028348
1.547409579667644
1.552297165200391
1.5562072336265884
1.5581622678396871
1.5591397849462365
1.5591397849462365
1.5581622678396871
1.555229716520039
1.5503421309872922
1.5454545454545454
1.541544477028348
1.5386119257087
1.533724340175953
1.5268817204301075
1.5190615835777126
1.5131964809384164
1.5083088954056696
1.504398826979472
1.501466275659824
1.500488758553275
1.501466275659824
1.5053763440860215
1.512218963831867
1.521994134897361
1.5395894428152492
1.5708699902248289
1.619745845552297
1.689149560117302
1.7810361681329423
1.8934506353861196
2.022482893450636
2.1622678396871944
2.3059628543499517
2.4457478005865103
2.5747800586510263
2.674486803519061
2.7517106549364616
2.825024437927664
2.886608015640274
2.9315738025415445
2.961876832844575
2.9765395894428157
2.978494623655914
2.9696969696969697
2.9530791788856305
2.929618768328446
2.900293255131965
2.866080156402737
2.827956989247312
2.787878787878788
2.745845552297165
2.699902248289345
2.6510263929618767
2.5992179863147604
2.5454545454545454
2.4819159335288368
2.410557184750733
2.3382209188660803
2.2629521016617797
2.1837732160312804
2.10850439882698
2.034213098729228
1.949169110459433
1.8563049853372435
1.7595307917888563
1.6627565982404693
1.5698924731182795
1.482893450635386
1.4066471163245358
1.3421309872922775
1.289345063538612
1.2473118279569892
1.2140762463343109
1.1925708699902249
1.1788856304985338
1.1681329423264908
1.160312805474096
1.1534701857282503
1.147605083088954
1.142717497556207
1.1378299120234605
1.130987292277615
1.1221896383186705
1.1124144672531768
1.1026392961876832
1.0957966764418376
1.0918866080156402
1.086021505376344
1.0811339198435972
1.0772238514173995
1.0742913000977516
1.0733137829912025
1.0762463343108504
1.0821114369501466
1.088954056695992
1.096774193548387
1.1065493646138806
1.118279569892473
1.1319648093841643
1.1456500488758554
1.1583577712609971
1.1700879765395895
1.181818181818182
1.1935483870967742
1.206256109481916
1.2189638318670577
1.23069403714565
1.241446725317693
1.2502443792766371
1.2561094819159335
1.2609970674486803
1.2649071358748778
1.2668621700879763
1.267839687194526
1.2668621700879763
1.2649071358748778
1.2639296187683284
1.2619745845552297
1.260019550342131
1.2580645161290325
1.2551319648093842
1.2512218963831867
1.2473118279569892
1.2443792766373412
1.238514173998045
1.2316715542521994
1.2238514173998043
1.2130987292277615
1.2013685239491692
1.1906158357771262
1.1798631476050832
1.1710654936461389
1.1652003910068427
1.164222873900293
1.173998044965787
1.1935483870967742
1.2287390029325511
1.289345063538612
1.3773216031280548
1.4916911045943304
1.6304985337243405
1.7869012707722385
1.951124144672532
2.115347018572825
2.270772238514174
2.410557184750733
2.530791788856305
2.6177908113391983
2.679374389051808
2.732160312805474
2.771260997067449
2.795698924731183
2.8054740957966766
2.8025415444770285
2.789833822091887
2.7673509286412514
2.73802541544477
2.702834799608993
2.66177908113392
2.616813294232649
2.5718475073313782
2.525904203323558
2.4760508308895406
2.423264907135875
2.367546432062561
2.3069403714565007
2.241446725317693
2.1710654936461387
2.0948191593352883
2.013685239491691
1.9266862170087975
1.8347996089931573
1.750733137829912
1.6695992179863148
1.5796676441837731
1.4887585532746823
1.4007820136852396
1.3206256109481915
1.2512218963831867
1.1935483870967742
1.147605083088954
1.1133919843597262
1.0899315738025417
1.0733137829912025
1.0606060606060606
1.0547409579667644
1.0527859237536656
1.050830889540567
1.0478983382209188
1.0449657869012707
1.0420332355816226
1.0381231671554252
1.032258064516129
1.0254154447702837
1.0175953079178883
1.010752688172043
1.0039100684261977
1.0019550342130987
1.0039100684261977
1.0048875855327468
1.0058651026392962
1.007820136852395
1.0117302052785924
1.0175953079178883
1.0254154447702837
1.0361681329423265
1.050830889540567
1.067448680351906
1.086021505376344
1.10752688172043
1.1290322580645162
1.1505376344086022
1.1710654936461389
1.1915933528836755
1.2111436950146628
1.23069403714565
1.249266862170088
1.2668621700879763
1.2825024437927663
1.2961876832844574
1.3079178885630498
1.3196480938416422
1.3304007820136852
1.3401759530791788
1.3479960899315735
1.35386119257087
1.359726295210166
1.3655913978494625
1.3685239491691104
1.3714565004887584
1.3763440860215057
1.3782991202346042
1.3773216031280548
1.3773216031280548
1.3792766373411536
1.3822091886608017
1.3851417399804498
1.3890518084066472
1.392961876832845
1.3978494623655917
1.4037145650048877
1.412512218963832
1.4252199413489737
1.444770283479961
1.478983382209189
1.5298142717497556
1.5865102639296187
1.6559139784946235
1.7546432062561097
1.8778103616813293
2.018572825024438
2.1681329423264906
2.3196480938416424
2.4652981427174976
2.5972629521016617
2.713587487781036
2.809384164222874
2.8826979472140764
2.948191593352884
2.9667644183773216
2.972629521016618
2.9696969696969697
2.956989247311828
2.936461388074292
2.911045943304008
2.865102639296188
2.831867057673509
2.7947214076246336
2.7116324535679373
2.667644183773216
2.621700879765396
2.544477028347996
2.487781036168133
2.4271749755620724
2.361681329423265
2.290322580645161
2.212121212121212
2.1270772238514173
2.035190615835777
1.9393939393939397
1.842619745845552
1.758553274682307
1.683284457478006
1.6050830889540566
1.530791788856305
1.4623655913978495
1.4027370478983383
1.35386119257087
1.3147605083088951
1.2854349951124144
1.2639296187683284
1.2473118279569892
1.2346041055718475
1.2267839687194526
1.2209188660801564
1.2111436950146628
1.2003910068426198
1.1896383186705768
1.1798631476050832
1.1700879765395895
1.1593352883675463
1.1485826001955035
1.1378299120234605
1.1280547409579669
1.1192570869990224
1.1124144672531768
1.1094819159335287
1.1114369501466277
1.115347018572825
1.1202346041055715
1.126099706744868
1.133919843597263
1.142717497556207
1.1544477028347997
1.1681329423264908
1.181818181818182
1.195503421309873
1.2082111436950147
1.219941348973607
1.2326490713587488
1.2453567937438903
1.2580645161290325
1.2697947214076246
1.281524926686217
1.29227761485826
1.303030303030303
1.313782991202346
1.3235581622678396
1.3313782991202343
1.3391984359726294
1.346041055718475
1.3528836754643203
1.3577712609970674
1.3616813294232648
1.364613880742913
1.367546432062561
1.367546432062561
1.3655913978494625
1.3616813294232648
1.3558162267839686
1.3509286412512218
1.3470185728250244
1.3450635386119256
1.3450635386119256
1.3470185728250244
1.3479960899315735
1.3479960899315735
1.3479960899315735
1.348973607038123
1.35386119257087
1.3665689149560116
1.393939393939394
1.439882697947214
1.5083088954056696
1.6041055718475072
1.704789833822092
1.8142717497556209
1.949169110459433
2.096774193548387
2.24633431085044
2.389051808406647
2.517106549364614
2.627565982404692
2.717497556207233
2.7859237536656893
2.834799608993157
2.865102639296188
2.878787878787879
2.87683284457478
2.86217008797654
2.841642228739003
2.814271749755621
2.779081133919844
2.7390029325513194
2.6959921798631474
2.649071358748778
2.60019550342131
2.547409579667644
2.49266862170088
2.4349951124144678
2.380254154447703
2.3255131964809386
2.2639296187683287
2.198435972629521
2.1280547409579667
2.0518084066471163
1.9696969696969695
1.8826979472140764
1.790811339198436
1.6950146627565983
1.598240469208211
1.5024437927663734
1.4115347018572826
1.3372434017595307
1.2766373411534702
1.2179863147605083
1.1671554252199414
1.1251221896383188
1.0918866080156402
1.0654936461388074
1.0449657869012707
1.029325513196481
1.018572825024438
1.010752688172043
1.0039100684261977
1.0009775171065494
1.0009775171065494
0.9960899315738024
0.9882697947214076
0.9794721407624634
0.9687194525904204
0.9579667644183774
0.946236559139785
0.935483870967742
0.9247311827956988
0.913978494623656
0.9042033235581622
0.895405669599218
0.8905180840664711
0.8885630498533724
0.884652981427175
0.8807429130009775
0.8787878787878788
0.8807429130009775
0.884652981427175
0.8914956011730205
0.9012707722385142
0.9120234604105572
0.9247311827956988
0.9393939393939394
0.956989247311828
0.9775171065493646
0.9980449657869012
1.0175953079178883
1.0371456500488758
1.0576735092864125
1.0772238514173995
1.0948191593352885
1.1124144672531768
1.1290322580645162
1.1456500488758554
1.1622678396871946
1.176930596285435
1.1915933528836755
1.2052785923753666
1.2189638318670577
1.2336265884652982
1.24633431085044
1.2570869990224829
1.2649071358748778
1.2717497556207231
1.2766373411534702
1.2805474095796676
1.2834799608993157
1.2854349951124144
1.2883675464320623
1.29227761485826
1.2961876832844574
1.300097751710655
1.305962854349951
1.3176930596285434
1.3401759530791788
1.3773216031280548
1.435972629521017
1.5180840664711632
1.6236559139784943
1.75366568914956
1.9012707722385145
2.035190615835777
2.1622678396871944
2.304985337243402
2.444770283479961
2.573802541544477
2.6852394916911044
2.7781036168132944
2.8514173998044967
2.906158357771261
2.943304007820137
2.9657869012707723
2.9745845552297165
2.9696969696969697
2.9550342130987293
2.935483870967742
2.9120234604105573
2.884652981427175
2.854349951124145
2.820136852394917
2.782991202346041
2.7438905180840663
2.702834799608993
2.659824046920821
2.613880742913001
2.563049853372434
2.512218963831867
2.4594330400782014
2.396871945259042
2.3255131964809386
2.24633431085044
2.1593352883675463
2.067448680351906
1.9716520039100685
1.8748778103616808
1.780058651026393
1.6911045943304008
1.6109481915933528
1.5483870967741935
1.498533724340176
1.452590420332356
1.412512218963832
1.3812316715542523
1.356793743890518
1.33822091886608
1.3235581622678396
1.310850439882698
1.2991202346041055
1.2873900293255132
1.2746823069403714
1.2619745845552297
1.252199413489736
1.2443792766373412
1.2336265884652982
1.2228739002932552
1.2121212121212122
1.2023460410557183
1.1935483870967742
1.1867057673509287
1.181818181818182
1.1798631476050832
1.1798631476050832
1.1827956989247312
1.187683284457478
1.195503421309873
1.206256109481916
1.2189638318670577
1.2346041055718475
1.2512218963831867
1.267839687194526
1.284457478005865
1.3010752688172045
1.3176930596285434
1.3333333333333333
1.3470185728250244
1.359726295210166
1.3714565004887584
1.3812316715542523
1.388074291300098
1.392961876832845
1.396871945259042
1.4007820136852396
1.4037145650048877
1.4066471163245358
1.409579667644184
1.4115347018572826
1.4134897360703813
1.414467253176931
1.414467253176931
1.414467253176931
1.412512218963832
1.4086021505376345
1.4027370478983383
1.3949169110459434
1.3870967741935485
1.3792766373411536
1.396871945259042
1.4291300097751711
1.4437927663734116
1.4506353861192571
1.4545454545454546
1.4604105571847508
1.4721407624633431
1.4936461388074291
1.5327468230694037
1.5943304007820136
1.678396871945259
1.7869012707722385
1.9149560117302051
2.0576735092864125
2.207233626588465
2.356793743890518
2.498533724340176
2.6099706744868034
2.6989247311827955
2.78494623655914
2.8582600195503423
2.9159335288367547
2.9550342130987293
2.9775171065493646
2.9853372434017595
2.981427174975562
2.9667644183773216
2.9423264907135875
2.9100684261974585
2.873900293255132
2.834799608993157
2.790811339198436
2.742913000977517
2.6930596285435
2.6402737047898337
2.5865102639296187
2.530791788856305
2.474095796676442
2.4144672531769307
2.350928641251222
2.2844574780058653
2.212121212121212
2.1436950146627565
2.074291300097752
1.994134897360704
1.9071358748778104
1.8162267839687196
1.7243401759530792
1.6334310850439884
1.547409579667644
1.4672531769305963
1.3958944281524928
1.3343108504398826
1.284457478005865
1.249266862170088
1.2258064516129032
1.2052785923753666
1.1886608015640274
1.1759530791788857
1.166177908113392
1.1573802541544478
1.1485826001955035
1.1407624633431086
1.1319648093841643
1.1221896383186705
1.1124144672531768
1.1006842619745845
1.0918866080156402
1.0840664711632453
1.072336265884653
1.0596285434995112
1.0469208211143697
1.035190615835777
1.0254154447702837
1.0166177908113392
1.007820136852395
1.0009775171065494
0.9960899315738024
0.9931573802541545
0.9951124144672532
1.0
1.0039100684261977
1.007820136852395
1.0117302052785924
1.0156402737047898
1.021505376344086
1.0283479960899315
1.0361681329423265
1.043010752688172
1.050830889540567
1.0586510263929618
1.0664711632453567
1.0772238514173995
1.0869990224828934
1.0957966764418376
1.104594330400782
1.1124144672531768
1.121212121212121
1.1300097751710656
1.1378299120234605
1.144672531769306
1.1505376344086022
1.1564027370478984
1.1612903225806452
1.1671554252199414
1.1730205278592376
1.1779081133919844
1.1808406647116323
1.1837732160312806
1.187683284457478
1.1925708699902249
1.198435972629521
1.2043010752688172
1.209188660801564
1.2160312805474096
1.2267839687194526
1.2482893450635386
1.2776148582600195
1.3196480938416422
1.3870967741935485
1.4809384164222874
1.6001955034213098
1.7409579667644184
1.8973607038123168
2.06158357771261
2.225806451612903
2.3822091886608017
2.5249266862170088
2.650048875855328
2.7419354838709675
2.809384164222874
2.8690127077223853
2.9159335288367547
2.9501466275659824
2.970674486803519
2.978494623655914
2.975562072336266
2.963831867057673
2.9442815249266863
2.919843597262952
2.8905180840664717
2.8563049853372435
2.820136852394917
2.782991202346041
2.7419354838709675
2.696969696969697
2.650048875855328
2.60019550342131
2.5464320625610948
2.4887585532746823
2.426197458455523
2.358748778103617
2.2854349951124147
2.2052785923753664
2.1309872922776147
2.058651026392962
1.978494623655914
1.8963831867057677
1.818181818181818
1.7458455522971652
1.6823069403714566
1.6275659824046922
1.581622678396872
1.5454545454545454
1.5180840664711632
1.4965786901270772
1.479960899315738
1.469208211143695
1.4623655913978495
1.4545454545454546
1.4457478005865103
1.435972629521017
1.426197458455523
1.41544477028348
1.4037145650048877
1.391006842619746
1.3792766373411536
1.3695014662756595
1.3607038123167154
1.3558162267839686
1.35386119257087
1.3528836754643203
1.3528836754643203
1.3548387096774193
1.359726295210166
1.3665689149560116
1.375366568914956
1.3870967741935485
1.4007820136852396
1.41544477028348
1.4301075268817205
1.444770283479961
1.457478005865103
1.4701857282502444
1.482893450635386
1.495601173020528
1.5083088954056696
1.520039100684262
1.5278592375366569
1.5347018572825024
1.541544477028348
1.5483870967741935
1.552297165200391
1.555229716520039
1.5571847507331378
1.5581622678396871
1.5562072336265884
1.552297165200391
1.5483870967741935
1.543499511241447
1.5395894428152492
1.5356793743890518
1.5317693059628543
1.5268817204301075
1.521016617790811
1.5141739980449658
1.509286412512219
1.5053763440860215
1.499511241446725
1.4946236559139785
1.4897360703812317
1.4858260019550342
1.4838709677419355
1.4868035190615836
1.499511241446725
1.5249266862170088
1.5669599217986314
1.629521016617791
1.715542521994135
1.8054740957966764
1.905180840664712
2.0332355816226784
2.176930596285435
2.3255131964809386
2.4701857282502444
2.603128054740958
2.719452590420332
2.81622678396872
2.89247311827957
2.948191593352884
2.98435972629521
2.99902248289345
3.0
2.994134897360704
2.9804496578690127
2.959921798631476
2.932551319648094
2.8993157380254155
2.8611925708699903
2.819159335288368
2.774193548387097
2.727272727272727
2.678396871945259
2.627565982404692
2.5777126099706744
2.527859237536657
2.4682306940371457
2.4027370478983383
2.335288367546432
2.264907135874878
2.190615835777126
2.1114369501466275
2.026392961876833
1.93841642228739
1.847507331378299
1.7565982404692082
1.6793743890518085
1.611925708699902
1.543499511241447
1.478983382209189
1.423264907135875
1.3763440860215057
1.33822091886608
1.3079178885630498
1.2834799608993157
1.2639296187683284
1.2473118279569892
1.2346041055718475
1.2238514173998043
1.217008797653959
1.2130987292277615
1.206256109481916
1.1974584555229717
1.1867057673509287
1.1749755620723363
1.1622678396871946
1.1515151515151516
1.141739980449658
1.133919843597263
1.1270772238514175
1.121212121212121
1.1192570869990224
1.118279569892473
1.1143695014662756
1.1094819159335287
1.1065493646138806
1.104594330400782
1.1036168132942326
1.104594330400782
1.10752688172043
1.1114369501466277
1.1163245356793745
1.1221896383186705
1.1280547409579669
1.1348973607038124
1.142717497556207
1.1485826001955035
1.1534701857282503
1.1573802541544478
1.160312805474096
1.163245356793744
1.166177908113392
1.1691104594330402
1.1720430107526882
1.1759530791788857
1.1798631476050832
1.18475073313783
1.1906158357771262
1.1945259042033236
1.198435972629521
1.2013685239491692
1.2023460410557183
1.2023460410557183
1.2003910068426198
1.1974584555229717
1.195503421309873
1.1925708699902249
1.1896383186705768
1.187683284457478
1.1867057673509287
1.18475073313783
1.1827956989247312
1.181818181818182
1.1837732160312806
1.1935483870967742
1.2179863147605083
1.2649071358748778
1.335288367546432
1.4320625610948192
1.5532746823069403
1.715542521994135
1.8602150537634408
1.9736070381231672
2.1114369501466275
2.2561094819159337
2.393939393939394
2.5180840664711632
2.6236559139784945
2.7116324535679373
2.7810361681329425
2.832844574780059
2.8690127077223853
2.8905180840664717
2.898338220918866
2.89345063538612
2.8719452590420333
2.841642228739003
2.8181818181818183
2.7976539589442817
2.768328445747801
2.7331378299120237
2.6940371456500487
2.652003910068426
2.6050830889540566
2.5542521994134897
2.498533724340176
2.442815249266862
2.3655913978494625
2.2668621700879767
2.1955034213098727
2.136852394916911
2.0391006842619745
1.9227761485826005
1.842619745845552
1.7644183773216031
1.6715542521994136
1.5962854349951123
1.5464320625610948
1.5083088954056696
1.469208211143695
1.4379276637341154
1.414467253176931
1.3978494623655917
1.3851417399804498
1.3743890518084063
1.3655913978494625
1.356793743890518
1.3470185728250244
1.3362658846529814
1.3264907135874875
1.3206256109481915
1.316715542521994
1.310850439882698
1.3040078201368523
1.300097751710655
1.2981427174975562
1.2971652003910068
1.2971652003910068
1.2981427174975562
1.3020527859237536
1.3118279569892473
1.3264907135874875
1.3440860215053765
1.3626588465298142
1.3812316715542523
1.401759530791789
1.423264907135875
1.4437927663734116
1.4623655913978495
1.4809384164222874
1.499511241446725
1.5161290322580645
1.5288367546432062
1.5405669599217986
1.5493646138807429
1.5562072336265884
1.5620723362658846
1.5679374389051808
1.5718475073313782
1.573802541544477
1.573802541544477
1.5718475073313782
1.56891495601173
1.564027370478983
1.5591397849462365
1.5542521994134897
1.5493646138807429
1.544477028347996
1.5405669599217986
1.5366568914956011
1.530791788856305
1.5239491691104594
1.517106549364614
1.5102639296187683
1.5034213098729228
1.4975562072336266
1.4936461388074291
1.4916911045943304
1.4916911045943304
1.4946236559139785
1.500488758553275
1.512218963831867
1.5327468230694037
1.565982404692082
1.6177908113391983
1.6911045943304008
1.7859237536656891
1.9012707722385145
2.032258064516129
2.174975562072336
2.321603128054741
2.464320625610948
2.579667644183773
2.674486803519061
2.768328445747801
2.8514173998044967
2.917888563049853
2.9657869012707723
2.9960899315738025
3.010752688172043
3.0117302052785924
3.0009775171065494
2.981427174975562
2.95405669599218
2.920821114369501
2.8836754643206257
2.843597262952102
2.7996089931573804
2.752688172043011
2.702834799608993
2.6510263929618767
2.5972629521016617
2.541544477028348
2.482893450635386
