ppg
1.4965786901270772
1.4672531769305963
1.4349951124144673
1.3988269794721409
1.359726295210166
1.3196480938416422
1.2854349951124144
1.2688172043010753
1.2825024437927663
1.3372434017595307
1.4164222873900294
1.5239491691104594
1.675464320625611
1.855327468230694
2.0449657869012707
2.222873900293255
2.3714565004887587
2.4789833822091887
2.5425219941348973
2.5650048875855327
2.5542521994134897
2.5180840664711632
2.466275659824047
2.412512218963832
2.357771260997068
2.2961876832844577
2.2346041055718477
2.175953079178885
2.1192570869990224
2.067448680351906
2.0205278592375366
1.9765395894428155
1.932551319648094
1.8866080156402736
1.8406647116324533
1.801564027370479
1.7663734115347018
1.7282502443792769
1.6881720430107527
1.6520039100684265
1.6226783968719452
1.6021505376344083
1.5923753665689149
1.5923753665689149
1.6001955034213098
1.6148582600195502
1.632453567937439
1.6490713587487782
1.6490713587487782
1.6490713587487782
1.6490713587487782
1.6490713587487782
1.6490713587487782
1.6490713587487782
1.6490713587487782
1.6529814271749756
1.6304985337243405
1.606060606060606
1.5806451612903225
1.5562072336265884
1.5366568914956011
1.517106549364614
1.490713587487781
1.4594330400782014
1.4252199413489737
1.393939393939394
1.3734115347018572
1.3734115347018572
1.4086021505376345
1.4858260019550342
1.603128054740958
1.7546432062561097
1.9296187683284456
2.0869990224828934
2.222873900293255
2.35386119257087
2.4604105571847508
2.5317693059628543
2.5669599217986314
2.56891495601173
2.5454545454545454
2.504398826979472
2.453567937438905
2.398826979472141
2.343108504398827
2.29227761485826
2.2453567937438903
2.196480938416422
2.1495601173020527
2.1055718475073317
2.0635386119257086
2.0234604105571847
1.9843597262952104
1.945259042033236
1.9042033235581624
1.8621700879765395
1.8211143695014664
1.782991202346041
1.7526881720430108
1.729227761485826
1.7086999022482894
1.6959921798631477
1.6920821114369502
1.6979472140762464
1.710654936461388
1.7302052785923754
1.7526881720430108
1.772238514173998
1.7869012707722385
1.793743890518084
1.796676441837732
1.7947214076246334
1.7859237536656891
1.772238514173998
1.7517106549364614
1.726295210166178
1.7008797653958945
1.6764418377321604
1.651026392961877
1.6256109481915937
1.5992179863147604
1.5718475073313782
1.542521994134897
1.517106549364614
1.495601173020528
1.4760508308895406
1.4701857282502444
1.4926686217008798
1.552297165200391
1.6529814271749756
1.7917888563049853
1.9589442815249267
2.1358748778103616
2.304985337243402
2.447702834799609
2.5454545454545454
2.6041055718475072
2.636363636363636
2.6392961876832843
2.6177908113391983
2.579667644183773
2.529814271749756
2.4731182795698925
2.4144672531769307
2.356793743890518
2.300097751710655
2.2453567937438903
2.19941348973607
2.1593352883675463
2.1192570869990224
2.0791788856304985
2.040078201368524
2.0
1.9579667644183771
1.9149560117302051
1.8729227761485825
1.8347996089931573
1.8005865102639296
1.7702834799608993
1.747800586510264
1.7350928641251222
1.7282502443792769
1.7282502443792769
1.7341153470185728
1.7458455522971652
1.7624633431085044
1.7790811339198436
1.790811339198436
1.7986314760508308
1.8005865102639296
1.796676441837732
1.7859237536656891
1.7732160312805474
1.7575757575757576
1.7360703812316716
1.7096774193548387
1.683284457478006
1.656891495601173
1.6304985337243405
1.603128054740958
1.573802541544477
1.542521994134897
1.5073313782991202
1.4711632453567938
1.4408602150537635
1.426197458455523
1.4349951124144673
1.47702834799609
1.560117302052786
1.6842619745845553
1.8406647116324533
2.013685239491691
2.185728250244379
2.3391984359726297
2.458455522971652
2.535679374389052
2.572825024437928
2.579667644183773
2.5620723362658846
2.525904203323558
2.4750733137829912
2.41544477028348
2.3528836754643208
2.290322580645161
2.23069403714565
2.174975562072336
2.1221896383186705
2.074291300097752
2.03128054740958
1.991202346041056
1.956989247311828
1.9237536656891496
1.884652981427175
1.8435972629521016
1.8005865102639296
1.7575757575757576
1.7174975562072337
1.6823069403714566
1.6549364613880744
1.6383186705767352
1.6314760508308896
1.635386119257087
1.64613880742913
1.6608015640273706
1.6793743890518085
1.6979472140762464
1.7145650048875856
1.7272727272727273
1.7341153470185728
1.7331378299120237
1.7253176930596286
1.7116324535679377
1.6920821114369502
1.6695992179863148
1.6451612903225807
1.624633431085044
1.606060606060606
1.5835777126099706
1.560117302052786
1.5356793743890518
1.5063538611925709
1.4701857282502444
1.4330400782013686
1.3998044965786902
1.380254154447703
1.383186705767351
1.4193548387096775
1.478983382209189
1.5679374389051808
1.7008797653958945
1.8621700879765395
2.034213098729228
2.1974584555229715
2.334310850439883
2.4349951124144678
2.4975562072336266
2.5239491691104594
2.517106549364614
2.486803519061584
2.439882697947214
2.389051808406647
2.3382209188660803
2.281524926686217
2.2238514173998043
2.167155425219941
2.114369501466276
2.0664711632453567
2.022482893450636
1.9824046920821117
1.943304007820137
1.903225806451613
1.8621700879765395
1.826001955034213
1.7947214076246334
1.7575757575757576
1.7194525904203324
1.6842619745845553
1.653958944281525
1.6314760508308896
1.6187683284457477
1.616813294232649
1.624633431085044
1.6392961876832846
1.6578690127077225
1.6774193548387095
1.6950146627565983
1.70772238514174
1.7165200391006843
1.718475073313783
1.7145650048875856
1.7038123167155426
1.6871945259042034
1.667644183773216
1.6441837732160314
1.619745845552297
1.5943304007820136
1.56891495601173
1.547409579667644
1.5268817204301075
1.500488758553275
1.469208211143695
1.4349951124144673
1.4007820136852396
1.375366568914956
1.370478983382209
1.3958944281524928
1.4594330400782014
1.564027370478983
1.699902248289345
1.8592375366568916
2.0097751710654936
2.144672531769306
2.2795698924731185
2.3929618768328447
2.472140762463343
2.5141739980449658
2.520039100684262
2.498533724340176
2.458455522971652
2.4086021505376345
2.3519061583577714
2.29227761485826
2.2385141739980448
2.188660801564027
2.136852394916911
2.0879765395894427
2.043010752688172
2.0
1.959921798631476
1.921798631476051
1.8836754643206255
1.8435972629521016
1.801564027370479
1.761485826001955
1.7253176930596286
1.6959921798631477
1.6735092864125125
1.6549364613880744
1.6451612903225807
1.643206256109482
1.6480938416422288
1.6588465298142718
1.675464320625611
1.6950146627565983
1.7165200391006843
1.737047898338221
1.75366568914956
1.7634408602150538
1.7683284457478006
1.7663734115347018
1.7565982404692082
1.7390029325513197
1.7165200391006843
1.689149560117302
1.66177908113392
1.635386119257087
1.608993157380254
1.5826001955034212
1.5532746823069403
1.520039100684262
1.4897360703812317
1.4623655913978495
1.435972629521017
1.4242424242424243
1.4379276637341154
1.4897360703812317
1.585532746823069
1.7223851417399805
1.8905180840664717
2.072336265884653
2.2482893450635384
2.403714565004888
2.515151515151515
2.5855327468230693
2.6295210166177907
2.641251221896383
2.624633431085044
2.5865102639296187
2.536656891495601
2.4789833822091887
2.418377321603128
2.358748778103617
2.300097751710655
2.243401759530792
2.196480938416422
2.1544477028347995
2.112414467253177
2.072336265884653
2.0332355816226784
1.9931573802541545
1.95405669599218
1.9149560117302051
1.8748778103616808
1.835777126099707
1.801564027370479
1.7732160312805474
1.75366568914956
1.7438905180840665
1.7419354838709675
1.747800586510264
1.7595307917888563
1.7741935483870968
1.790811339198436
1.8074291300097751
1.823069403714565
1.8328445747800584
1.835777126099707
1.8318670576735088
1.8201368523949168
1.8054740957966764
1.7898338220918866
1.7702834799608993
1.7497556207233629
1.726295210166178
1.7008797653958945
1.675464320625611
1.6480938416422288
1.616813294232649
1.5796676441837731
1.5395894428152492
1.5024437927663734
1.478983382209189
1.4731182795698925
1.4926686217008798
1.5513196480938416
1.6529814271749756
1.7947214076246334
1.9657869012707725
2.147605083088954
2.320625610948192
2.4672531769305963
2.576735092864125
2.6451612903225805
2.673509286412512
2.6715542521994133
2.6471163245356792
2.603128054740958
2.5464320625610948
2.4838709677419355
2.419354838709677
2.356793743890518
2.297165200391007
2.243401759530792
2.1945259042033234
2.1515151515151514
2.110459433040078
2.070381231671554
2.034213098729228
2.0
1.963831867057673
1.9257086999022484
1.884652981427175
1.842619745845552
1.8035190615835777
1.76930596285435
1.7429130009775171
1.7243401759530792
1.7165200391006843
1.7194525904203324
1.729227761485826
1.7429130009775171
1.758553274682307
1.7712609970674489
1.7810361681329423
1.7859237536656891
1.7849462365591398
1.7790811339198436
1.7673509286412512
1.7497556207233629
1.726295210166178
1.6989247311827955
1.6705767350928642
1.6471163245356797
1.6265884652981428
1.6011730205278591
1.5718475073313782
1.5386119257087
1.5034213098729228
1.4652981427174976
1.4271749755620724
1.3958944281524928
1.3812316715542523
1.3978494623655917
1.457478005865103
1.5405669599217986
1.6490713587487782
1.8005865102639296
1.975562072336266
2.1524926686217007
2.3098729227761488
2.4359726295210167
2.5219941348973607
2.565982404692082
2.572825024437928
2.550342130987292
2.5083088954056696
2.452590420332356
2.3958944281524928
2.3411534701857284
2.283479960899316
2.2267839687194524
2.1730205278592374
2.124144672531769
2.0791788856304985
2.0391006842619745
2.0009775171065494
1.9618768328445748
1.924731182795699
1.8866080156402736
1.8504398826979471
1.8162267839687196
1.7790811339198436
1.7409579667644184
1.7038123167155426
1.6735092864125125
1.6549364613880744
1.6471163245356797
1.6480938416422288
1.656891495601173
1.672531769305963
1.689149560117302
1.7038123167155426
1.7145650048875856
1.7204301075268815
1.721407624633431
1.7165200391006843
1.704789833822092
1.6871945259042034
1.6666666666666667
1.643206256109482
1.6177908113391983
1.5913978494623655
1.5650048875855327
1.5376344086021505
1.5151515151515151
1.4936461388074291
1.4652981427174976
1.4281524926686218
1.388074291300098
1.3548387096774193
1.3372434017595307
1.3450635386119256
1.391006842619746
1.479960899315738
1.6099706744868034
1.7732160312805474
1.95405669599218
2.112414467253177
2.24633431085044
2.3704789833822093
2.4652981427174976
2.52297165200391
2.5434995112414467
2.5317693059628543
2.493646138807429
2.439882697947214
2.378299120234604
2.313782991202346
2.2502443792766376
2.196480938416422
2.147605083088954
2.099706744868035
2.0557184750733137
2.013685239491691
1.970674486803519
1.9266862170087975
1.8856304985337244
1.8435972629521016
1.8025415444770283
1.761485826001955
1.7233626588465298
1.689149560117302
1.66177908113392
1.643206256109482
1.629521016617791
1.6236559139784943
1.6265884652981428
1.635386119257087
1.6500488758553276
1.6666666666666667
1.683284457478006
1.6959921798631477
1.7028347996089932
1.7038123167155426
1.7018572825024438
1.6950146627565983
1.6813294232649072
1.6627565982404693
1.640273704789834
1.6158357771260996
1.5894428152492668
1.5591397849462365
1.5288367546432062
1.499511241446725
1.4682306940371457
1.434017595307918
1.4037145650048877
1.3763440860215057
1.3470185728250244
1.3255131964809383
1.327468230694037
1.364613880742913
1.4437927663734116
1.5650048875855327
1.721407624633431
1.8993157380254155
2.080156402737048
2.243401759530792
2.375366568914956
2.463343108504399
2.5131964809384164
2.535679374389052
2.5288367546432062
2.4975562072336266
2.449657869012708
2.3919843597262958
2.329423264907136
2.2658846529814274
2.206256109481916
2.150537634408602
2.1006842619745845
2.060606060606061
2.026392961876833
1.9902248289345064
1.9530791788856303
1.916911045943304
1.881720430107527
1.8455522971652003
1.8084066471163245
1.772238514173998
1.7380254154447703
1.70772238514174
1.6842619745845553
1.6715542521994136
1.6686217008797657
1.6744868035190617
1.6871945259042034
1.704789833822092
1.726295210166178
1.7468230694037146
1.7624633431085044
1.7712609970674489
1.7732160312805474
1.76930596285435
1.7595307917888563
1.7448680351906158
1.729227761485826
1.7145650048875856
1.694037145650049
1.6686217008797657
1.643206256109482
1.616813294232649
1.590420332355816
1.563049853372434
1.533724340175953
1.501466275659824
1.4682306940371457
1.439882697947214
1.4291300097751711
1.439882697947214
1.478005865102639
1.5591397849462365
1.6852394916911049
1.8484848484848484
2.032258064516129
2.217986314760508
2.3851417399804498
2.5180840664711632
2.6099706744868034
2.659824046920821
2.673509286412512
2.659824046920821
2.627565982404692
2.5777126099706744
2.5161290322580645
2.450635386119257
2.3851417399804498
2.32355816226784
2.2668621700879767
2.21505376344086
2.16911045943304
2.129032258064516
2.09188660801564
2.0557184750733137
2.022482893450636
1.9902248289345064
1.9560117302052784
1.919843597262952
1.8826979472140764
1.8465298142717497
1.8142717497556209
1.7898338220918866
1.7732160312805474
1.7644183773216031
1.7644183773216031
1.7702834799608993
1.7771260997067448
1.7878787878787878
1.7996089931573802
1.8093841642228736
1.8172043010752688
1.818181818181818
1.812316715542522
1.7986314760508308
1.780058651026393
1.7575757575757576
1.7302052785923754
1.7018572825024438
1.672531769305963
1.6490713587487782
1.6285434995112416
1.6050830889540566
1.5796676441837731
1.5503421309872922
1.517106549364614
1.482893450635386
1.4535679374389052
1.4379276637341154
1.4486803519061584
1.4965786901270772
1.5884652981427174
1.696969696969697
1.823069403714565
1.9843597262952104
2.157380254154448
2.321603128054741
2.4565004887585533
2.5513196480938416
2.6041055718475072
2.618768328445748
2.603128054740958
2.5650048875855327
2.512218963831867
2.450635386119257
2.3919843597262958
2.3362658846529816
2.27761485826002
2.2218963831867056
2.1710654936461387
2.124144672531769
2.083088954056696
2.0449657869012707
2.005865102639296
1.9667644183773216
1.9257086999022484
1.8826979472140764
1.8435972629521016
1.8084066471163245
1.7712609970674489
1.7350928641251222
1.7038123167155426
1.678396871945259
1.6598240469208212
1.651026392961877
1.651026392961877
1.6588465298142718
1.672531769305963
1.6881720430107527
1.7008797653958945
1.710654936461388
1.7174975562072337
1.718475073313783
1.7126099706744868
1.6979472140762464
1.6764418377321604
1.651026392961877
1.6256109481915937
1.5992179863147604
1.5728250244379276
1.544477028347996
1.5151515151515151
1.4916911045943304
1.4701857282502444
1.4408602150537635
1.4086021505376345
1.3792766373411536
1.359726295210166
1.359726295210166
1.392961876832845
1.4682306940371457
1.58455522971652
1.737047898338221
1.913978494623656
2.0948191593352883
2.243401759530792
2.3597262952101663
2.4594330400782014
2.5249266862170088
2.555229716520039
2.5513196480938416
2.520039100684262
2.4682306940371457
2.406647116324536
2.3411534701857284
2.2766373411534704
2.2160312805474094
2.164222873900293
2.1192570869990224
2.0762463343108504
2.0361681329423265
1.997067448680352
1.9589442815249267
1.9227761485826005
1.8856304985337244
1.8455522971652003
1.8054740957966764
1.7653958944281525
1.7282502443792769
1.694037145650049
1.6666666666666667
1.6480938416422288
1.6344086021505375
1.6275659824046922
1.6285434995112416
1.635386119257087
1.6471163245356797
1.6637341153470186
1.6793743890518085
1.6920821114369502
1.7008797653958945
1.7018572825024438
1.696969696969697
1.6871945259042034
1.6686217008797657
1.64613880742913
1.6217008797653958
1.5962854349951123
1.5708699902248289
1.5454545454545454
1.5180840664711632
1.4887585532746823
1.455522971652004
1.4203323558162269
1.3900293255131966
1.3655913978494625
1.3440860215053765
1.33822091886608
1.3626588465298142
1.4252199413489737
1.530791788856305
1.675464320625611
1.8465298142717497
2.026392961876833
2.196480938416422
2.3391984359726297
2.443792766373412
2.504398826979472
2.530791788856305
2.5288367546432062
2.501466275659824
2.455522971652004
2.396871945259042
2.333333333333333
2.2688172043010755
2.206256109481916
2.1485826001955037
2.096774193548387
2.0527859237536656
2.0175953079178885
1.988269794721408
1.9579667644183771
1.9257086999022484
1.8914956011730208
1.8563049853372435
1.8201368523949168
1.782991202346041
1.7448680351906158
1.7086999022482894
1.6774193548387095
1.6559139784946235
1.6451612903225807
1.6412512218963833
1.6441837732160314
1.6529814271749756
1.6666666666666667
1.6842619745845553
1.7028347996089932
1.7194525904203324
1.732160312805474
1.7390029325513197
1.7380254154447703
1.729227761485826
1.7116324535679377
1.6920821114369502
1.6715542521994136
1.6471163245356797
1.6217008797653958
1.5962854349951123
1.56891495601173
1.5386119257087
1.5063538611925709
1.4701857282502444
1.43108504398827
1.396871945259042
1.3763440860215057
1.3812316715542523
1.409579667644184
1.4682306940371457
1.5718475073313782
1.715542521994135
1.8875855327468232
2.071358748778104
2.24633431085044
2.3949169110459434
2.506353861192571
2.573802541544477
2.5992179863147604
2.590420332355816
2.5620723362658846
2.5190615835777126
2.4613880742913
2.398826979472141
2.334310850439883
2.271749755620724
2.2140762463343107
2.163245356793744
2.118279569892473
2.0791788856304985
2.0449657869012707
2.0127077223851417
1.9804496578690127
1.951124144672532
1.921798631476051
1.8875855327468232
1.8504398826979471
1.81524926686217
1.7839687194525904
1.7565982404692082
1.7350928641251222
1.7223851417399805
1.7174975562072337
1.7204301075268815
1.7311827956989247
1.7438905180840665
1.7546432062561097
1.7634408602150538
1.7712609970674489
1.7761485826001957
1.7761485826001957
1.772238514173998
1.7644183773216031
1.7497556207233629
1.7282502443792769
1.7028347996089932
1.675464320625611
1.6490713587487782
1.6275659824046922
1.607038123167155
1.5806451612903225
1.5503421309872922
1.5180840664711632
1.4848484848484849
1.4535679374389052
1.4349951124144673
1.4408602150537635
1.4838709677419355
1.5708699902248289
1.699902248289345
1.836754643206256
1.981427174975562
2.1495601173020527
2.313782991202346
2.452590420332356
2.5542521994134897
2.6129032258064515
2.6295210166177907
2.611925708699902
2.567937438905181
2.50733137829912
2.4389051808406648
2.367546432062561
2.304985337243402
2.2502443792766376
2.1974584555229715
2.1485826001955037
2.104594330400782
2.0664711632453567
2.032258064516129
2.0
1.967741935483871
1.9345063538611929
1.8993157380254155
1.8621700879765395
1.8269794721407624
1.7956989247311828
1.7644183773216031
1.7360703812316716
1.7126099706744868
1.6979472140762464
1.6930596285434996
1.6959921798631477
1.7038123167155426
1.7135874877810362
1.7243401759530792
1.7331378299120237
1.7380254154447703
1.7409579667644184
1.7390029325513197
1.7302052785923754
1.715542521994135
1.3636363636363635
1.335288367546432
1.3176930596285434
1.324535679374389
1.3685239491691104
1.457478005865103
1.590420332355816
1.7565982404692082
1.9403714565004888
2.133919843597263
2.312805474095797
2.450635386119257
2.5386119257087
2.5855327468230693
2.606060606060606
2.598240469208211
2.5669599217986314
2.5210166177908118
2.4652981427174976
2.4056695992179864
2.347018572825025
2.291300097751711
2.239491691104594
2.1915933528836757
2.147605083088954
2.110459433040078
2.0762463343108504
2.038123167155425
1.9980449657869013
1.956989247311828
1.9130009775171064
1.8670576735092863
1.8211143695014664
1.7771260997067448
1.7380254154447703
1.7057673509286413
1.683284457478006
1.6735092864125125
1.6735092864125125
1.683284457478006
1.7018572825024438
1.7272727272727273
1.7556207233626588
1.7839687194525904
1.8084066471163245
1.825024437927664
1.833822091886608
1.835777126099707
1.8328445747800584
1.8240469208211143
1.8132942326490715
1.8005865102639296
1.7839687194525904
1.7624633431085044
1.7380254154447703
1.7116324535679377
1.678396871945259
1.6373411534701858
1.5923753665689149
1.5503421309872922
1.5190615835777126
1.5131964809384164
1.5327468230694037
1.585532746823069
1.686217008797654
1.8299120234604105
2.004887585532747
2.1915933528836757
2.36950146627566
2.52297165200391
2.6402737047898337
2.7155425219941347
2.7497556207233624
2.748778103616813
2.721407624633431
2.681329423264907
2.633431085043988
2.575757575757576
2.5141739980449658
2.453567937438905
2.3949169110459434
2.3382209188660803
2.2854349951124147
2.2355816226783967
2.187683284457478
2.1417399804496577
2.0948191593352883
2.053763440860215
2.016617790811339
1.975562072336266
1.9305962854349952
1.884652981427175
1.839687194525904
1.796676441837732
1.7595307917888563
1.732160312805474
1.7174975562072337
1.7145650048875856
1.721407624633431
1.7331378299120237
1.7487781036168133
1.7683284457478006
1.7869012707722385
1.8005865102639296
1.8074291300097751
1.8074291300097751
1.801564027370479
1.790811339198436
1.7741935483870968
1.7546432062561097
1.732160312805474
1.7086999022482894
1.6881720430107527
1.667644183773216
1.6383186705767352
1.6021505376344083
1.560117302052786
1.5141739980449658
1.4721407624633431
1.444770283479961
1.444770283479961
1.4838709677419355
1.5669599217986314
1.6950146627565983
1.8328445747800584
1.978494623655914
2.1485826001955037
2.314760508308896
2.4574780058651027
2.5650048875855327
2.63049853372434
2.654936461388074
2.64613880742913
2.611925708699902
2.5610948191593352
2.4995112414467253
2.434017595307918
2.376344086021505
2.321603128054741
2.2639296187683287
2.2082111436950145
2.155425219941349
2.1065493646138806
2.058651026392962
2.0127077223851417
1.967741935483871
1.920821114369501
1.871945259042033
1.822091886608016
1.7771260997067448
1.7350928641251222
1.6911045943304008
1.6500488758553276
1.616813294232649
1.5933528836754642
1.581622678396872
1.5826001955034212
1.5933528836754642
1.6129032258064515
1.6373411534701858
1.6627565982404693
1.6852394916911049
1.7018572825024438
1.7126099706744868
1.715542521994135
1.7116324535679377
1.7018572825024438
1.6871945259042034
1.6666666666666667
1.6422287390029326
1.6138807429130009
1.58455522971652
1.5532746823069403
1.517106549364614
1.482893450635386
1.4486803519061584
1.4066471163245358
1.364613880742913
1.335288367546432
1.3294232649071358
1.3616813294232648
1.439882697947214
1.563049853372434
1.7223851417399805
1.903225806451613
2.0879765395894427
2.2561094819159337
2.3812316715542523
2.4652981427174976
2.52297165200391
2.549364613880743
2.5454545454545454
2.517106549364614
2.4711632453567938
2.4134897360703813
2.350928641251222
2.289345063538612
2.228739002932551
2.1700879765395893
2.121212121212121
2.078201368523949
2.034213098729228
1.989247311827957
1.9442815249266865
1.8973607038123168
1.8504398826979471
1.8005865102639296
1.7487781036168133
1.6979472140762464
1.6490713587487782
1.6041055718475072
1.565982404692082
1.541544477028348
1.5268817204301075
1.5190615835777126
1.5239491691104594
1.5405669599217986
1.565982404692082
1.595307917888563
1.6236559139784943
1.6480938416422288
1.6656891495601174
1.675464320625611
1.678396871945259
1.6764418377321604
1.6686217008797657
1.653958944281525
1.6334310850439884
1.6099706744868034
1.5826001955034212
1.5532746823069403
1.521016617790811
1.4858260019550342
1.4467253176930597
1.4037145650048877
1.3587487781036167
1.321603128054741
1.3020527859237536
1.3049853372434017
1.3401759530791788
1.4193548387096775
1.544477028347996
1.7067448680351909
1.89247311827957
2.081133919843597
2.2521994134897363
2.3919843597262958
2.4916911045943304
2.548387096774193
2.5698924731182795
