ppg
2.179863147605083
2.259042033235582
2.3274682306940373
2.388074291300098
2.4408602150537635
2.486803519061584
2.5239491691104594
2.548387096774193
2.5650048875855327
2.5806451612903225
2.592375366568915
2.5972629521016617
2.593352883675464
2.5806451612903225
2.557184750733138
2.5239491691104594
2.4809384164222874
2.43108504398827
2.3743890518084068
2.321603128054741
2.2688172043010755
2.210166177908113
2.1495601173020527
2.089931573802541
2.0332355816226784
1.9794721407624636
1.927663734115347
1.87683284457478
1.828934506353861
1.782991202346041
1.737047898338221
1.6930596285434996
1.6559139784946235
1.6226783968719452
1.585532746823069
1.547409579667644
1.5083088954056696
1.469208211143695
1.4320625610948192
1.396871945259042
1.3626588465298142
1.3294232649071358
1.2971652003910068
1.2658846529814272
1.2424242424242424
1.2218963831867058
1.195503421309873
1.166177908113392
1.13880742913001
1.1124144672531768
1.0840664711632453
1.0547409579667644
1.0254154447702837
0.9980449657869012
0.9706744868035192
0.9452590420332356
0.9217986314760508
0.906158357771261
0.895405669599218
0.8817204301075269
0.8680351906158358
0.8572825024437928
0.8475073313782991
0.8387096774193549
0.8299120234604106
0.8220918866080157
0.8132942326490714
0.8054740957966764
0.7966764418377321
0.793743890518084
0.7956989247311828
0.7966764418377321
0.7966764418377321
0.7966764418377321
0.7966764418377321
0.7966764418377321
0.7976539589442815
0.8025415444770283
0.8152492668621701
0.8396871945259042
0.8787878787878788
0.9364613880742912
1.0039100684261977
1.083088954056696
1.1837732160312806
1.2991202346041055
1.4203323558162269
1.543499511241447
1.66177908113392
1.772238514173998
1.8729227761485825
1.962854349951124
2.042033235581622
2.1114369501466275
2.163245356793744
2.2052785923753664
2.247311827956989
2.2854349951124147
2.320625610948192
2.3499511241446727
2.3743890518084068
2.3919843597262958
2.40078201368524
2.40078201368524
2.3919843597262958
2.372434017595308
2.3440860215053765
2.312805474095797
2.27761485826002
2.2355816226783967
2.188660801564027
2.139784946236559
2.0928641251221896
2.0498533724340176
2.0097751710654936
1.970674486803519
1.9335288367546437
1.8983382209188664
1.8641251221896384
1.8347996089931573
1.8084066471163245
1.7810361681329423
1.7526881720430108
1.7243401759530792
1.696969696969697
1.6715542521994136
1.6480938416422288
1.6275659824046922
1.607038123167155
1.5835777126099706
1.560117302052786
1.5366568914956011
1.5190615835777126
1.501466275659824
1.478005865102639
1.4516129032258065
1.4252199413489737
1.4007820136852396
1.3792766373411536
1.359726295210166
1.3421309872922775
1.324535679374389
1.3079178885630498
1.2903225806451613
1.2766373411534702
1.2639296187683284
1.2473118279569892
1.2287390029325511
1.2111436950146628
1.1945259042033236
1.1779081133919844
1.1622678396871946
1.147605083088954
1.133919843597263
1.1231671554252198
1.1133919843597262
1.104594330400782
1.099706744868035
1.096774193548387
1.088954056695992
1.0801564027370478
1.0694037145650048
1.056695992179863
1.0439882697947214
1.0303030303030305
1.018572825024438
1.010752688172043
1.0068426197458455
1.010752688172043
1.0254154447702837
1.0527859237536656
1.099706744868035
1.1681329423264908
1.2561094819159335
1.3626588465298142
1.4848484848484849
1.6158357771260996
1.750733137829912
1.884652981427175
2.0127077223851417
2.131964809384164
2.2404692082111435
2.326490713587488
2.396871945259042
2.4682306940371457
2.5376344086021505
2.6021505376344085
2.66177908113392
2.717497556207233
2.7673509286412514
2.8084066471163247
2.841642228739003
2.865102639296188
2.878787878787879
2.8807429130009776
2.8719452590420333
2.857282502443793
2.8367546432062563
2.8084066471163247
2.771260997067449
2.7262952101661777
2.673509286412512
2.6158357771261
2.5562072336265884
2.496578690127077
2.436950146627566
2.378299120234604
2.3274682306940373
2.283479960899316
2.2385141739980448
2.1945259042033234
2.1515151515151514
2.1094819159335287
2.0684261974584555
2.029325513196481
1.988269794721408
1.948191593352884
1.9120234604105573
1.87683284457478
1.8465298142717497
1.8191593352883677
1.790811339198436
1.7624633431085044
1.7331378299120237
1.7038123167155426
1.675464320625611
1.64613880742913
1.6158357771260996
1.58455522971652
1.5532746823069403
1.5239491691104594
1.495601173020528
1.4721407624633431
1.452590420332356
1.4291300097751711
1.404692082111437
1.3812316715542523
1.3577712609970674
1.335288367546432
1.313782991202346
1.2932551319648091
1.2746823069403714
1.2590420332355816
1.2443792766373412
1.2346041055718475
1.224828934506354
1.2111436950146628
1.2434017595307918
1.2981427174975562
1.3176930596285434
1.8377321603128052
1.9472140762463344
2.048875855327468
2.1407624633431084
2.2248289345063537
2.290322580645161
2.343108504398827
2.3958944281524928
2.4457478005865103
2.490713587487781
2.530791788856305
2.5650048875855327
2.590420332355816
2.608993157380254
2.619745845552297
2.6207233626588464
2.6129032258064515
2.598240469208211
2.578690127077224
2.5532746823069403
2.5239491691104594
2.490713587487781
2.453567937438905
2.429130009775171
2.409579667644184
2.378299120234604
2.3440860215053765
2.3088954056695994
2.2737047898338223
2.2385141739980448
2.207233626588465
2.177908113391984
2.144672531769306
2.1094819159335287
2.0762463343108504
2.0439882697947214
2.010752688172043
1.9775171065493649
1.945259042033236
1.9130009775171064
1.881720430107527
1.8514173998044965
1.826001955034213
1.8054740957966764
1.7849462365591398
1.7634408602150538
1.7419354838709675
1.7194525904203324
1.696969696969697
1.6735092864125125
1.6500488758553276
1.6265884652981428
1.603128054740958
1.5806451612903225
1.560117302052786
1.543499511241447
1.5288367546432062
1.509286412512219
1.487781036168133
1.466275659824047
1.4457478005865103
1.426197458455523
1.4076246334310851
1.3900293255131966
1.3734115347018572
1.3577712609970674
1.343108504398827
1.3333333333333333
1.3264907135874875
1.316715542521994
1.303030303030303
1.2903225806451613
1.281524926686217
1.270772238514174
1.260019550342131
1.2482893450635386
1.2365591397849462
1.2258064516129032
1.2189638318670577
1.2160312805474096
1.2209188660801564
1.2355816226783969
1.2639296187683284
1.3088954056695992
1.375366568914956
1.4613880742913
1.564027370478983
1.6793743890518085
1.804496578690127
1.9345063538611929
2.0635386119257086
2.185728250244379
2.286412512218964
2.3714565004887587
2.458455522971652
2.541544477028348
2.619745845552297
2.6901270772238512
2.7536656891495603
2.811339198435973
2.8611925708699903
2.905180840664712
2.9423264907135875
2.972629521016618
2.9960899315738025
3.006842619745845
3.007820136852395
3.005865102639296
2.997067448680352
2.979472140762464
2.95405669599218
2.921798631476051
2.881720430107527
2.835777126099707
2.7839687194525906
2.7282502443792764
2.6695992179863146
2.6158357771261
2.5669599217986314
2.517106549364614
2.4672531769305963
2.419354838709677
2.3734115347018574
2.3313782991202348
2.2932551319648096
2.2561094819159337
2.220918866080156
2.1867057673509285
2.15347018572825
2.1192570869990224
2.0879765395894427
2.060606060606061
2.032258064516129
2.002932551319648
1.9736070381231672
1.945259042033236
1.9149560117302051
1.884652981427175
1.8543499511241448
1.826001955034213
1.7976539589442817
1.7702834799608993
1.7468230694037146
1.726295210166178
1.7028347996089932
1.6774193548387095
1.651026392961877
1.6256109481915937
1.6011730205278591
1.576735092864125
1.5542521994134897
1.5327468230694037
1.512218963831867
1.4926686217008798
1.474095796676442
1.4604105571847508
1.4496578690127078
1.436950146627566
1.4222873900293256
1.4076246334310851
1.391006842619746
1.3734115347018572
1.356793743890518
1.3421309872922775
1.3284457478005864
1.3157380254154447
1.3040078201368523
1.2961876832844574
1.2903225806451613
1.2825024437927663
1.2766373411534702
1.278592375366569
1.2942326490713587
1.327468230694037
1.380254154447703
1.4535679374389052
1.5464320625610948
1.653958944281525
1.772238514173998
1.895405669599218
2.002932551319648
2.101661779081134
2.2082111436950145
2.313782991202346
2.412512218963832
2.5034213098729228
2.5855327468230693
2.659824046920821
2.7253176930596283
2.782991202346041
2.833822091886608
2.875855327468231
2.902248289345064
2.919843597262952
2.936461388074292
2.948191593352884
2.9530791788856305
2.9501466275659824
2.930596285434995
2.9071358748778104
2.8856304985337244
2.852394916911046
2.8103616813294234
2.7624633431085046
2.7116324535679373
2.662756598240469
2.6158357771261
2.567937438905181
2.520039100684262
2.474095796676442
2.429130009775171
2.3841642228739004
2.3391984359726297
2.297165200391007
2.2561094819159337
2.2160312805474094
2.1788856304985336
2.146627565982405
2.117302052785924
2.0879765395894427
2.059628543499511
2.032258064516129
2.004887585532747
1.9775171065493649
1.951124144672532
1.9237536656891496
1.8944281524926687
1.8641251221896384
1.8347996089931573
1.804496578690127
1.7761485826001957
1.750733137829912
1.7233626588465298
1.696969696969697
1.6715542521994136
1.6471163245356797
1.6236559139784943
1.6011730205278591
1.5806451612903225
1.5620723362658846
1.542521994134897
1.52297165200391
1.5073313782991202
1.4936461388074291
1.478005865102639
1.4623655913978495
1.4467253176930597
1.4301075268817205
1.4134897360703813
1.396871945259042
1.3812316715542523
1.3655913978494625
1.3509286412512218
1.3372434017595307
1.3284457478005864
1.321603128054741
1.3128054740957966
1.3020527859237536
1.2913000977517106
1.2795698924731185
1.2697947214076246
1.2658846529814272
1.2717497556207231
1.2913000977517106
1.3294232649071358
1.3861192570869991
1.4623655913978495
1.542521994134897
1.629521016617791
1.737047898338221
1.855327468230694
1.975562072336266
2.0928641251221896
2.203323558162268
2.304985337243402
2.396871945259042
2.479960899315738
2.5532746823069403
2.6177908113391983
2.650048875855328
2.664711632453568
2.6901270772238512
2.718475073313783
2.742913000977517
2.7614858260019552
2.773216031280548
2.777126099706745
2.771260997067449
2.7565982404692084
2.7341153470185726
2.701857282502444
2.6608015640273703
2.6177908113391983
2.5718475073313782
2.517106549364614
2.4574780058651027
2.393939393939394
2.3274682306940373
2.260997067448681
2.1974584555229715
2.1388074291300097
2.083088954056696
2.029325513196481
1.9775171065493649
1.9335288367546437
1.8934506353861196
1.8504398826979471
1.8074291300097751
1.7634408602150538
1.7194525904203324
1.678396871945259
1.6383186705767352
1.5992179863147604
1.5610948191593352
1.5249266862170088
1.4897360703812317
1.4545454545454546
1.4252199413489737
1.3978494623655917
1.364613880742913
1.3304007820136852
1.2971652003910068
1.262952101661779
1.23069403714565
1.1994134897360704
1.1681329423264908
1.130987292277615
1.0977517106549364
1.075268817204301
1.0557184750733135
1.0391006842619743
1.018572825024438
0.9960899315738024
0.9726295210166178
0.9472140762463344
0.9217986314760508
0.8973607038123167
0.873900293255132
0.8514173998044966
0.83088954056696
0.8113391984359726
0.793743890518084
0.7820136852394917
0.7741935483870968
0.7624633431085044
0.750733137829912
0.739980449657869
0.7341153470185728
0.7311827956989247
0.729227761485826
0.7282502443792767
0.7282502443792767
0.729227761485826
0.7350928641251222
0.7497556207233627
0.7771260997067448
0.8240469208211144
0.8914956011730205
0.981427174975562
1.093841642228739
1.2228739002932552
1.364613880742913
1.5102639296187683
1.6549364613880744
1.7927663734115349
1.919843597262952
2.034213098729228
2.124144672531769
2.196480938416422
2.2658846529814274
2.329423264907136
2.3870967741935485
2.436950146627566
2.47702834799609
2.50733137829912
2.5288367546432062
2.5425219941348973
2.548387096774193
2.5464320625610948
2.536656891495601
2.5210166177908118
2.501466275659824
2.47702834799609
2.444770283479961
2.406647116324536
2.350928641251222
2.2981427174975564
2.249266862170088
2.203323558162268
2.161290322580645
2.121212121212121
2.09188660801564
2.0635386119257086
2.026392961876833
1.9902248289345064
1.9657869012707725
1.9403714565004888
1.9071358748778104
1.8699902248289344
1.8387096774193548
1.8113391984359728
1.7859237536656891
1.7605083088954057
1.7380254154447703
1.7233626588465298
1.7038123167155426
1.6764418377321604
1.651026392961877
1.6275659824046922
1.6050830889540566
1.5826001955034212
1.565982404692082
1.5493646138807429
1.5268817204301075
1.5034213098729228
1.478983382209189
1.457478005865103
1.4389051808406648
1.4173998044965788
1.3958944281524928
1.3743890518084063
1.3528836754643203
1.3333333333333333
1.3147605083088951
1.2971652003910068
1.2825024437927663
1.270772238514174
1.2609970674486803
1.2551319648093842
1.2512218963831867
1.2443792766373412
1.2355816226783969
1.2238514173998043
1.209188660801564
1.1935483870967742
1.176930596285435
1.164222873900293
1.1515151515151516
1.1358748778103618
1.1251221896383188
1.1173020527859236
1.1143695014662756
1.1173020527859236
1.1270772238514175
1.1485826001955035
1.1886608015640274
1.2512218963831867
1.3362658846529814
1.4428152492668622
1.565982404692082
1.7008797653958945
1.842619745845552
1.986314760508309
2.10850439882698
2.2160312805474094
2.3284457478005867
2.436950146627566
2.5386119257087
2.632453567937439
2.719452590420332
2.798631476050831
2.8699902248289346
2.9315738025415445
2.9824046920821115
3.0254154447702835
3.059628543499511
3.0791788856304985
3.088954056695992
3.096774193548387
3.099706744868035
3.0948191593352883
3.0791788856304985
3.053763440860215
3.0195503421309877
2.975562072336266
2.9237536656891496
2.865102639296188
2.8025415444770285
2.7419354838709675
2.681329423264907
2.6177908113391983
2.5542521994134897
2.49266862170088
2.432062561094819
2.375366568914956
2.320625610948192
2.2688172043010755
2.219941348973607
2.174975562072336
2.132942326490713
2.0957966764418376
2.06158357771261
2.0254154447702835
1.989247311827957
1.95405669599218
1.916911045943304
1.878787878787879
1.8406647116324533
1.804496578690127
1.76930596285435
1.7341153470185728
1.7008797653958945
1.6695992179863148
1.643206256109482
1.6187683284457477
1.590420332355816
1.5610948191593352
1.533724340175953
1.5073313782991202
1.4809384164222874
1.4545454545454546
1.4291300097751711
1.4056695992179864
1.3822091886608017
1.3577712609970674
1.33822091886608
1.3196480938416422
1.2981427174975562
1.2776148582600195
1.2570869990224829
1.2365591397849462
1.2179863147605083
1.2003910068426198
1.1827956989247312
1.1652003910068427
1.1485826001955035
1.133919843597263
1.1202346041055715
1.1114369501466277
1.104594330400782
1.0948191593352885
1.083088954056696
1.0733137829912025
1.0684261974584557
1.126099706744868
1.2228739002932552
1.295210166177908
1.3665689149560116
1.4467253176930597
1.5395894428152492
1.6314760508308896
1.7233626588465298
1.8318670576735088
1.9472140762463344
2.060606060606061
2.1700879765395893
2.272727272727273
2.3655913978494625
2.449657869012708
2.5239491691104594
2.590420332355816
2.6480938416422286
2.697947214076246
2.7341153470185726
2.7614858260019552
2.790811339198436
2.817204301075269
2.8396871945259043
2.855327468230694
2.86217008797654
2.860215053763441
2.849462365591398
2.8299120234604107
2.801564027370479
2.7653958944281527
2.7262952101661777
2.684261974584555
2.6373411534701856
2.5884652981427174
2.5386119257087
2.490713587487781
2.441837732160313
2.393939393939394
2.347018572825025
2.3010752688172045
2.257086999022483
2.21505376344086
2.174975562072336
2.1407624633431084
2.10850439882698
2.074291300097752
2.040078201368524
2.006842619745845
1.9736070381231672
1.9413489736070384
1.911045943304008
1.8807429130009776
1.8504398826979471
1.8191593352883677
1.7869012707722385
1.7595307917888563
1.7341153470185728
1.704789833822092
1.6735092864125125
1.6422287390029326
1.611925708699902
1.5826001955034212
1.5532746823069403
1.5239491691104594
1.495601173020528
1.4682306940371457
1.4418377321603129
1.4173998044965788
1.3988269794721409
1.383186705767351
1.3655913978494625
1.3470185728250244
1.3284457478005864
1.3069403714565004
1.2834799608993157
1.260019550342131
1.2375366568914956
1.2150537634408602
1.1945259042033236
1.1759530791788857
1.1612903225806452
1.1505376344086022
1.1368523949169111
1.1231671554252198
1.1085043988269794
1.0928641251221896
1.078201368523949
1.0635386119257086
1.0478983382209188
1.0342130987292275
1.024437927663734
1.024437927663734
1.0381231671554252
1.0654936461388074
1.10752688172043
1.1700879765395895
1.2531769305962854
1.35386119257087
1.4672531769305963
1.5865102639296187
1.7057673509286413
1.822091886608016
1.9305962854349952
2.0303030303030303
2.121212121212121
2.193548387096774
2.2531769305962857
2.313782991202346
2.3714565004887587
2.423264907135875
2.4682306940371457
2.5083088954056696
2.541544477028348
2.5669599217986314
2.5865102639296187
2.60019550342131
2.606060606060606
2.603128054740958
2.592375366568915
2.575757575757576
2.5513196480938416
2.520039100684262
2.484848484848485
2.4457478005865103
2.406647116324536
2.3685239491691106
2.3313782991202348
2.2961876832844577
2.260997067448681
2.225806451612903
2.1945259042033234
2.166177908113392
2.1378299120234603
2.1094819159335287
2.080156402737048
2.0518084066471163
2.0254154447702835
1.997067448680352
1.9667644183773216
1.9364613880742916
1.906158357771261
1.8748778103616808
1.8416422287390029
1.8142717497556209
1.790811339198436
1.7653958944281525
1.7390029325513197
1.7135874877810362
1.6901270772238517
1.667644183773216
1.6451612903225807
1.6226783968719452
1.6011730205278591
1.5796676441837731
1.560117302052786
1.544477028347996
1.5317693059628543
1.5141739980449658
1.4926686217008798
1.4701857282502444
1.4486803519061584
1.4291300097751711
1.4105571847507332
1.3949169110459434
1.3792766373411536
1.364613880742913
1.3509286412512218
1.3421309872922775
1.335288367546432
1.3264907135874875
1.316715542521994
1.3069403714565004
1.2961876832844574
1.2854349951124144
1.2746823069403714
1.2639296187683284
1.2531769305962854
1.2434017595307918
1.2365591397849462
1.2346041055718475
1.2404692082111437
1.2570869990224829
1.2873900293255132
1.3333333333333333
1.3978494623655917
1.4809384164222874
1.5796676441837731
1.6911045943304008
1.8103616813294232
1.9315738025415443
2.050830889540567
2.164222873900293
2.2551319648093844
2.3313782991202348
2.409579667644184
2.482893450635386
2.5513196480938416
2.613880742913001
2.670576735092864
2.7233626588465296
2.768328445747801
2.806451612903226
2.8396871945259043
2.866080156402737
2.8856304985337244
2.8944281524926687
2.8944281524926687
2.889540566959922
2.877810361681329
2.859237536656892
2.832844574780059
2.7976539589442817
2.755620723362659
2.708699902248289
2.658846529814272
2.606060606060606
2.5513196480938416
2.501466275659824
2.4545454545454546
2.407624633431085
2.361681329423265
2.317693059628544
2.275659824046921
2.236559139784946
2.201368523949169
2.167155425219941
2.133919843597263
2.1006842619745845
2.067448680351906
2.035190615835777
2.0087976539589443
1.9833822091886608
1.95405669599218
1.924731182795699
1.895405669599218
1.866080156402737
1.836754643206256
1.8084066471163245
1.7820136852394917
1.7556207233626588
1.7302052785923754
1.7057673509286413
1.686217008797654
1.6686217008797657
1.6490713587487782
1.6285434995112416
1.607038123167155
1.5865102639296187
1.5669599217986314
1.5483870967741935
1.5298142717497556
1.5112414467253177
1.4926686217008798
1.4750733137829912
1.4594330400782014
1.4506353861192571
1.444770283479961
1.434017595307918
1.4213098729227762
1.4066471163245358
1.3919843597262953
1.3773216031280548
1.3626588465298142
1.3519061583577712
1.3421309872922775
1.3313782991202343
1.3206256109481915
1.313782991202346
1.3079178885630498
1.2991202346041055
1.289345063538612
1.281524926686217
1.2795698924731185
1.2883675464320623
1.313782991202346
1.3587487781036167
1.4252199413489737
1.5131964809384164
1.6187683284457477
1.7360703812316716
1.8435972629521016
1.945259042033236
2.0576735092864125
2.1700879765395893
2.278592375366569
2.3792766373411536
2.472140762463343
2.555229716520039
2.6285434995112413
2.6930596285435
2.747800586510264
2.795698924731183
2.83088954056696
2.855327468230694
2.8797653958944283
2.900293255131965
2.9159335288367547
2.9257086999022484
2.927663734115347
2.9227761485826003
2.909090909090909
2.886608015640274
2.8563049853372435
2.819159335288368
2.777126099706745
2.732160312805474
2.686217008797654
2.636363636363636
2.5855327468230693
2.5347018572825024
2.4858260019550342
2.4379276637341154
2.391006842619746
2.347018572825025
2.3059628543499517
2.2658846529814274
2.2277614858260018
2.1945259042033234
2.1652003910068425
2.132942326490713
2.1006842619745845
2.0684261974584555
2.037145650048876
2.004887585532747
1.9726295210166176
1.9413489736070384
1.9100684261974583
1.8807429130009776
1.8533724340175952
1.827956989247312
1.8054740957966764
1.7839687194525904
1.7605083088954057
1.7360703812316716
1.7126099706744868
1.689149560117302
1.664711632453568
1.640273704789834
1.616813294232649
1.5962854349951123
1.5757575757575757
1.5562072336265884
1.5405669599217986
1.525904203323558
1.5073313782991202
1.4868035190615836
1.466275659824047
1.4486803519061584
1.4320625610948192
1.4164222873900294
1.4007820136852396
1.3861192570869991
1.3724340175953078
1.3587487781036167
1.346041055718475
1.3372434017595307
1.3313782991202343
1.3225806451612905
1.3128054740957966
1.3010752688172045
1.2883675464320623
1.2776148582600195
1.2746823069403714
1.2834799608993157
1.3088954056695992
1.3548387096774193
1.4213098729227762
1.4946236559139785
1.5747800586510263
1.6735092864125125
1.7849462365591398
1.902248289345064
2.018572825024438
2.1309872922776147
2.2346041055718477
2.3274682306940373
2.410557184750733
2.4838709677419355
2.547409579667644
2.6021505376344085
2.641251221896383
2.670576735092864
2.7008797653958942
2.729227761485826
2.7536656891495603
2.7722385141739982
2.782991202346041
2.7859237536656893
2.780058651026393
2.766373411534702
2.7438905180840663
2.7116324535679373
2.674486803519061
2.634408602150537
2.587487781036168
2.535679374389052
2.479960899315738
2.421309872922776
2.363636363636364
2.30791788856305
2.254154447702835
2.203323558162268
2.1544477028347995
2.10752688172043
2.0664711632453567
2.0283479960899315
1.988269794721408
1.948191593352884
1.90811339198436
1.8699902248289344
1.833822091886608
1.7986314760508308
1.7634408602150538
1.7302052785923754
1.696969696969697
1.6637341153470186
1.6304985337243405
1.603128054740958
1.5777126099706744
1.547409579667644
1.5161290322580645
1.4858260019550342
1.457478005865103
1.4301075268817205
1.401759530791789
1.3734115347018572
1.3450635386119256
1.3176930596285434
1.2903225806451613
1.2697947214076246
1.252199413489736
1.2316715542521994
1.2101661779081134
1.187683284457478
1.1652003910068427
1.1436950146627567
1.1251221896383188
1.110459433040078
1.096774193548387
1.083088954056696
1.0694037145650048
1.0547409579667644
1.0439882697947214
1.0371456500488758
1.0273704789833822
1.0166177908113392
1.0058651026392962
0.9980449657869012
0.9941348973607038
0.9921798631476052
0.9912023460410556
0.9902248289345064
0.9912023460410556
0.9990224828934506
1.0156402737047898
1.043010752688172
1.0840664711632453
1.141739980449658
1.2189638318670577
1.3157380254154447
1.4271749755620724
1.5493646138807429
1.6764418377321604
1.8025415444770283
1.921798631476051
