ppg
2.7438905180840663
2.665689149560117
2.590420332355816
2.5161290322580645
2.434017595307918
2.347018572825025
2.257086999022483
2.166177908113392
2.074291300097752
1.9824046920821117
1.8885630498533723
1.7947214076246334
1.7018572825024438
1.608993157380254
1.5180840664711632
1.4428152492668622
1.375366568914956
1.303030303030303
1.2336265884652982
1.1700879765395895
1.115347018572825
1.072336265884653
1.0420332355816226
1.024437927663734
1.0205278592375366
1.0283479960899315
1.0469208211143697
1.0703812316715542
1.0977517106549364
1.1290322580645162
1.1612903225806452
1.1925708699902249
1.2209188660801564
1.2443792766373412
1.2639296187683284
1.278592375366569
1.2883675464320623
1.2932551319648091
1.295210166177908
1.2942326490713587
1.2942326490713587
1.2932551319648091
1.289345063538612
1.281524926686217
1.2697947214076246
1.2531769305962854
1.2326490713587488
1.2140762463343109
1.206256109481916
1.224828934506354
1.2825024437927663
1.391006842619746
1.521016617790811
1.6774193548387095
1.8866080156402736
2.121212121212121
2.3548387096774195
2.565982404692082
2.740957966764418
2.8719452590420333
2.9589442815249267
3.005865102639296
3.0195503421309877
3.006842619745845
2.9765395894428157
2.9335288367546437
2.87683284457478
2.809384164222874
2.7341153470185726
2.6529814271749754
2.5669599217986314
2.4780058651026398
2.3870967741935485
2.294232649071359
2.201368523949169
2.10850439882698
2.0146627565982405
1.932551319648094
1.8563049853372435
1.772238514173998
1.6842619745845553
1.5943304007820136
1.5053763440860215
1.4193548387096775
1.3362658846529814
1.260019550342131
1.1906158357771262
1.1300097751710656
1.0811339198435972
1.0488758553274682
1.029325513196481
1.0175953079178883
1.0156402737047898
1.024437927663734
1.0420332355816226
1.0664711632453567
1.0957966764418376
1.1280547409579669
1.1593352883675463
1.1886608015640274
1.2140762463343109
1.2355816226783969
1.252199413489736
1.2649071358748778
1.273704789833822
1.2776148582600195
1.278592375366569
1.2756598240469208
1.270772238514174
1.2649071358748778
1.2570869990224829
1.24633431085044
1.2316715542521994
1.2130987292277615
1.1964809384164223
1.1837732160312806
1.176930596285435
1.1906158357771262
1.241446725317693
1.3391984359726294
1.4887585532746823
1.6852394916911049
1.9130009775171064
2.1524926686217007
2.380254154447703
2.579667644183773
2.7262952101661777
2.8132942326490715
2.8670576735092865
2.9012707722385143
2.913000977517106
2.902248289345064
2.8729227761485827
2.8299120234604107
2.7751710654936463
2.710654936461388
2.6392961876832843
2.5620723362658846
2.4809384164222874
2.4056695992179864
2.332355816226784
2.251221896383187
2.166177908113392
2.078201368523949
1.989247311827957
1.8993157380254155
1.8093841642228736
1.7194525904203324
1.629521016617791
1.5405669599217986
1.4535679374389052
1.370478983382209
1.303030303030303
1.2453567937438903
1.1857282502443791
1.1300097751710656
1.083088954056696
1.04594330400782
1.0205278592375366
1.0068426197458455
1.0058651026392962
1.0146627565982405
1.0332355816226784
1.0586510263929618
1.0869990224828934
1.1163245356793745
1.1466275659824048
1.1759530791788857
1.2013685239491692
1.2228739002932552
1.2394916911045943
1.252199413489736
1.260019550342131
1.2639296187683284
1.2649071358748778
1.262952101661779
1.2590420332355816
1.2561094819159335
1.2531769305962854
1.2453567937438903
1.2326490713587488
1.2150537634408602
1.1945259042033236
1.176930596285435
1.173998044965787
1.198435972629521
1.2639296187683284
1.3792766373411536
1.544477028347996
1.7174975562072337
1.8983382209188664
2.1114369501466275
2.326490713587488
2.520039100684262
2.678396871945259
2.7966764418377323
2.873900293255132
2.9149560117302054
2.9266862170087977
2.913978494623656
2.8826979472140764
2.8377321603128056
2.7859237536656893
2.7282502443792764
2.6608015640273703
2.5865102639296187
2.50733137829912
2.4242424242424243
2.3382209188660803
2.2502443792766376
2.160312805474096
2.069403714565005
1.9775171065493649
1.884652981427175
1.8035190615835777
1.7272727272727273
1.643206256109482
1.555229716520039
1.4682306940371457
1.383186705767351
1.3020527859237536
1.2258064516129032
1.1583577712609971
1.099706744868035
1.0518084066471165
1.0156402737047898
0.9921798631476052
0.9824046920821116
0.9853372434017597
0.9960899315738024
1.0146627565982405
1.040078201368524
1.0703812316715542
1.1016617790811338
1.1329423264907137
1.163245356793744
1.1896383186705768
1.2121212121212122
1.23069403714565
1.2453567937438903
1.2561094819159335
1.262952101661779
1.2668621700879763
1.2668621700879763
1.2649071358748778
1.2609970674486803
1.2541544477028348
1.2443792766373412
1.2287390029325511
1.209188660801564
1.1915933528836755
1.1827956989247312
1.1906158357771262
1.2238514173998043
1.2991202346041055
1.423264907135875
1.5962854349951123
1.8064516129032255
2.038123167155425
2.2688172043010755
2.479960899315738
2.6578690127077222
2.793743890518084
2.887585532746823
2.93841642228739
2.956989247311828
2.956011730205278
2.935483870967742
2.898338220918866
2.8475073313782997
2.7859237536656893
2.7155425219941347
2.6392961876832843
2.5591397849462365
2.4760508308895406
2.3900293255131966
2.302052785923754
2.222873900293255
2.147605083088954
2.064516129032258
1.9765395894428155
1.8866080156402736
1.7947214076246334
1.7028347996089932
1.611925708699902
1.521994134897361
1.434017595307918
1.3499511241446724
1.270772238514174
1.2082111436950147
1.1564027370478984
1.104594330400782
1.0586510263929618
1.0205278592375366
0.9941348973607038
0.9804496578690128
0.978494623655914
0.9872922776148584
1.0058651026392962
1.032258064516129
1.0625610948191593
1.093841642228739
1.1241446725317692
1.1544477028347997
1.181818181818182
1.2052785923753666
1.2238514173998043
1.2375366568914956
1.2473118279569892
1.2531769305962854
1.2551319648093842
1.2551319648093842
1.252199413489736
1.2482893450635386
1.2443792766373412
1.2394916911045943
1.2287390029325511
1.2111436950146628
1.1915933528836755
1.1779081133919844
1.181818181818182
1.2160312805474096
1.295210166177908
1.4242424242424243
1.6011730205278591
1.8142717497556209
2.0146627565982405
2.20039100684262
2.396871945259042
2.5747800586510263
2.718475073313783
2.822091886608016
2.886608015640274
2.916911045943304
2.917888563049853
2.8963831867057674
2.857282502443793
2.8044965786901277
2.740957966764418
2.675464320625611
2.608993157380254
2.533724340175953
2.452590420332356
2.3685239491691106
2.2825024437927666
2.1945259042033234
2.1065493646138806
2.0175953079178885
1.9286412512218964
1.8387096774193548
1.7497556207233629
1.6715542521994136
1.6001955034213098
1.521994134897361
1.4408602150537635
1.3616813294232648
1.2864125122189638
1.2160312805474096
1.1534701857282503
1.1006842619745845
1.0586510263929618
1.0283479960899315
1.0117302052785924
1.0068426197458455
1.0127077223851415
1.0273704789833822
1.0488758553274682
1.0762463343108504
1.1065493646138806
1.13880742913001
1.1700879765395895
1.198435972629521
1.2228739002932552
1.2424242424242424
1.2580645161290325
1.2688172043010753
1.2766373411534702
1.281524926686217
1.2834799608993157
1.2825024437927663
1.2795698924731185
1.2746823069403714
1.273704789833822
1.273704789833822
1.2619745845552297
1.2443792766373412
1.2267839687194526
1.2209188660801564
1.2394916911045943
1.281524926686217
1.356793743890518
1.4838709677419355
1.6588465298142718
1.8699902248289344
2.0977517106549364
2.321603128054741
2.52297165200391
2.689149560117302
2.8132942326490715
2.8963831867057674
2.941348973607038
2.95405669599218
2.9442815249266863
2.916911045943304
2.875855327468231
2.822091886608016
2.758553274682307
2.6881720430107525
2.611925708699902
2.5317693059628543
2.447702834799609
2.361681329423265
2.2737047898338223
2.1847507331378297
2.104594330400782
2.029325513196481
1.946236559139785
1.8592375366568916
1.7712609970674489
1.683284457478006
1.595307917888563
1.509286412512219
1.4252199413489737
1.346041055718475
1.2717497556207231
1.2043010752688172
1.1534701857282503
1.1143695014662756
1.0791788856304985
1.0518084066471165
1.035190615835777
1.029325513196481
1.035190615835777
1.050830889540567
1.0733137829912025
1.1016617790811338
1.1329423264907137
1.1652003910068427
1.195503421309873
1.2218963831867058
1.2443792766373412
1.2639296187683284
1.2795698924731185
1.2903225806451613
1.2961876832844574
1.2991202346041055
1.2991202346041055
1.2971652003910068
1.2932551319648091
1.2873900293255132
1.2776148582600195
1.267839687194526
1.2561094819159335
1.238514173998045
1.2228739002932552
1.2189638318670577
1.2394916911045943
1.300097751710655
1.409579667644184
1.5679374389051808
1.7673509286412512
1.992179863147605
2.2218963831867056
2.4349951124144678
2.5992179863147604
2.720430107526881
2.8211143695014664
2.8914956011730206
2.9315738025415445
2.9423264907135875
2.929618768328446
2.897360703812317
2.849462365591398
2.790811339198436
2.7233626588465296
2.649071358748778
2.5777126099706744
2.50733137829912
2.4281524926686218
2.345063538611926
2.260019550342131
2.1730205278592374
2.085043988269794
1.9960899315738023
1.906158357771261
1.8172043010752688
1.7282502443792769
1.6392961876832846
1.552297165200391
1.478005865102639
1.412512218963832
1.3411534701857282
1.270772238514174
1.2052785923753666
1.1466275659824048
1.0977517106549364
1.0606060606060606
1.035190615835777
1.0224828934506354
1.021505376344086
1.0312805474095796
1.0488758553274682
1.072336265884653
1.1016617790811338
1.1329423264907137
1.1652003910068427
1.1964809384164223
1.224828934506354
1.2482893450635386
1.2668621700879763
1.2795698924731185
1.2873900293255132
1.29227761485826
1.2961876832844574
1.2991202346041055
1.2991202346041055
1.2961876832844574
1.2913000977517106
1.281524926686217
1.2668621700879763
1.2482893450635386
1.2297165200391007
1.219941348973607
1.2326490713587488
1.281524926686217
1.3773216031280548
1.495601173020528
1.6412512218963833
1.8377321603128052
2.0625610948191597
2.290322580645161
2.5004887585532747
2.677419354838709
2.8132942326490715
2.906158357771261
2.959921798631476
2.9804496578690127
2.9745845552297165
2.949169110459433
2.9100684261974585
2.859237536656892
2.7976539589442817
2.7282502443792764
2.653958944281525
2.575757575757576
2.493646138807429
2.4086021505376345
2.3225806451612905
2.2355816226783967
2.1485826001955037
2.060606060606061
1.9833822091886608
1.911045943304008
1.83088954056696
1.7468230694037146
1.6608015640273706
1.5757575757575757
1.4916911045943304
1.4105571847507332
1.3333333333333333
1.262952101661779
1.2003910068426198
1.1456500488758554
1.10752688172043
1.0811339198435972
1.0606060606060606
1.0498533724340176
1.0488758553274682
1.0586510263929618
1.0772238514173995
1.1026392961876832
1.1319648093841643
1.163245356793744
1.1945259042033236
1.2238514173998043
1.2482893450635386
1.2688172043010753
1.2854349951124144
1.2991202346041055
1.3079178885630498
1.313782991202346
1.3157380254154447
1.3157380254154447
1.313782991202346
1.3098729227761483
1.3040078201368523
1.2932551319648091
1.2776148582600195
1.262952101661779
1.2512218963831867
1.2453567937438903
1.2590420332355816
1.3069403714565004
1.3998044965786902
1.543499511241447
1.732160312805474
1.951124144672532
2.1818181818181817
2.4027370478983383
2.5962854349951123
2.7517106549364616
2.855327468230694
2.916911045943304
2.956011730205278
2.9696969696969697
2.960899315738025
2.932551319648094
2.887585532746823
2.83088954056696
2.7653958944281527
2.6930596285435
2.6148582600195502
2.532746823069404
2.455522971652004
2.3812316715542523
2.2991202346041058
2.2130987292277613
2.124144672531769
2.034213098729228
1.9442815249266865
1.8543499511241448
1.7644183773216031
1.675464320625611
1.587487781036168
1.501466275659824
1.418377321603128
1.3499511241446724
1.2913000977517106
1.23069403714565
1.1730205278592376
1.1231671554252198
1.0821114369501466
1.0527859237536656
1.035190615835777
1.029325513196481
1.035190615835777
1.050830889540567
1.0733137829912025
1.0977517106549364
1.1231671554252198
1.1515151515151516
1.1808406647116323
1.2082111436950147
1.2316715542521994
1.2502443792766371
1.2649071358748778
1.273704789833822
1.278592375366569
1.2805474095796676
1.2795698924731185
1.2766373411534702
1.2746823069403714
1.2727272727272727
1.2668621700879763
1.2551319648093842
1.238514173998045
1.2189638318670577
1.2023460410557183
1.1974584555229717
1.217008797653959
1.2756598240469208
1.3822091886608017
1.5376344086021505
1.7028347996089932
1.8778103616813293
2.0869990224828934
2.300097751710655
2.4946236559139785
2.6559139784946235
2.776148582600196
2.855327468230694
2.898338220918866
2.9100684261974585
2.897360703812317
2.865102639296188
2.8181818181818183
2.764418377321604
2.705767350928641
2.6373411534701856
2.563049853372434
2.4838709677419355
2.401759530791789
2.317693059628544
2.231671554252199
2.144672531769306
2.0576735092864125
1.9696969696969695
1.881720430107527
1.804496578690127
1.732160312805474
1.6529814271749756
1.5698924731182795
1.4858260019550342
1.4037145650048877
1.324535679374389
1.2512218963831867
1.1837732160312806
1.1251221896383188
1.075268817204301
1.0381231671554252
1.0127077223851415
1.0009775171065494
1.0009775171065494
1.0097751710654936
1.0263929618768328
1.0498533724340176
1.078201368523949
1.1085043988269794
1.1397849462365592
1.1700879765395895
1.198435972629521
1.2228739002932552
1.2424242424242424
1.2590420332355816
1.270772238514174
1.278592375366569
1.2825024437927663
1.2834799608993157
1.2825024437927663
1.2795698924731185
1.2746823069403714
1.2658846529814272
1.2531769305962854
1.2355816226783969
1.217008797653959
1.2043010752688172
1.2043010752688172
1.2267839687194526
1.284457478005865
1.3890518084066472
1.542521994134897
1.7380254154447703
1.9589442815249267
2.1867057673509285
2.39980449657869
2.5835777126099706
2.7282502443792764
2.83088954056696
2.889540566959922
2.913978494623656
2.918866080156403
2.9042033235581624
2.8719452590420333
2.8260019550342133
2.768328445747801
2.701857282502444
2.6295210166177907
2.5513196480938416
2.4701857282502444
2.3870967741935485
2.310850439882698
2.2385141739980448
2.1593352883675463
2.0762463343108504
1.9902248289345064
1.902248289345064
1.8142717497556209
1.726295210166178
1.6383186705767352
1.5513196480938416
1.466275659824047
1.3851417399804498
1.3079178885630498
1.24633431085044
1.195503421309873
1.1436950146627567
1.0977517106549364
1.0606060606060606
1.0342130987292275
1.0195503421309873
1.0166177908113392
1.024437927663734
1.0410557184750733
1.0654936461388074
1.0957966764418376
1.126099706744868
1.155425219941349
1.1857282502443791
1.2140762463343109
1.238514173998045
1.2590420332355816
1.2746823069403714
1.2854349951124144
1.2932551319648091
1.2971652003910068
1.2981427174975562
1.2961876832844574
1.29227761485826
1.2883675464320623
1.2834799608993157
1.2717497556207231
1.2551319648093842
1.238514173998045
1.2297165200391007
1.2424242424242424
1.2903225806451613
1.3841642228739004
1.5268817204301075
1.715542521994135
1.935483870967742
2.1358748778103616
2.317693059628544
2.504398826979472
2.668621700879765
2.798631476050831
2.889540566959922
2.9423264907135875
2.963831867057673
2.9589442815249267
2.932551319648094
2.889540566959922
2.833822091886608
2.768328445747801
2.701857282502444
2.634408602150537
2.558162267839687
2.4760508308895406
2.3919843597262958
2.304985337243402
2.2170087976539588
2.129032258064516
2.040078201368524
1.9501466275659824
1.86119257086999
1.772238514173998
1.6950146627565983
1.6236559139784943
1.544477028347996
1.4633431085043989
1.383186705767351
1.3069403714565004
1.2355816226783969
1.1710654936461389
1.1163245356793745
1.072336265884653
1.040078201368524
1.0205278592375366
1.013685239491691
1.0175953079178883
1.0312805474095796
1.0518084066471165
1.0791788856304985
1.110459433040078
1.1436950146627567
1.1759530791788857
1.206256109481916
1.2326490713587488
1.2551319648093842
1.2717497556207231
1.284457478005865
1.2942326490713587
1.3010752688172045
1.3040078201368523
1.3049853372434017
1.303030303030303
1.2991202346041055
1.29227761485826
1.281524926686217
1.2658846529814272
1.24633431085044
1.2287390029325511
1.2228739002932552
1.241446725317693
1.2825024437927663
1.356793743890518
1.482893450635386
1.6578690127077225
1.869012707722385
2.0977517106549364
2.321603128054741
2.52297165200391
2.689149560117302
2.8132942326490715
2.8963831867057674
2.941348973607038
2.95405669599218
2.9423264907135875
2.9149560117302054
2.8729227761485827
2.819159335288368
2.755620723362659
2.684261974584555
2.6080156402737047
2.5268817204301075
2.442815249266862
2.356793743890518
2.2688172043010755
2.1808406647116323
2.101661779081134
2.027370478983382
1.946236559139785
1.86119257086999
1.7741935483870968
1.6871945259042034
1.6050830889540566
1.525904203323558
1.4467253176930597
1.370478983382209
1.2991202346041055
1.2336265884652982
1.18475073313783
1.147605083088954
1.1124144672531768
1.0850439882697946
1.067448680351906
1.0606060606060606
1.064516129032258
1.0772238514173995
1.0977517106549364
1.1241446725317692
1.1534701857282503
1.1827956989247312
1.2111436950146628
1.2355816226783969
1.2561094819159335
1.273704789833822
1.2883675464320623
1.2991202346041055
1.3049853372434017
1.3079178885630498
1.3079178885630498
1.305962854349951
1.3020527859237536
1.2961876832844574
1.2873900293255132
1.2795698924731185
1.2697947214076246
1.2531769305962854
1.2365591397849462
1.2297165200391007
1.2443792766373412
1.2961876832844574
1.393939393939394
1.5405669599217986
1.7302052785923754
1.949169110459433
2.177908113391984
2.3949169110459434
2.5640273704789838
2.6911045943304006
2.798631476050831
2.874877810361681
2.918866080156403
2.9345063538611926
2.9257086999022484
2.897360703812317
2.8533724340175954
2.7976539589442817
2.7331378299120237
2.6608015640273703
2.591397849462365
2.5210166177908118
2.443792766373412
2.3626588465298144
2.278592375366569
2.193548387096774
2.10752688172043
2.0195503421309877
1.9315738025415443
1.842619745845552
1.7546432062561097
1.6666666666666667
1.590420332355816
1.521016617790811
1.4457478005865103
1.3695014662756595
1.2961876832844574
1.2287390029325511
1.1681329423264908
1.1173020527859236
1.0762463343108504
1.0469208211143697
1.0303030303030305
1.0254154447702837
1.0312805474095796
1.04594330400782
1.0664711632453567
1.0928641251221896
1.1231671554252198
1.155425219941349
1.187683284457478
1.217008797653959
1.241446725317693
1.2619745845552297
1.2776148582600195
1.2883675464320623
1.295210166177908
1.3010752688172045
1.3040078201368523
1.3040078201368523
1.3020527859237536
1.2971652003910068
1.289345063538612
1.2766373411534702
1.260019550342131
1.2404692082111437
1.2258064516129032
1.2258064516129032
1.2541544477028348
1.3235581622678396
1.4164222873900294
1.5395894428152492
1.7145650048875856
1.924731182795699
2.1485826001955037
2.363636363636364
2.5532746823069403
2.705767350928641
2.817204301075269
2.8885630498533725
2.924731182795699
2.9315738025415445
2.916911045943304
2.886608015640274
2.843597262952102
2.788856304985337
2.7262952101661777
2.656891495601173
2.582600195503421
2.5034213098729228
2.4222873900293256
2.3382209188660803
2.2531769305962857
2.1681329423264906
2.0821114369501466
2.005865102639296
1.9335288367546437
1.8533724340175952
1.76930596285435
1.683284457478006
1.5972629521016617
1.512218963831867
1.4291300097751711
1.3509286412512218
1.2776148582600195
1.2121212121212122
1.1544477028347997
1.1124144672531768
1.0840664711632453
1.0596285434995112
1.0449657869012707
1.040078201368524
1.04594330400782
1.06158357771261
1.0840664711632453
1.1124144672531768
1.142717497556207
1.173998044965787
1.203323558162268
1.23069403714565
1.2531769305962854
1.2717497556207231
1.2873900293255132
1.2991202346041055
1.3069403714565004
1.310850439882698
1.3118279569892473
1.310850439882698
1.3069403714565004
1.3010752688172045
1.2903225806451613
1.2756598240469208
1.2619745845552297
1.2502443792766371
1.2394916911045943
1.2443792766373412
1.2776148582600195
1.3509286412512218
1.4731182795698925
1.6422287390029326
1.8484848484848484
2.074291300097752
2.300097751710655
2.505376344086021
2.677419354838709
2.7966764418377323
2.873900293255132
2.9266862170087977
2.9530791788856305
2.9550342130987293
2.935483870967742
2.8993157380254155
2.850439882697948
2.790811339198436
2.724340175953079
2.652003910068426
2.5747800586510263
2.5024437927663734
2.432062561094819
2.35386119257087
2.272727272727273
2.189638318670577
2.104594330400782
2.018572825024438
1.9315738025415443
1.844574780058651
1.7575757575757576
1.6705767350928642
1.585532746823069
1.5024437927663734
1.4330400782013686
1.3724340175953078
1.3088954056695992
1.2482893450635386
1.1935483870967742
1.147605083088954
1.1133919843597262
1.0909090909090908
1.0801564027370478
1.0801564027370478
1.0909090909090908
1.1094819159335287
1.1319648093841643
1.1573802541544478
1.18475073313783
1.2130987292277615
1.2404692082111437
1.2649071358748778
1.284457478005865
1.300097751710655
1.3118279569892473
1.3196480938416422
1.3235581622678396
1.324535679374389
1.3235581622678396
1.3235581622678396
1.3225806451612905
1.3186705767350928
1.3098729227761483
1.2961876832844574
1.278592375366569
1.260019550342131
1.249266862170088
1.2580645161290325
1.300097751710655
1.3861192570869991
1.521016617790811
1.6695992179863148
1.8347996089931573
2.040078201368524
2.257086999022483
2.4604105571847508
2.634408602150537
2.7702834799608995
2.865102639296188
2.920821114369501
2.943304007820137
2.9393939393939394
2.913978494623656
2.8719452590420333
2.8240469208211145
2.7722385141739982
2.70772238514174
2.634408602150537
2.555229716520039
2.472140762463343
2.386119257086999
2.2981427174975564
2.209188660801564
2.120234604105572
2.03128054740958
1.9413489736070384
1.8631476050830889
1.7898338220918866
1.7096774193548387
1.6256109481915937
1.5405669599217986
1.457478005865103
1.3773216031280548
1.3010752688172045
1.2316715542521994
1.1691104594330402
1.115347018572825
1.072336265884653
1.0410557184750733
1.0234604105571847
1.018572825024438
1.021505376344086
1.0332355816226784
1.0527859237536656
1.078201368523949
1.1085043988269794
1.1397849462365592
1.1710654936461389
1.2003910068426198
1.2258064516129032
1.24633431085044
1.262952101661779
1.2746823069403714
1.2825024437927663
1.2864125122189638
1.2873900293255132
1.2864125122189638
1.2834799608993157
1.278592375366569
1.2717497556207231
1.2609970674486803
1.2453567937438903
1.2267839687194526
1.2111436950146628
1.2023460410557183
1.2043010752688172
1.2316715542521994
1.2991202346041055
1.414467253176931
1.5777126099706744
1.7790811339198436
2.0019550342130987
2.2267839687194524
2.4330400782013686
2.6080156402737047
2.742913000977517
2.827956989247312
2.874877810361681
2.8993157380254155
2.9012707722385143
2.8826979472140764
2.84652981427175
2.7976539589442817
2.73802541544477
2.670576735092864
2.5962854349951123
2.5180840664711632
2.4359726295210167
2.360703812316716
2.2883675464320627
2.209188660801564
2.126099706744868
2.0410557184750733
1.95405669599218
1.8670576735092863
1.7790811339198436
1.6920821114369502
1.6050830889540566
1.5190615835777126
1.4349951124144673
1.3548387096774193
1.289345063538612
1.2336265884652982
1.176930596285435
1.1241446725317692
1.0791788856304985
1.0439882697947214
1.0195503421309873
1.007820136852395
1.0068426197458455
1.0166177908113392
1.0361681329423265
1.0625610948191593
1.0909090909090908
