ppg
1.866080156402737
1.8406647116324533
1.8172043010752688
1.7947214076246334
1.772238514173998
1.7497556207233629
1.726295210166178
1.7018572825024438
1.6764418377321604
1.653958944281525
1.6334310850439884
1.6099706744868034
1.585532746823069
1.5591397849462365
1.533724340175953
1.5083088954056696
1.4838709677419355
1.4604105571847508
1.4379276637341154
1.4164222873900294
1.3958944281524928
1.3773216031280548
1.3626588465298142
1.3509286412512218
1.33822091886608
1.3255131964809383
1.313782991202346
1.3020527859237536
1.2913000977517106
1.2805474095796676
1.270772238514174
1.2609970674486803
1.2512218963831867
1.2424242424242424
1.2365591397849462
1.2316715542521994
1.2258064516129032
1.2189638318670577
1.2121212121212122
1.2052785923753666
1.198435972629521
1.1925708699902249
1.1867057673509287
1.181818181818182
1.176930596285435
1.1720430107526882
1.1700879765395895
1.1691104594330402
1.166177908113392
1.1622678396871946
1.1583577712609971
1.155425219941349
1.152492668621701
1.1505376344086022
1.1485826001955035
1.1466275659824048
1.144672531769306
1.1436950146627567
1.142717497556207
1.144672531769306
1.147605083088954
1.1495601173020529
1.1515151515151516
1.152492668621701
1.1534701857282503
1.1544477028347997
1.1564027370478984
1.1583577712609971
1.160312805474096
1.1622678396871946
1.166177908113392
1.1720430107526882
1.181818181818182
1.1964809384164223
1.219941348973607
1.2551319648093842
1.3049853372434017
1.3724340175953078
1.455522971652004
1.5532746823069403
1.66177908113392
1.7771260997067448
1.8934506353861196
2.006842619745845
2.099706744868035
2.177908113391984
2.2580645161290325
2.333333333333333
2.398826979472141
2.455522971652004
2.5034213098729228
2.5425219941348973
2.572825024437928
2.5962854349951123
2.611925708699902
2.618768328445748
2.6158357771261
2.6041055718475072
2.5865102639296187
2.560117302052786
2.5249266862170088
2.4819159335288368
2.4330400782013686
2.378299120234604
2.321603128054741
2.264907135874878
2.210166177908113
2.160312805474096
2.114369501466276
2.0762463343108504
2.0439882697947214
2.013685239491691
1.9853372434017595
1.9853372434017595
1.9980449657869013
1.989247311827957
1.9696969696969695
1.9442815249266865
1.9159335288367547
1.8856304985337244
1.8533724340175952
1.825024437927664
1.7976539589442817
1.7673509286412512
1.7350928641251222
1.7028347996089932
1.6705767350928642
1.6392961876832846
1.6099706744868034
1.581622678396872
1.5542521994134897
1.5278592375366569
1.5034213098729228
1.4809384164222874
1.4633431085043989
1.447702834799609
1.43108504398827
1.414467253176931
1.3998044965786902
1.3861192570869991
1.3734115347018572
1.3616813294232648
1.3499511241446724
1.33822091886608
1.327468230694037
1.316715542521994
1.3088954056695992
1.303030303030303
1.295210166177908
1.2883675464320623
1.281524926686217
1.2746823069403714
1.267839687194526
1.2609970674486803
1.2531769305962854
1.2453567937438903
1.2375366568914956
1.2297165200391007
1.2228739002932552
1.2179863147605083
1.2160312805474096
1.2121212121212122
1.2072336265884651
1.2013685239491692
1.195503421309873
1.1886608015640274
1.1827956989247312
1.1779081133919844
1.173998044965787
1.1710654936461389
1.1681329423264908
1.1671554252199414
1.1671554252199414
1.1652003910068427
1.163245356793744
1.160312805474096
1.1573802541544478
1.1544477028347997
1.1515151515151516
1.1485826001955035
1.1456500488758554
1.1436950146627567
1.1436950146627567
1.147605083088954
1.1573802541544478
1.1759530791788857
1.209188660801564
1.2590420332355816
1.3294232649071358
1.4213098729227762
1.5317693059628543
1.6578690127077225
1.7947214076246334
1.935483870967742
2.074291300097752
2.206256109481916
2.3118279569892475
2.398826979472141
2.4858260019550342
2.5650048875855327
2.633431085043988
2.6901270772238512
2.7370478983382207
2.774193548387097
2.801564027370479
2.820136852394917
2.827956989247312
2.825024437927664
2.811339198435973
2.7869012707722387
2.7536656891495603
2.7096774193548385
2.6559139784946235
2.592375366568915
2.52297165200391
2.449657869012708
2.375366568914956
2.303030303030303
2.2346041055718477
2.1710654936461387
2.114369501466276
2.0684261974584555
2.0283479960899315
1.991202346041056
1.956989247311828
1.924731182795699
1.8944281524926687
1.865102639296188
1.8347996089931573
1.804496578690127
1.772238514173998
1.7390029325513197
1.704789833822092
1.6686217008797657
1.6373411534701858
1.608993157380254
1.5777126099706744
1.5454545454545454
1.5131964809384164
1.482893450635386
1.452590420332356
1.4242424242424243
1.396871945259042
1.3724340175953078
1.3519061583577712
1.335288367546432
1.324535679374389
1.3196480938416422
1.3176930596285434
1.3196480938416422
1.3255131964809383
1.335288367546432
1.3470185728250244
1.3616813294232648
1.3773216031280548
1.393939393939394
1.4105571847507332
1.4271749755620724
1.4428152492668622
1.456500488758553
1.4682306940371457
1.478983382209189
1.4868035190615836
1.4916911045943304
1.4946236559139785
1.4946236559139785
1.4926686217008798
1.4887585532746823
1.4819159335288368
1.4731182795698925
1.4623655913978495
1.4535679374389052
1.4437927663734116
1.4301075268817205
1.412512218963832
1.392961876832845
1.3714565004887584
1.3470185728250244
1.321603128054741
1.295210166177908
1.2668621700879763
1.238514173998045
1.209188660801564
1.1867057673509287
1.1671554252199414
1.144672531769306
1.121212121212121
1.0987292277614855
1.078201368523949
1.0606060606060606
1.0469208211143697
1.0381231671554252
1.035190615835777
1.0381231671554252
1.0488758553274682
1.0703812316715542
1.0987292277614855
1.1378299120234605
1.1945259042033236
1.2717497556207231
1.3685239491691104
1.4848484848484849
1.6177908113391983
1.761485826001955
1.911045943304008
2.060606060606061
2.203323558162268
2.335288367546432
2.4379276637341154
2.5190615835777126
2.5962854349951123
2.6637341153470184
2.719452590420332
2.7614858260019552
2.790811339198436
2.8084066471163247
2.81622678396872
2.814271749755621
2.8044965786901277
2.7869012707722387
2.7595307917888565
2.7253176930596283
2.6832844574780057
2.63049853372434
2.5669599217986314
2.4946236559139785
2.4134897360703813
2.3274682306940373
2.239491691104594
2.1524926686217007
2.0684261974584555
1.991202346041056
1.921798631476051
1.865102639296188
1.8191593352883677
1.7761485826001957
1.737047898338221
1.7028347996089932
1.6715542521994136
1.6422287390029326
1.6138807429130009
1.585532746823069
1.5571847507331378
1.5288367546432062
1.500488758553275
1.4731182795698925
1.4496578690127078
1.4301075268817205
1.409579667644184
1.388074291300098
1.3665689149560116
1.3470185728250244
1.3284457478005864
1.3118279569892473
1.2961876832844574
1.281524926686217
1.267839687194526
1.2551319648093842
1.2453567937438903
1.2375366568914956
1.227761485826002
1.2160312805474096
1.2013685239491692
1.18475073313783
1.166177908113392
1.1466275659824048
1.126099706744868
1.104594330400782
1.0821114369501466
1.0527859237536656
1.0205278592375366
0.9990224828934506
0.9824046920821116
0.9638318670576737
0.946236559139785
0.9296187683284456
0.9159335288367546
0.9051808406647116
0.8983382209188661
0.8944281524926686
0.8944281524926686
0.8963831867057673
0.9012707722385142
0.9090909090909092
0.919843597262952
0.9296187683284456
0.93841642228739
0.946236559139785
0.9530791788856304
0.9579667644183774
0.9608993157380256
0.9618768328445748
0.9608993157380256
0.959921798631476
0.956989247311828
0.9530791788856304
0.9511241446725318
0.9511241446725318
0.9481915933528836
0.9442815249266864
0.9403714565004888
0.9345063538611924
0.9296187683284456
0.9257086999022482
0.9257086999022482
0.9325513196480938
0.9511241446725318
0.9872922776148584
1.035190615835777
1.0987292277614855
1.1896383186705768
1.3069403714565004
1.4457478005865103
1.6011730205278591
1.7653958944281525
1.9315738025415443
2.09188660801564
2.242424242424242
2.378299120234604
2.4975562072336266
2.601173020527859
2.677419354838709
2.736070381231672
2.792766373411535
2.843597262952102
2.887585532746823
2.9237536656891496
2.951124144672532
2.9687194525904204
2.973607038123167
2.9667644183773216
2.946236559139785
2.911045943304008
2.866080156402737
2.812316715542522
2.745845552297165
2.6695992179863146
2.587487781036168
2.5034213098729228
2.420332355816227
2.340175953079179
2.2668621700879767
2.201368523949169
2.142717497556207
2.089931573802541
2.043010752688172
2.003910068426197
1.9687194525904204
1.9315738025415443
1.8944281524926687
1.857282502443793
1.8201368523949168
1.7820136852394917
1.7438905180840665
1.704789833822092
1.664711632453568
1.624633431085044
1.5835777126099706
1.5493646138807429
1.5180840664711632
1.482893450635386
1.4467253176930597
1.412512218963832
1.3792766373411536
1.3479960899315735
1.3196480938416422
1.29227761485826
1.2668621700879763
1.2434017595307918
1.2209188660801564
1.1994134897360704
1.1827956989247312
1.1700879765395895
1.155425219941349
1.1407624633431086
1.126099706744868
1.1124144672531768
1.099706744868035
1.0869990224828934
1.075268817204301
1.0635386119257086
1.0527859237536656
1.043010752688172
1.0371456500488758
1.0342130987292275
1.029325513196481
1.0224828934506354
1.0166177908113392
1.0117302052785924
1.007820136852395
1.0039100684261977
1.0
0.997067448680352
0.9941348973607038
0.9921798631476052
0.9931573802541545
0.9960899315738024
0.997067448680352
0.9980449657869012
0.9990224828934506
1.0
1.0009775171065494
1.002932551319648
1.0058651026392962
1.0097751710654936
1.013685239491691
1.0175953079178883
1.0224828934506354
1.0283479960899315
1.035190615835777
1.0391006842619743
1.043010752688172
1.04594330400782
1.0488758553274682
1.0527859237536656
1.0586510263929618
1.0703812316715542
1.0909090909090908
1.126099706744868
1.1798631476050832
1.2424242424242424
1.3206256109481915
1.4301075268817205
1.564027370478983
1.7174975562072337
1.884652981427175
2.0576735092864125
2.2277614858260018
2.3900293255131966
2.539589442815249
2.673509286412512
2.790811339198436
2.8914956011730206
2.963831867057673
3.016617790811339
3.0684261974584555
3.113391984359726
3.1495601173020527
3.175953079178885
3.1925708699902247
3.196480938416422
3.187683284457478
3.1652003910068425
3.129032258064516
3.0791788856304985
3.021505376344086
2.956989247311828
2.8826979472140764
2.801564027370479
2.717497556207233
2.634408602150537
2.555229716520039
2.4819159335288368
2.41544477028348
2.355816226783969
2.303030303030303
2.254154447702835
2.210166177908113
2.172043010752688
2.1358748778103616
2.0987292277614857
2.060606060606061
2.022482893450636
1.9833822091886608
1.9423264907135875
1.9012707722385145
1.8592375366568916
1.8172043010752688
1.775171065493646
1.732160312805474
1.6950146627565983
1.6608015640273706
1.6236559139784943
1.585532746823069
1.547409579667644
1.5112414467253177
1.4760508308895406
1.4437927663734116
1.4134897360703813
1.3861192570869991
1.359726295210166
1.335288367546432
1.3118279569892473
1.2932551319648091
1.2766373411534702
1.2580645161290325
1.238514173998045
1.2189638318670577
1.1994134897360704
1.1798631476050832
1.1612903225806452
1.142717497556207
1.1251221896383188
1.10752688172043
1.0899315738025417
1.0772238514173995
1.0684261974584557
1.056695992179863
1.0439882697947214
1.032258064516129
1.021505376344086
1.0117302052785924
1.0019550342130987
0.9921798631476052
0.9833822091886608
0.9736070381231672
0.9648093841642228
0.9560117302052786
0.9511241446725318
0.9491691104594332
0.9452590420332356
0.9413489736070382
0.93841642228739
0.9364613880742912
0.935483870967742
0.9335288367546432
0.9325513196480938
0.9325513196480938
0.9335288367546432
0.9345063538611924
0.9374389051808406
0.9413489736070382
0.9433040078201368
0.9442815249266864
0.9442815249266864
0.9706744868035192
1.0146627565982405
1.0469208211143697
1.0811339198435972
1.1270772238514175
1.1886608015640274
1.270772238514174
1.3743890518084063
1.47702834799609
1.5826001955034212
1.710654936461388
1.8484848484848484
1.988269794721408
2.12316715542522
2.247311827956989
2.358748778103617
2.4565004887585533
2.5405669599217986
2.610948191593353
2.668621700879765
2.70772238514174
2.7341153470185726
2.7595307917888565
2.779081133919844
2.791788856304985
2.7947214076246336
2.787878787878788
2.7702834799608995
2.7419354838709675
2.701857282502444
2.650048875855328
2.5884652981427174
2.520039100684262
2.453567937438905
2.389051808406647
2.321603128054741
2.254154447702835
2.190615835777126
2.132942326490713
2.081133919843597
2.035190615835777
1.9951124144672527
1.959921798631476
1.9266862170087975
1.895405669599218
1.868035190615836
1.8416422287390029
1.8132942326490715
1.7820136852394917
1.7497556207233629
1.715542521994135
1.6813294232649072
1.64613880742913
1.6109481915933528
1.576735092864125
1.543499511241447
1.5112414467253177
1.479960899315738
1.4545454545454546
1.4320625610948192
1.4076246334310851
1.3841642228739004
1.3616813294232648
1.3401759530791788
1.3206256109481915
1.303030303030303
1.2854349951124144
1.2688172043010753
1.2541544477028348
1.2404692082111437
1.23069403714565
1.2228739002932552
1.2140762463343109
1.203323558162268
1.1925708699902249
1.181818181818182
1.1710654936461389
1.1612903225806452
1.1515151515151516
1.141739980449658
1.1319648093841643
1.1231671554252198
1.115347018572825
1.110459433040078
1.1085043988269794
1.1036168132942326
1.0987292277614855
1.0928641251221896
1.0869990224828934
1.0821114369501466
1.0772238514173995
1.072336265884653
1.067448680351906
1.0635386119257086
1.0596285434995112
1.0596285434995112
1.0606060606060606
1.0606060606060606
1.0606060606060606
1.0606060606060606
1.0606060606060606
1.0596285434995112
1.0596285434995112
1.0596285434995112
1.0596285434995112
1.0606060606060606
1.0635386119257086
1.0684261974584557
1.075268817204301
1.0801564027370478
1.0840664711632453
1.088954056695992
1.0977517106549364
1.1133919843597262
1.1397849462365592
1.1808406647116323
1.241446725317693
1.324535679374389
1.4281524926686218
1.5513196480938416
1.6695992179863148
1.7878787878787878
1.9257086999022484
2.069403714565005
2.2111436950146626
2.3440860215053765
2.4652981427174976
2.5718475073313782
2.664711632453568
2.742913000977517
2.809384164222874
2.865102639296188
2.9012707722385143
2.924731182795699
2.948191593352884
2.9657869012707723
2.9745845552297165
2.973607038123167
2.961876832844575
2.9374389051808407
2.900293255131965
2.8514173998044967
2.792766373411535
2.727272727272727
2.6559139784946235
2.5884652981427174
2.5239491691104594
2.4565004887585533
2.391006842619746
2.3304007820136854
2.2766373411534704
2.228739002932551
2.1867057673509285
2.150537634408602
2.117302052785924
2.0869990224828934
2.056695992179863
2.029325513196481
2.002932551319648
1.9736070381231672
1.943304007820137
1.911045943304008
1.878787878787879
1.8465298142717497
1.8142717497556209
1.7810361681329423
1.747800586510264
1.7145650048875856
1.683284457478006
1.653958944281525
1.629521016617791
1.607038123167155
1.5835777126099706
1.560117302052786
1.5386119257087
1.5180840664711632
1.499511241446725
1.4819159335288368
1.4652981427174976
1.4506353861192571
1.4379276637341154
1.426197458455523
1.4173998044965788
1.4105571847507332
1.401759530791789
1.391006842619746
1.380254154447703
1.3695014662756595
1.3607038123167154
1.3548387096774193
1.3548387096774193
1.3655913978494625
1.388074291300098
1.4242424242424243
1.4760508308895406
1.5317693059628543
1.5933528836754642
1.6695992179863148
1.7556207233626588
1.844574780058651
1.932551319648094
2.013685239491691
2.086021505376344
2.145650048875855
2.1925708699902247
2.225806451612903
2.2453567937438903
2.251221896383187
2.244379276637341
2.2277614858260018
2.19941348973607
2.160312805474096
2.1114369501466275
2.053763440860215
1.9902248289345064
1.9237536656891496
1.857282502443793
1.793743890518084
1.7360703812316716
1.686217008797654
1.6490713587487782
1.6217008797653958
1.598240469208211
1.5796676441837731
1.5650048875855327
1.5542521994134897
1.544477028347996
1.5356793743890518
1.5249266862170088
1.5131964809384164
1.498533724340176
1.4809384164222874
1.4652981427174976
1.4486803519061584
1.4281524926686218
1.404692082111437
1.3792766373411536
1.35386119257087
1.3284457478005864
1.3040078201368523
1.2805474095796676
1.2580645161290325
1.2375366568914956
1.2179863147605083
1.1994134897360704
1.1867057673509287
1.176930596285435
1.166177908113392
1.155425219941349
1.1456500488758554
1.1368523949169111
1.1290322580645162
1.1221896383186705
1.115347018572825
1.1094819159335287
1.1036168132942326
1.0850439882697946
1.064516129032258
1.0547409579667644
1.0469208211143697
1.0410557184750733
1.0361681329423265
1.032258064516129
1.0273704789833822
1.0224828934506354
1.0175953079178883
1.0127077223851415
1.007820136852395
1.002932551319648
0.9990224828934506
0.9980449657869012
0.9990224828934506
0.997067448680352
0.9951124144672532
0.9931573802541545
0.9902248289345064
0.9863147605083088
0.9833822091886608
0.9804496578690128
0.9775171065493646
0.9745845552297164
0.9726295210166178
0.9736070381231672
0.975562072336266
0.975562072336266
0.975562072336266
0.975562072336266
0.975562072336266
0.9765395894428152
0.978494623655914
0.981427174975562
0.9843597262952102
0.9882697947214076
0.9912023460410556
0.9941348973607038
0.9990224828934506
1.0048875855327468
1.0087976539589445
1.0127077223851415
1.0156402737047898
1.018572825024438
1.021505376344086
1.0254154447702837
1.0303030303030305
1.0342130987292275
1.0381231671554252
1.0420332355816226
1.0478983382209188
1.053763440860215
1.056695992179863
1.0606060606060606
1.0654936461388074
1.075268817204301
1.093841642228739
1.126099706744868
1.1788856304985338
1.2551319648093842
1.3587487781036167
1.4897360703812317
1.619745845552297
1.7546432062561097
1.9188660801564028
2.0957966764418376
2.2737047898338223
2.443792766373412
2.601173020527859
2.7419354838709675
2.866080156402737
2.972629521016618
3.0635386119257086
3.139784946236559
3.203323558162268
3.244379276637341
3.270772238514174
3.2961876832844577
3.314760508308896
3.32355816226784
3.3225806451612905
3.3098729227761488
3.283479960899316
3.2453567937438903
3.1955034213098727
3.133919843597263
3.064516129032258
2.9960899315738025
2.927663734115347
2.857282502443793
2.788856304985337
2.7262952101661777
2.6715542521994133
2.6265884652981426
2.591397849462365
2.5640273704789838
2.5425219941348973
2.5268817204301075
2.5141739980449658
2.5024437927663734
2.4887585532746823
2.474095796676442
2.458455522971652
2.4408602150537635
2.421309872922776
2.39980449657869
2.3743890518084068
2.346041055718475
2.314760508308896
2.280547409579668
2.243401759530792
2.203323558162268
2.164222873900293
2.1251221896383186
2.081133919843597
2.034213098729228
1.9853372434017595
1.9335288367546437
1.2453567937438903
1.2434017595307918
1.2424242424242424
1.2404692082111437
1.2375366568914956
1.2336265884652982
1.2297165200391007
1.2267839687194526
1.2238514173998043
1.2218963831867058
1.219941348973607
1.2179863147605083
1.2160312805474096
1.2179863147605083
1.2218963831867058
1.2287390029325511
1.2424242424242424
1.2688172043010753
1.310850439882698
1.3724340175953078
1.4535679374389052
1.5542521994134897
1.6705767350928642
1.7976539589442817
1.9296187683284456
2.0625610948191597
2.1730205278592374
2.267839687194526
2.364613880742913
2.4545454545454546
2.5347018572825024
2.6021505376344085
2.658846529814272
2.705767350928641
2.7419354838709675
2.76930596285435
2.787878787878788
2.7966764418377323
2.792766373411535
2.779081133919844
2.757575757575758
2.7262952101661777
2.684261974584555
2.632453567937439
2.5718475073313782
2.505376344086021
2.4349951124144678
2.363636363636364
2.2952101661779083
2.23069403714565
2.172043010752688
2.124144672531769
2.0840664711632453
2.04594330400782
2.010752688172043
1.978494623655914
1.949169110459433
1.920821114369501
1.89247311827957
1.8631476050830889
1.833822091886608
1.8025415444770283
1.7702834799608993
1.7419354838709675
1.7145650048875856
1.6842619745845553
1.6520039100684265
1.6187683284457477
1.5865102639296187
1.5562072336265884
1.5268817204301075
1.498533724340176
1.4711632453567938
1.4457478005865103
1.4222873900293256
1.4007820136852396
1.3851417399804498
1.3724340175953078
1.3587487781036167
1.3440860215053765
1.3294232649071358
1.3157380254154447
1.303030303030303
1.2903225806451613
1.278592375366569
1.267839687194526
1.2570869990224829
1.24633431085044
1.238514173998045
1.2336265884652982
1.2267839687194526
1.2179863147605083
1.209188660801564
1.2003910068426198
1.1915933528836755
1.1837732160312806
1.1759530791788857
1.1681329423264908
1.1612903225806452
1.155425219941349
1.152492668621701
1.152492668621701
1.1505376344086022
1.1466275659824048
1.142717497556207
1.1378299120234605
1.133919843597263
1.1300097751710656
1.1270772238514175
1.1241446725317692
1.121212121212121
1.1192570869990224
1.118279569892473
1.1192570869990224
1.121212121212121
1.121212121212121
1.121212121212121
1.121212121212121
1.121212121212121
1.1221896383186705
1.1241446725317692
1.126099706744868
1.1300097751710656
1.1358748778103618
1.1485826001955035
1.1671554252199414
1.1945259042033236
1.238514173998045
1.3010752688172045
1.3851417399804498
1.4897360703812317
1.6129032258064515
1.7497556207233629
1.8934506353861196
2.0391006842619745
2.179863147605083
2.3118279569892475
2.43108504398827
2.52297165200391
2.595307917888563
2.6666666666666665
2.732160312805474
2.787878787878788
2.834799608993157
2.8729227761485827
2.9012707722385143
2.919843597262952
2.9286412512218964
2.927663734115347
2.9149560117302054
2.8914956011730206
2.859237536656892
2.817204301075269
2.7653958944281527
2.704789833822092
2.6373411534701856
2.567937438905181
2.4975562072336266
2.4281524926686218
2.360703812316716
2.2991202346041058
2.244379276637341
2.1955034213098727
2.155425219941349
2.120234604105572
2.0869990224828934
2.053763440860215
2.021505376344086
1.9902248289345064
1.959921798631476
1.9286412512218964
1.8963831867057677
1.8631476050830889
1.828934506353861
1.793743890518084
1.7634408602150538
1.7341153470185728
1.7018572825024438
1.6686217008797657
1.635386119257087
1.603128054740958
1.5728250244379276
1.544477028347996
1.5180840664711632
1.4936461388074291
1.4701857282502444
1.4486803519061584
1.4291300097751711
1.414467253176931
1.401759530791789
1.388074291300098
1.3734115347018572
1.3587487781036167
1.346041055718475
1.3333333333333333
1.321603128054741
1.3098729227761483
1.2981427174975562
1.2864125122189638
1.2746823069403714
1.2658846529814272
1.2580645161290325
1.249266862170088
1.2404692082111437
1.23069403714565
1.2218963831867058
1.2140762463343109
1.206256109481916
1.198435972629521
1.1906158357771262
1.1827956989247312
1.1749755620723363
1.1681329423264908
1.164222873900293
1.1622678396871946
1.1573802541544478
1.152492668621701
1.147605083088954
1.142717497556207
1.13880742913001
1.1348973607038124
1.130987292277615
1.126099706744868
1.1221896383186705
1.1192570869990224
1.1192570869990224
1.1202346041055715
1.1192570869990224
1.118279569892473
1.1163245356793745
1.1143695014662756
1.1124144672531768
1.1114369501466277
1.1143695014662756
1.1241446725317692
1.1436950146627567
1.1788856304985338
1.2326490713587488
1.295210166177908
1.370478983382209
1.4731182795698925
1.5972629521016617
1.7360703812316716
1.8836754643206255
2.032258064516129
2.174975562072336
2.3069403714565007
2.426197458455523
2.529814271749756
2.6177908113391983
