ppg
1.905180840664712
1.902248289345064
1.89247311827957
1.8778103616813293
1.8563049853372435
1.827956989247312
1.7927663734115349
1.75366568914956
1.715542521994135
1.6764418377321604
1.6363636363636365
1.5933528836754642
1.5503421309872922
1.5063538611925709
1.4594330400782014
1.412512218963832
1.3695014662756595
1.3294232649071358
1.2913000977517106
1.2541544477028348
1.2218963831867058
1.1945259042033236
1.1700879765395895
1.1466275659824048
1.1231671554252198
1.1006842619745845
1.078201368523949
1.0576735092864125
1.0391006842619743
1.021505376344086
1.0039100684261977
0.9872922776148584
0.9706744868035192
0.95405669599218
0.9374389051808406
0.919843597262952
0.9032258064516128
0.8866080156402737
0.8709677419354839
0.8582600195503421
0.8435972629521017
0.8279569892473119
0.8142717497556208
0.8015640273704789
0.7898338220918866
0.7781036168132942
0.7673509286412512
0.7536656891495601
0.7370478983382209
0.718475073313783
0.6999022482893451
0.6832844574780058
0.6705767350928641
0.6617790811339198
0.6559139784946236
0.6549364613880743
0.6608015640273704
0.6764418377321603
0.7038123167155426
0.7478005865102639
0.8084066471163245
0.884652981427175
0.9736070381231672
1.0694037145650048
1.1681329423264908
1.2649071358748778
1.3577712609970674
1.4320625610948192
1.4916911045943304
1.552297165200391
1.607038123167155
1.653958944281525
1.6901270772238517
1.715542521994135
1.732160312805474
1.7419354838709675
1.7438905180840665
1.7380254154447703
1.726295210166178
1.7086999022482894
1.6842619745845553
1.6578690127077225
1.6285434995112416
1.595307917888563
1.5610948191593352
1.52297165200391
1.4819159335288368
1.4389051808406648
1.393939393939394
1.348973607038123
1.4291300097751711
1.5698924731182795
1.619745845552297
1.6256109481915937
1.607038123167155
1.5786901270772238
1.547409579667644
1.5161290322580645
1.4887585532746823
1.4643206256109482
1.4418377321603129
1.4203323558162269
1.3988269794721409
1.3782991202346042
1.3577712609970674
1.3362658846529814
1.313782991202346
1.2903225806451613
1.2668621700879763
1.2443792766373412
1.2228739002932552
1.2023460410557183
1.1827956989247312
1.1622678396871946
1.1407624633431086
1.1173020527859236
1.0948191593352885
1.0733137829912025
1.0547409579667644
1.0361681329423265
1.0195503421309873
1.0048875855327468
0.989247311827957
0.9745845552297164
0.959921798631476
0.9452590420332356
0.9325513196480938
0.919843597262952
0.906158357771261
0.8963831867057673
0.8875855327468231
0.8797653958944281
0.8758553274682307
0.8826979472140762
0.9071358748778104
0.9521016617790812
1.0166177908113392
1.0987292277614855
1.1964809384164223
1.305962854349951
1.423264907135875
1.5405669599217986
1.6363636363636365
1.718475073313783
1.8084066471163245
1.89247311827957
1.967741935483871
2.03128054740958
2.0821114369501466
2.121212121212121
2.1515151515151514
2.1730205278592374
2.185728250244379
2.190615835777126
2.182795698924731
2.1652003910068425
2.1436950146627565
2.117302052785924
2.085043988269794
2.046920821114369
2.0019550342130987
1.9530791788856303
1.9042033235581624
1.8563049853372435
1.8074291300097751
1.7595307917888563
1.7126099706744868
1.6695992179863148
1.629521016617791
1.590420332355816
1.5513196480938416
1.5161290322580645
1.4887585532746823
1.4643206256109482
1.4418377321603129
1.4203323558162269
1.3988269794721409
1.3782991202346042
1.3577712609970674
1.3362658846529814
1.3157380254154447
1.295210166177908
1.2756598240469208
1.2561094819159335
1.2355816226783969
1.2189638318670577
1.203323558162268
1.1886608015640274
1.173998044965787
1.160312805474096
1.1466275659824048
1.1329423264907137
1.1192570869990224
1.104594330400782
1.0909090909090908
1.0772238514173995
1.0635386119257086
1.0478983382209188
1.0312805474095796
1.013685239491691
0.9951124144672532
0.978494623655914
0.9638318670576737
0.9472140762463344
0.9325513196480938
0.919843597262952
0.9100684261974584
0.9012707722385142
0.8973607038123167
0.9042033235581622
0.9266862170087976
0.9667644183773216
1.0273704789833822
1.10752688172043
1.2043010752688172
1.3118279569892473
1.423264907135875
1.517106549364614
1.6001955034213098
1.6920821114369502
1.7790811339198436
1.855327468230694
1.919843597262952
1.9726295210166176
2.016617790811339
2.050830889540567
2.0762463343108504
2.093841642228739
2.104594330400782
2.103616813294233
2.0928641251221896
2.078201368523949
2.058651026392962
2.032258064516129
1.9960899315738023
1.95405669599218
1.90811339198436
1.86119257086999
1.812316715542522
1.761485826001955
1.7135874877810362
1.6666666666666667
1.6226783968719452
1.5786901270772238
1.533724340175953
1.490713587487781
1.4467253176930597
1.4037145650048877
1.3636363636363635
1.3255131964809383
1.2913000977517106
1.260019550342131
1.2238514173998043
1.1915933528836755
1.1700879765395895
1.147605083088954
1.1241446725317692
1.1006842619745845
1.078201368523949
1.0586510263929618
1.0381231671554252
1.0175953079178883
0.997067448680352
0.9765395894428152
0.9560117302052786
0.9345063538611924
0.913978494623656
0.895405669599218
0.8768328445747801
0.8572825024437928
0.8387096774193549
0.8211143695014663
0.8035190615835777
0.7878787878787878
0.7732160312805474
0.7585532746823069
0.7448680351906158
0.7311827956989247
0.7174975562072337
0.7047898338220919
0.6930596285434996
0.6823069403714564
0.6754643206256109
0.6715542521994134
0.6735092864125122
0.6862170087976539
0.7135874877810362
0.7565982404692082
0.8181818181818182
0.8993157380254154
0.9951124144672532
1.083088954056696
1.1681329423264908
1.2658846529814272
1.3655913978494625
1.4623655913978495
1.552297165200391
1.6314760508308896
1.6989247311827955
1.7546432062561097
1.8005865102639296
1.8347996089931573
1.8592375366568916
1.870967741935484
1.8699902248289344
1.8592375366568916
1.8435972629521016
1.826001955034213
1.8025415444770283
1.7741935483870968
1.7409579667644184
1.7028347996089932
1.6637341153470186
1.619745845552297
1.5698924731182795
1.5190615835777126
1.4731182795698925
1.4271749755620724
1.3763440860215057
1.3255131964809383
1.2776148582600195
1.2326490713587488
1.1896383186705768
1.1505376344086022
1.1173020527859236
1.0869990224828934
1.0576735092864125
1.029325513196481
0.9990224828934506
0.9706744868035192
0.9452590420332356
0.9188660801564028
0.8924731182795699
0.8690127077223851
0.8465298142717498
0.8250244379276638
0.8054740957966764
0.7849462365591398
0.7624633431085044
0.7409579667644184
0.718475073313783
0.696969696969697
0.6793743890518084
0.6598240469208211
0.6402737047898338
0.6217008797653959
0.7028347996089932
0.8367546432062561
0.8944281524926686
0.9130009775171064
0.9159335288367546
0.9130009775171064
0.9071358748778104
0.8993157380254154
0.8934506353861192
0.8885630498533724
0.8817204301075269
0.8719452590420332
0.8582600195503421
0.844574780058651
0.8357771260997068
0.8377321603128055
0.8582600195503421
0.9051808406647116
0.9804496578690128
1.0801564027370478
1.181818181818182
1.2873900293255132
1.4105571847507332
1.541544477028348
1.6715542521994136
1.7947214076246334
1.9100684261974583
2.013685239491691
2.101661779081134
2.175953079178885
2.236559139784946
2.286412512218964
2.3225806451612905
2.340175953079179
2.345063538611926
2.345063538611926
2.3411534701857284
2.3255131964809386
2.3010752688172045
2.271749755620724
2.2375366568914954
2.198435972629521
2.157380254154448
2.115347018572825
2.0733137829912023
2.032258064516129
1.992179863147605
1.948191593352884
1.900293255131965
1.8504398826979471
1.7976539589442817
1.7438905180840665
1.686217008797654
1.629521016617791
1.5757575757575757
1.52297165200391
1.4721407624633431
1.4213098729227762
1.3763440860215057
1.3391984359726294
1.303030303030303
1.267839687194526
1.2375366568914956
1.2130987292277615
1.1925708699902249
1.173998044965787
1.155425219941349
1.1378299120234605
1.1202346041055715
1.1006842619745845
1.0801564027370478
1.06158357771261
1.0410557184750733
1.0224828934506354
1.0068426197458455
0.9902248289345064
0.975562072336266
0.959921798631476
0.9433040078201368
0.9266862170087976
0.9051808406647116
0.8817204301075269
0.8611925708699902
0.8465298142717498
0.83088954056696
0.8142717497556208
0.8015640273704789
0.7908113391984359
0.7839687194525904
0.7839687194525904
0.7947214076246334
0.8181818181818182
0.8572825024437928
0.9159335288367546
0.9921798631476052
1.0713587487781036
1.1564027370478984
1.2609970674486803
1.3782991202346042
1.501466275659824
1.6256109481915937
1.7419354838709675
1.8455522971652003
1.93841642228739
2.016617790811339
2.080156402737048
2.1309872922776147
2.16911045943304
2.190615835777126
2.19941348973607
2.203323558162268
2.203323558162268
2.196480938416422
2.1847507331378297
2.166177908113392
2.1388074291300097
2.10850439882698
2.074291300097752
2.0332355816226784
1.9843597262952104
1.9345063538611929
1.8856304985337244
1.8347996089931573
1.7790811339198436
1.721407624633431
1.6666666666666667
1.6050830889540566
1.552297165200391
1.5151515151515151
1.4750733137829912
1.434017595307918
1.391006842619746
1.3528836754643203
1.324535679374389
1.3040078201368523
1.2854349951124144
1.267839687194526
1.2502443792766371
1.2326490713587488
1.2150537634408602
1.1974584555229717
1.1808406647116323
1.163245356793744
1.1456500488758554
1.1290322580645162
1.1133919843597262
1.099706744868035
1.0840664711632453
1.067448680351906
1.050830889540567
1.0361681329423265
1.024437927663734
1.0146627565982405
1.0048875855327468
0.9960899315738024
0.9872922776148584
0.978494623655914
0.9696969696969696
0.9638318670576737
0.9579667644183774
0.9511241446725318
0.9413489736070382
0.9208211143695014
0.9002932551319648
0.8856304985337243
0.8719452590420332
0.863147605083089
0.863147605083089
0.8797653958944281
0.9188660801564028
0.9657869012707724
1.0273704789833822
1.121212121212121
1.2394916911045943
1.4066471163245358
1.5610948191593352
1.6705767350928642
1.7898338220918866
1.9100684261974583
2.0195503421309877
2.113391984359726
2.1925708699902247
2.247311827956989
2.283479960899316
2.314760508308896
2.332355816226784
2.3391984359726297
2.3382209188660803
2.324535679374389
2.29227761485826
2.247311827956989
2.2140762463343107
2.1847507331378297
2.1358748778103616
2.089931573802541
2.0576735092864125
2.002932551319648
1.9305962854349952
1.878787878787879
1.8269794721407624
1.7624633431085044
1.704789833822092
1.653958944281525
1.6138807429130009
1.5806451612903225
1.5513196480938416
1.525904203323558
1.5024437927663734
1.4838709677419355
1.4643206256109482
1.4389051808406648
1.4173998044965788
1.3958944281524928
1.3724340175953078
1.3479960899315735
1.324535679374389
1.3040078201368523
1.2805474095796676
1.252199413489736
1.224828934506354
1.2023460410557183
1.1788856304985338
1.1534701857282503
1.1280547409579669
1.1026392961876832
1.0772238514173995
1.0518084066471165
1.0303030303030305
1.010752688172043
0.9921798631476052
0.9765395894428152
0.9667644183773216
0.9579667644183774
0.946236559139785
0.9364613880742912
0.927663734115347
0.916911045943304
0.9022482893450636
0.884652981427175
0.8651026392961877
0.8465298142717498
0.83088954056696
0.8211143695014663
0.8220918866080157
0.8357771260997068
0.8660801564027371
0.9217986314760508
1.0019550342130987
1.1016617790811338
1.217008797653959
1.3391984359726294
1.4623655913978495
1.5826001955034212
1.6920821114369502
1.7878787878787878
2.004887585532747
2.2658846529814274
2.4134897360703813
2.5083088954056696
2.572825024437928
2.618768328445748
2.6471163245356792
2.6608015640273703
2.667644183773216
2.668621700879765
2.6608015640273703
2.643206256109482
2.6129032258064515
2.5650048875855327
2.5083088954056696
2.444770283479961
2.36950146627566
2.2883675464320627
2.204301075268817
2.118279569892473
2.035190615835777
1.9550342130987293
1.8797653958944285
1.812316715542522
1.750733137829912
1.6959921798631477
1.6549364613880744
1.6265884652981428
1.6011730205278591
1.5777126099706744
1.555229716520039
1.5298142717497556
1.5034213098729228
1.479960899315738
1.457478005865103
1.4349951124144673
1.412512218963832
1.391006842619746
1.3695014662756595
1.3499511241446724
1.332355816226784
1.3128054740957966
1.295210166177908
1.2805474095796676
1.2658846529814272
1.2502443792766371
1.2336265884652982
1.217008797653959
1.203323558162268
1.1915933528836755
1.1798631476050832
1.1720430107526882
1.1652003910068427
1.1564027370478984
1.1456500488758554
1.1329423264907137
1.1124144672531768
1.086021505376344
1.056695992179863
1.0254154447702837
0.9960899315738024
0.9706744868035192
0.9530791788856304
0.9491691104594332
0.9579667644183774
0.978494623655914
1.021505376344086
1.0948191593352885
1.1964809384164223
1.3206256109481915
1.4613880742913
1.6138807429130009
1.76930596285435
1.919843597262952
2.060606060606061
2.185728250244379
2.27761485826002
2.343108504398827
2.39980449657869
2.447702834799609
2.4819159335288368
2.5024437927663734
2.509286412512219
2.50733137829912
2.501466275659824
2.487781036168133
2.464320625610948
2.4359726295210167
2.39980449657869
2.360703812316716
2.321603128054741
2.280547409579668
2.232649071358749
2.175953079178885
2.112414467253177
2.043010752688172
1.9696969696969695
1.895405669599218
1.8201368523949168
1.7468230694037146
1.683284457478006
1.635386119257087
1.5894428152492668
1.5386119257087
1.4916911045943304
1.4467253176930597
1.4027370478983383
1.364613880742913
1.3343108504398826
1.310850439882698
1.2913000977517106
1.273704789833822
1.2590420332355816
1.2434017595307918
1.23069403714565
1.2160312805474096
1.1925708699902249
1.164222873900293
1.133919843597263
1.1026392961876832
1.0703812316715542
1.0381231671554252
1.0058651026392962
0.975562072336266
0.9501466275659824
0.9257086999022482
0.9081133919843596
0.8963831867057673
0.8856304985337243
0.8748778103616813
0.8611925708699902
0.8435972629521017
0.8240469208211144
0.8035190615835777
0.7820136852394917
0.7605083088954057
0.7390029325513197
0.7194525904203324
0.7096774193548387
0.70772238514174
0.7096774193548387
0.7243401759530792
0.7585532746823069
0.8172043010752689
0.9002932551319648
1.0097751710654936
1.1407624633431086
1.284457478005865
1.4379276637341154
3.022482893450636
3.056695992179863
3.0821114369501466
3.099706744868035
3.1114369501466275
3.1163245356793743
3.113391984359726
3.1055718475073317
3.0928641251221896
3.075268817204301
3.0518084066471163
3.0234604105571847
2.995112414467253
2.9657869012707723
2.935483870967742
2.906158357771261
2.875855327468231
2.8455522971652005
2.8181818181818183
2.790811339198436
2.7595307917888565
2.7262952101661777
2.6940371456500487
2.66177908113392
2.6295210166177907
2.598240469208211
2.567937438905181
2.5405669599217986
2.5180840664711632
2.501466275659824
2.49266862170088
2.486803519061584
2.482893450635386
2.4809384164222874
2.479960899315738
2.479960899315738
2.479960899315738
2.4789833822091887
2.47702834799609
2.26197458455523
1.93841642228739
1.772238514173998
1.6871945259042034
1.6422287390029326
1.6148582600195502
1.5962854349951123
1.5826001955034212
1.5708699902248289
1.560117302052786
1.547409579667644
1.5317693059628543
1.517106549364614
1.504398826979472
1.4936461388074291
1.482893450635386
1.4760508308895406
1.4701857282502444
1.4623655913978495
1.4535679374389052
1.4437927663734116
1.436950146627566
1.435972629521017
1.4428152492668622
1.4604105571847508
1.495601173020528
1.5532746823069403
1.6344086021505375
1.7194525904203324
1.8172043010752688
1.9423264907135875
2.083088954056696
2.2277614858260018
2.366568914956012
2.4946236559139785
2.6070381231671558
2.7008797653958942
2.776148582600196
2.832844574780059
2.870967741935484
2.89247311827957
2.898338220918866
2.8944281524926687
2.887585532746823
2.87683284457478
2.859237536656892
2.833822091886608
2.80058651026393
2.757575757575758
2.704789833822092
2.6480938416422286
2.590420332355816
2.530791788856305
2.4750733137829912
2.418377321603128
2.3548387096774195
2.291300097751711
2.228739002932551
2.167155425219941
2.10752688172043
2.048875855327468
1.9960899315738023
1.9501466275659824
1.90811339198436
1.868035190615836
1.828934506353861
1.7976539589442817
1.775171065493646
1.7546432062561097
1.737047898338221
1.7194525904203324
1.6959921798631477
1.6695992179863148
1.6451612903225807
1.6236559139784943
1.6050830889540566
1.5913978494623655
1.5796676441837731
1.5718475073313782
1.5650048875855327
1.5571847507331378
1.5454545454545454
1.5278592375366569
1.5053763440860215
1.479960899315738
1.457478005865103
1.4418377321603129
1.43108504398827
1.426197458455523
1.418377321603128
1.409579667644184
1.4056695992179864
1.3988269794721409
1.3861192570869991
1.3743890518084063
1.3665689149560116
1.3607038123167154
1.3577712609970674
1.3607038123167154
1.3734115347018572
1.401759530791789
1.4516129032258065
1.525904203323558
1.608993157380254
1.704789833822092
1.83088954056696
1.9745845552297163
2.1251221896383186
2.271749755620724
2.407624633431085
2.5249266862170088
2.624633431085044
2.70772238514174
2.7751710654936463
2.827956989247312
2.8641251221896384
2.881720430107527
2.8885630498533725
2.889540566959922
2.8856304985337244
2.873900293255132
2.8533724340175954
2.8269794721407626
2.791788856304985
2.750733137829912
2.701857282502444
2.64613880742913
2.589442815249267
2.5376344086021505
2.4858260019550342
2.429130009775171
2.3743890518084068
2.318670576735093
2.26197458455523
2.2052785923753664
2.147605083088954
2.0948191593352883
2.046920821114369
2.003910068426197
1.9687194525904204
1.9413489736070384
1.920821114369501
1.903225806451613
1.8826979472140764
1.858260019550342
1.833822091886608
1.8074291300097751
1.780058651026393
1.7546432062561097
1.7331378299120237
1.7145650048875856
1.6989247311827955
1.686217008797654
1.6774193548387095
1.6705767350928642
1.66177908113392
1.6529814271749756
1.6441837732160314
1.629521016617791
1.6080156402737047
1.5835777126099706
1.5562072336265884
1.5288367546432062
1.5034213098729228
1.4838709677419355
1.4711632453567938
1.4672531769305963
1.4701857282502444
1.4760508308895406
1.4838709677419355
1.4926686217008798
1.4975562072336266
1.4946236559139785
1.4887585532746823
1.4858260019550342
1.4887585532746823
1.499511241446725
1.5268817204301075
1.565982404692082
1.6236559139784943
1.7145650048875856
1.835777126099707
1.9775171065493649
2.129032258064516
2.283479960899316
2.432062561094819
2.565982404692082
2.6803519061583576
2.776148582600196
2.852394916911046
2.909090909090909
2.9423264907135875
2.961876832844575
2.9804496578690127
2.995112414467253
3.0
2.995112414467253
2.9804496578690127
2.956989247311828
2.9257086999022484
2.8885630498533725
2.84652981427175
2.7996089931573804
2.7497556207233624
2.6959921798631474
2.638318670576735
2.578690127077224
2.5180840664711632
2.4594330400782014
2.40078201368524
2.346041055718475
2.297165200391007
2.2561094819159337
2.220918866080156
2.1867057673509285
2.1524926686217007
2.124144672531769
2.0977517106549364
2.070381231671554
2.0449657869012707
2.022482893450636
2.0019550342130987
1.9775171065493649
1.946236559139785
1.913978494623656
1.8836754643206255
1.8563049853372435
1.8328445747800584
1.8142717497556209
1.7976539589442817
1.780058651026393
1.7595307917888563
1.737047898338221
1.7165200391006843
1.696969696969697
1.6774193548387095
1.6608015640273706
1.6480938416422288
1.6363636363636365
1.6256109481915937
1.6187683284457477
1.6129032258064515
1.6050830889540566
1.5962854349951123
1.5865102639296187
1.5777126099706744
1.565982404692082
1.547409579667644
1.5239491691104594
1.500488758553275
1.4819159335288368
1.4682306940371457
1.4613880742913
1.4643206256109482
1.479960899315738
1.5141739980449658
1.5288367546432062
1.547409579667644
1.6217008797653958
1.729227761485826
1.855327468230694
1.988269794721408
2.118279569892473
2.2385141739980448
2.3411534701857284
2.4115347018572826
2.4604105571847508
2.5034213098729228
2.536656891495601
2.560117302052786
2.5747800586510263
2.579667644183773
2.572825024437928
2.555229716520039
2.529814271749756
2.496578690127077
2.458455522971652
2.420332355816227
2.383186705767351
2.3411534701857284
2.29227761485826
2.239491691104594
2.187683284457478
2.1378299120234603
2.089931573802541
2.043010752688172
1.9960899315738023
1.9530791788856303
1.9178885630498532
1.8866080156402736
1.86119257086999
1.8416422287390029
1.822091886608016
1.8035190615835777
1.7849462365591398
1.7634408602150538
1.737047898338221
1.704789833822092
1.6695992179863148
1.6334310850439884
1.5992179863147604
1.56891495601173
1.5395894428152492
1.5151515151515151
1.4965786901270772
1.479960899315738
1.4672531769305963
1.455522971652004
1.4428152492668622
1.4271749755620724
1.409579667644184
1.3900293255131966
1.3655913978494625
1.3391984359726294
1.3098729227761483
1.2864125122189638
1.2668621700879763
1.2434017595307918
1.219941348973607
1.1994134897360704
1.181818181818182
1.1710654936461389
1.1652003910068427
1.160312805474096
1.152492668621701
1.141739980449658
1.1300097751710656
1.121212121212121
1.1192570869990224
1.1280547409579669
1.1505376344086022
1.1925708699902249
1.260019550342131
1.3548387096774193
1.4721407624633431
1.6099706744868034
1.7605083088954057
1.9130009775171064
2.059628543499511
2.1955034213098727
2.303030303030303
2.3851417399804498
2.4613880742913
2.529814271749756
2.587487781036168
2.632453567937439
2.6666666666666665
2.6881720430107525
2.6989247311827955
2.704789833822092
2.704789833822092
2.7008797653958942
2.689149560117302
2.6695992179863146
2.641251221896383
2.601173020527859
2.550342130987292
2.4946236559139785
2.4389051808406648
2.380254154447703
2.320625610948192
2.2629521016617797
2.203323558162268
2.145650048875855
2.093841642228739
2.048875855327468
2.007820136852395
1.9667644183773216
1.9296187683284456
1.8973607038123168
1.869012707722385
1.8455522971652003
1.8240469208211143
1.804496578690127
1.7849462365591398
1.7663734115347018
1.747800586510264
1.7311827956989247
1.718475073313783
1.70772238514174
1.6950146627565983
1.6793743890518085
1.66177908113392
1.6441837732160314
1.6256109481915937
1.607038123167155
1.5884652981427174
1.5718475073313782
1.5591397849462365
1.5464320625610948
1.5356793743890518
1.5278592375366569
1.5190615835777126
1.5102639296187683
1.500488758553275
1.4916911045943304
1.4819159335288368
1.4721407624633431
1.4633431085043989
1.4535679374389052
1.444770283479961
1.4349951124144673
1.426197458455523
1.4193548387096775
1.418377321603128
1.4242424242424243
1.4418377321603129
1.478005865102639
1.5405669599217986
1.6304985337243405
1.7448680351906158
1.8836754643206255
2.042033235581622
2.2052785923753664
2.366568914956012
2.5004887585532747
2.611925708699902
2.724340175953079
2.8269794721407626
2.9159335288367547
2.988269794721408
3.043010752688172
3.0821114369501466
3.10850439882698
3.124144672531769
3.1300097751710654
3.1280547409579667
3.120234604105572
3.102639296187683
3.074291300097752
3.042033235581622
3.004887585532747
2.959921798631476
2.905180840664712
2.8406647116324537
2.7781036168132944
2.718475073313783
2.6578690127077222
2.60019550342131
2.5454545454545454
2.4946236559139785
2.4457478005865103
2.3978494623655915
2.3528836754643208
2.3098729227761488
2.2668621700879767
2.2267839687194524
2.187683284457478
2.1524926686217007
2.120234604105572
2.089931573802541
2.06158357771261
2.035190615835777
2.01564027370479
2.0009775171065494
1.986314760508309
1.9696969696969695
1.949169110459433
1.9257086999022484
1.8993157380254155
1.8748778103616808
