ppg
1.0635386119257086
1.0586510263929618
1.053763440860215
1.0488758553274682
1.043010752688172
1.0361681329423265
1.0263929618768328
1.0146627565982405
1.0019550342130987
0.9941348973607038
0.9951124144672532
1.0068426197458455
1.0410557184750733
1.1085043988269794
1.2150537634408602
1.3607038123167154
1.5395894428152492
1.737047898338221
1.9403714565004888
2.134897360703812
2.3088954056695994
2.455522971652004
2.5610948191593352
2.632453567937439
2.687194525904203
2.7233626588465296
2.740957966764418
2.745845552297165
2.739980449657869
2.724340175953079
2.7038123167155423
2.679374389051808
2.6529814271749754
2.6236559139784945
2.593352883675464
2.563049853372434
2.530791788856305
2.495601173020528
2.4574780058651027
2.4144672531769307
2.3655913978494625
2.3098729227761488
2.24633431085044
2.176930596285435
2.101661779081134
2.0234604105571847
1.9442815249266865
1.87683284457478
1.818181818181818
1.7595307917888563
1.7067448680351909
1.6627565982404693
1.6285434995112416
1.6041055718475072
1.5894428152492668
1.581622678396872
1.5796676441837731
1.5796676441837731
1.5796676441837731
1.5796676441837731
1.5796676441837731
1.5747800586510263
1.565982404692082
1.5532746823069403
1.5356793743890518
1.5151515151515151
1.4926686217008798
1.4672531769305963
1.4418377321603129
1.414467253176931
1.3870967741935485
1.359726295210166
1.3391984359726294
1.3225806451612905
1.3020527859237536
1.2805474095796676
1.260019550342131
1.241446725317693
1.224828934506354
1.209188660801564
1.1945259042033236
1.181818181818182
1.1691104594330402
1.1564027370478984
1.1495601173020529
1.1466275659824048
1.142717497556207
1.1378299120234605
1.133919843597263
1.1300097751710656
1.1251221896383188
1.1202346041055715
1.1133919843597262
1.104594330400782
1.093841642228739
1.0821114369501466
1.0742913000977516
1.075268817204301
1.0869990224828934
1.115347018572825
1.1749755620723363
1.2727272727272727
1.409579667644184
1.5796676441837731
1.7732160312805474
1.9794721407624636
2.1808406647116323
2.364613880742913
2.520039100684262
2.631476050830889
2.7067448680351904
2.7653958944281527
2.8054740957966766
2.8289345063538613
2.8377321603128056
2.835777126099707
2.825024437927664
2.807429130009776
2.78494623655914
2.760508308895406
2.7331378299120237
2.7038123167155423
2.675464320625611
2.64613880742913
2.613880742913001
2.579667644183773
2.5405669599217986
2.4946236559139785
2.4408602150537635
2.378299120234604
2.3088954056695994
2.232649071358749
2.1515151515151514
2.069403714565005
1.9980449657869013
1.9345063538611929
1.8699902248289344
1.812316715542522
1.7653958944281525
1.7282502443792769
1.7018572825024438
1.686217008797654
1.6774193548387095
1.6735092864125125
1.6715542521994136
1.6871945259042034
1.7086999022482894
1.7165200391006843
1.715542521994135
1.7067448680351909
1.6930596285434996
1.6744868035190617
1.6529814271749756
1.6285434995112416
1.6021505376344083
1.573802541544477
1.544477028347996
1.5161290322580645
1.4887585532746823
1.466275659824047
1.4457478005865103
1.4222873900293256
1.3978494623655917
1.3734115347018572
1.3499511241446724
1.3284457478005864
1.3098729227761483
1.2942326490713587
1.281524926686217
1.2697947214076246
1.260019550342131
1.252199413489736
1.2482893450635386
1.2473118279569892
1.2443792766373412
1.2394916911045943
1.2346041055718475
1.2287390029325511
1.2209188660801564
1.2130987292277615
1.206256109481916
1.1974584555229717
1.1867057673509287
1.1749755620723363
1.1691104594330402
1.1691104594330402
1.1779081133919844
1.2072336265884651
1.267839687194526
1.3685239491691104
1.5112414467253177
1.6930596285434996
1.902248289345064
2.12316715542522
2.3382209188660803
2.5347018572825024
2.702834799608993
2.825024437927664
2.911045943304008
2.9804496578690127
3.029325513196481
3.059628543499511
3.0733137829912023
3.075268817204301
3.067448680351906
3.0518084066471163
3.03128054740958
3.006842619745845
2.9775171065493646
2.946236559139785
2.913000977517106
2.875855327468231
2.8377321603128056
2.7976539589442817
2.7536656891495603
2.7038123167155423
2.64613880742913
2.581622678396872
2.5083088954056696
2.4271749755620724
2.3411534701857284
2.2629521016617797
2.189638318670577
2.110459433040078
2.032258064516129
1.9608993157380252
1.8993157380254155
1.8484848484848484
1.8084066471163245
1.7810361681329423
1.7634408602150538
1.75366568914956
1.7487781036168133
1.7468230694037146
1.7468230694037146
1.7458455522971652
1.7409579667644184
1.732160312805474
1.7194525904203324
1.7018572825024438
1.6813294232649072
1.6578690127077225
1.6314760508308896
1.603128054740958
1.5728250244379276
1.5405669599217986
1.5141739980449658
1.4916911045943304
1.4652981427174976
1.4379276637341154
1.4115347018572826
1.3851417399804498
1.359726295210166
1.3362658846529814
1.316715542521994
1.2991202346041055
1.2834799608993157
1.270772238514174
1.260019550342131
1.2531769305962854
1.249266862170088
1.2424242424242424
1.2346041055718475
1.2267839687194526
1.2189638318670577
1.2130987292277615
1.2082111436950147
1.2052785923753666
1.2023460410557183
1.1974584555229717
1.1915933528836755
1.1896383186705768
1.187683284457478
1.1808406647116323
1.1720430107526882
1.166177908113392
1.1749755620723363
1.2101661779081134
1.2795698924731185
1.3919843597262953
1.5454545454545454
1.7341153470185728
1.946236559139785
2.1681329423264906
2.357771260997068
2.520039100684262
2.679374389051808
2.8181818181818183
2.927663734115347
3.007820136852395
3.06158357771261
3.09188660801564
3.103616813294233
3.102639296187683
3.090909090909091
3.071358748778104
3.04594330400782
3.016617790811339
2.986314760508309
2.95405669599218
2.917888563049853
2.8797653958944283
2.8396871945259043
2.795698924731183
2.745845552297165
2.6911045943304006
2.6295210166177907
2.5620723362658846
2.486803519061584
2.4144672531769307
2.3391984359726297
2.2502443792766376
2.155425219941349
2.060606060606061
1.9736070381231672
1.8983382209188664
1.836754643206256
1.7898338220918866
1.758553274682307
1.7390029325513197
1.729227761485826
1.7272727272727273
1.729227761485826
1.7341153470185728
1.7390029325513197
1.7429130009775171
1.7409579667644184
1.7341153470185728
1.7204301075268815
1.7028347996089932
1.6813294232649072
1.6559139784946235
1.6285434995112416
1.6011730205278591
1.5777126099706744
1.555229716520039
1.5288367546432062
1.499511241446725
1.4682306940371457
1.436950146627566
1.4076246334310851
1.380254154447703
1.35386119257087
1.3304007820136852
1.310850439882698
1.29227761485826
1.2805474095796676
1.2746823069403714
1.2668621700879763
1.2580645161290325
1.2482893450635386
1.2394916911045943
1.2297165200391007
1.2209188660801564
1.2130987292277615
1.2082111436950147
1.2052785923753666
1.2043010752688172
1.203323558162268
1.2043010752688172
1.2052785923753666
1.2023460410557183
1.195503421309873
1.1857282502443791
1.176930596285435
1.176930596285435
1.1935483870967742
1.2375366568914956
1.3186705767350928
1.4428152492668622
1.608993157380254
1.7781036168132942
1.95405669599218
2.161290322580645
2.3743890518084068
2.573802541544477
2.7468230694037143
2.886608015640274
2.9931573802541545
3.069403714565005
3.118279569892473
3.145650048875855
3.156402737047898
3.15347018572825
3.1378299120234603
3.115347018572825
3.0879765395894427
3.0557184750733137
3.0205278592375366
2.9824046920821115
2.941348973607038
2.900293255131965
2.8582600195503423
2.8152492668621703
2.7673509286412514
2.710654936461388
2.6529814271749754
2.592375366568915
2.5190615835777126
2.4359726295210167
2.347018572825025
2.2160312805474094
2.065493646138808
1.951124144672532
1.86119257086999
1.7898338220918866
1.7350928641251222
1.6950146627565983
1.6666666666666667
1.651026392961877
1.6441837732160314
1.6422287390029326
1.643206256109482
1.6441837732160314
1.6441837732160314
1.6412512218963833
1.6344086021505375
1.6226783968719452
1.606060606060606
1.5865102639296187
1.564027370478983
1.543499511241447
1.5239491691104594
1.498533724340176
1.469208211143695
1.4379276637341154
1.4066471163245358
1.3763440860215057
1.346041055718475
1.3176930596285434
1.2913000977517106
1.267839687194526
1.2473118279569892
1.2267839687194526
1.2121212121212122
1.2003910068426198
1.1857282502443791
1.1710654936461389
1.1583577712609971
1.1466275659824048
1.1368523949169111
1.1300097751710656
1.1251221896383188
1.1202346041055715
1.1173020527859236
1.1163245356793745
1.118279569892473
1.1221896383186705
1.1221896383186705
1.121212121212121
1.1173020527859236
1.1085043988269794
1.096774193548387
1.0879765395894427
1.088954056695992
1.1085043988269794
1.1564027370478984
1.2434017595307918
1.3499511241446724
1.4819159335288368
1.66177908113392
1.871945259042033
2.0957966764418376
2.314760508308896
2.512218963831867
2.6803519061583576
2.814271749755621
2.913000977517106
2.981427174975562
3.0234604105571847
3.04594330400782
3.050830889540567
3.042033235581622
3.026392961876833
3.003910068426197
2.9765395894428157
2.946236559139785
2.913978494623656
2.8807429130009776
2.8455522971652005
2.8084066471163247
2.768328445747801
2.724340175953079
2.679374389051808
2.63049853372434
2.5718475073313782
2.505376344086021
2.4301075268817205
2.347018572825025
2.259042033235582
2.16911045943304
2.0791788856304985
1.991202346041056
1.9100684261974583
1.8387096774193548
1.780058651026393
1.7360703812316716
1.7038123167155426
1.678396871945259
1.66177908113392
1.6529814271749756
1.6480938416422288
1.64613880742913
1.6451612903225807
1.6422287390029326
1.6363636363636365
1.6256109481915937
1.6099706744868034
1.595307917888563
1.5796676441837731
1.5591397849462365
1.5347018572825024
1.5073313782991202
1.478005865102639
1.447702834799609
1.4164222873900294
1.3841642228739004
1.3509286412512218
1.3186705767350928
1.2883675464320623
1.2609970674486803
1.2404692082111437
1.2258064516129032
1.2082111436950147
1.1896383186705768
1.1730205278592376
1.1593352883675463
1.1485826001955035
1.141739980449658
1.1368523949169111
1.130987292277615
1.1241446725317692
1.1173020527859236
1.1124144672531768
1.1094819159335287
1.1036168132942326
1.096774193548387
1.0918866080156402
1.0850439882697946
1.0772238514173995
1.067448680351906
1.0557184750733135
1.0449657869012707
1.0371456500488758
1.040078201368524
1.0625610948191593
1.1026392961876832
1.1710654936461389
1.2834799608993157
1.439882697947214
1.6334310850439884
1.8523949169110456
2.0821114369501466
2.304985337243402
2.50733137829912
2.679374389051808
2.8152492668621703
2.9149560117302054
2.973607038123167
3.004887585532747
3.0234604105571847
3.029325513196481
3.024437927663734
3.0117302052785924
2.992179863147605
2.967741935483871
2.9393939393939394
2.906158357771261
2.870967741935484
2.833822091886608
2.792766373411535
2.750733137829912
2.70772238514174
2.659824046920821
2.606060606060606
2.544477028347996
2.474095796676442
2.396871945259042
2.3118279569892475
2.2218963831867056
2.1300097751710654
2.040078201368524
1.95405669599218
1.8836754643206255
1.825024437927664
1.7702834799608993
1.7243401759530792
1.6871945259042034
1.6608015640273706
1.6451612903225807
1.6363636363636365
1.6314760508308896
1.629521016617791
1.6275659824046922
1.624633431085044
1.6177908113391983
1.6099706744868034
1.598240469208211
1.5806451612903225
1.5581622678396871
1.5317693059628543
1.5024437927663734
1.4711632453567938
1.4389051808406648
1.4066471163245358
1.3743890518084063
1.343108504398827
1.3118279569892473
1.2864125122189638
1.2658846529814272
1.2434017595307918
1.2189638318670577
1.1945259042033236
1.1730205278592376
1.1544477028347997
1.1378299120234605
1.1241446725317692
1.1114369501466277
1.099706744868035
1.088954056695992
1.0791788856304985
1.0733137829912025
1.0694037145650048
1.064516129032258
1.0596285434995112
1.0557184750733135
1.0527859237536656
1.0488758553274682
1.0439882697947214
1.0381231671554252
1.0312805474095796
1.021505376344086
1.0117302052785924
1.0068426197458455
1.007820136852395
1.0195503421309873
1.0518084066471165
1.1173020527859236
1.2238514173998043
1.3734115347018572
1.560117302052786
1.7732160312805474
2.0
2.2218963831867056
2.4271749755620724
2.6050830889540566
2.735092864125122
2.827956989247312
2.905180840664712
2.961876832844575
2.9960899315738025
3.0117302052785924
3.013685239491691
3.003910068426197
2.98435972629521
2.956989247311828
2.9257086999022484
2.877810361681329
2.822091886608016
2.776148582600196
2.7341153470185726
2.6930596285435
2.649071358748778
2.601173020527859
2.547409579667644
2.487781036168133
2.421309872922776
2.347018572825025
2.264907135874878
2.1788856304985336
2.090909090909091
2.0117302052785924
1.9403714565004888
1.866080156402737
1.7976539589442817
1.7390029325513197
1.6901270772238517
1.6529814271749756
1.6275659824046922
1.611925708699902
1.6050830889540566
1.603128054740958
1.6021505376344083
1.6021505376344083
1.6021505376344083
1.5992179863147604
1.5923753665689149
1.5806451612903225
1.5650048875855327
1.5454545454545454
1.52297165200391
1.4965786901270772
1.4682306940371457
1.4389051808406648
1.4086021505376345
1.3841642228739004
1.3616813294232648
1.335288367546432
1.3088954056695992
1.2825024437927663
1.2580645161290325
1.2355816226783969
1.2150537634408602
1.195503421309873
1.1759530791788857
1.1583577712609971
1.142717497556207
1.1290322580645162
1.1221896383186705
1.1173020527859236
1.110459433040078
1.1036168132942326
1.0977517106549364
1.0928641251221896
1.088954056695992
1.0850439882697946
1.0821114369501466
1.0791788856304985
1.0762463343108504
1.0713587487781036
1.0684261974584557
1.0654936461388074
1.0586510263929618
1.050830889540567
1.0469208211143697
1.0547409579667644
1.083088954056696
1.141739980449658
1.2394916911045943
1.380254154447703
1.5581622678396871
1.7644183773216031
1.9853372434017595
2.177908113391984
2.347018572825025
2.517106549364614
2.6666666666666665
2.7869012707722387
2.877810361681329
2.940371456500489
2.9775171065493646
2.9960899315738025
2.99902248289345
2.989247311827957
2.9716520039100685
2.9472140762463344
2.918866080156403
2.889540566959922
2.8582600195503423
2.8240469208211145
2.787878787878788
2.750733137829912
2.708699902248289
2.66177908113392
2.6099706744868034
2.552297165200391
2.486803519061584
2.4144672531769307
2.3440860215053765
2.272727272727273
2.1915933528836757
2.1065493646138806
2.021505376344086
1.9393939393939397
1.865102639296188
1.8035190615835777
1.75366568914956
1.7145650048875856
1.686217008797654
1.667644183773216
1.656891495601173
1.6520039100684265
1.6500488758553276
1.6490713587487782
1.6471163245356797
1.643206256109482
1.635386119257087
1.6236559139784943
1.606060606060606
1.5835777126099706
1.5591397849462365
1.5317693059628543
1.5024437927663734
1.4760508308895406
1.4516129032258065
1.4242424242424243
1.3949169110459434
1.3665689149560116
1.33822091886608
1.3098729227761483
1.2825024437927663
1.2580645161290325
1.2365591397849462
1.217008797653959
1.1994134897360704
1.1886608015640274
1.1808406647116323
1.1710654936461389
1.160312805474096
1.1515151515151516
1.1456500488758554
1.1397849462365592
1.133919843597263
1.1280547409579669
1.1221896383186705
1.1173020527859236
1.1133919843597262
1.1094819159335287
1.1094819159335287
1.1114369501466277
1.1094819159335287
1.1036168132942326
1.0948191593352885
1.0850439882697946
1.0801564027370478
1.0879765395894427
1.1192570869990224
1.18475073313783
1.2913000977517106
1.439882697947214
1.5962854349951123
1.7634408602150538
1.9667644183773216
2.1808406647116323
2.3870967741935485
2.5698924731182795
2.7233626588465296
2.843597262952102
2.930596285434995
2.988269794721408
3.021505376344086
3.038123167155425
3.040078201368524
3.0283479960899315
3.007820136852395
2.98435972629521
2.9579667644183774
2.927663734115347
2.8944281524926687
2.859237536656892
2.822091886608016
2.782013685239492
2.73802541544477
2.6901270772238512
2.6373411534701856
2.58455522971652
2.5288367546432062
2.4613880742913
2.3851417399804498
2.302052785923754
2.2130987292277613
2.121212121212121
2.0303030303030303
1.9423264907135875
1.8621700879765395
1.793743890518084
1.7390029325513197
1.696969696969697
1.6686217008797657
1.651026392961877
1.6412512218963833
1.6363636363636365
1.6363636363636365
1.6373411534701858
1.6363636363636365
1.632453567937439
1.6256109481915937
1.6138807429130009
1.5962854349951123
1.573802541544477
1.552297165200391
1.5317693059628543
1.5053763440860215
1.4760508308895406
1.444770283479961
1.4115347018572826
1.3773216031280548
1.3450635386119256
1.3147605083088951
1.2854349951124144
1.2580645161290325
1.2336265884652982
1.2111436950146628
1.195503421309873
1.1827956989247312
1.1681329423264908
1.1534701857282503
1.1407624633431086
1.1300097751710656
1.1202346041055715
1.1114369501466277
1.1055718475073313
1.099706744868035
1.093841642228739
1.088954056695992
1.088954056695992
1.0899315738025417
1.0879765395894427
1.083088954056696
1.078201368523949
1.0713587487781036
1.0625610948191593
1.0518084066471165
1.0420332355816226
1.0381231671554252
1.0488758553274682
1.083088954056696
1.1368523949169111
1.2189638318670577
1.3470185728250244
1.5161290322580645
1.7174975562072337
1.9374389051808407
2.146627565982405
2.3362658846529816
2.5112414467253177
2.658846529814272
2.7751710654936463
2.8611925708699903
2.919843597262952
2.951124144672532
2.962854349951124
2.9657869012707723
2.9589442815249267
2.943304007820137
2.920821114369501
2.89345063538612
2.86217008797654
2.827956989247312
2.790811339198436
2.750733137829912
2.7096774193548385
2.668621700879765
2.6265884652981426
2.5777126099706744
2.52297165200391
2.4594330400782014
2.388074291300098
2.30791788856305
2.220918866080156
2.1300097751710654
2.038123167155425
1.949169110459433
1.866080156402737
1.7927663734115349
1.737047898338221
1.6950146627565983
1.6588465298142718
1.629521016617791
1.6099706744868034
1.5992179863147604
1.5943304007820136
1.5913978494623655
1.590420332355816
1.5884652981427174
1.58455522971652
1.576735092864125
1.5679374389051808
1.555229716520039
1.5376344086021505
1.5161290322580645
1.4916911045943304
1.4643206256109482
1.434017595307918
1.4037145650048877
1.3734115347018572
1.3440860215053765
1.3147605083088951
1.284457478005865
1.2551319648093842
1.2336265884652982
1.2160312805474096
1.1945259042033236
1.1730205278592376
1.1515151515151516
1.1329423264907137
1.1173020527859236
1.1055718475073313
1.0948191593352885
1.086021505376344
1.0772238514173995
1.0694037145650048
1.067448680351906
1.0664711632453567
1.0625610948191593
1.0586510263929618
1.053763440860215
1.0488758553274682
1.0439882697947214
1.0361681329423265
1.0283479960899315
1.018572825024438
1.0087976539589445
1.0019550342130987
1.0039100684261977
1.0175953079178883
1.0498533724340176
1.1133919843597262
1.217008797653959
1.3616813294232648
1.544477028347996
1.7556207233626588
1.978494623655914
2.198435972629521
2.401759530791789
2.576735092864125
2.717497556207233
2.814271749755621
2.87683284457478
2.9257086999022484
2.9579667644183774
2.973607038123167
2.9765395894428157
2.9696969696969697
2.952101661779081
2.9286412512218964
2.900293255131965
2.866080156402737
2.827956989247312
2.788856304985337
2.7497556207233624
2.7096774193548385
2.665689149560117
2.618768328445748
2.5650048875855327
2.504398826979472
2.4349951124144678
2.357771260997068
2.2737047898338223
2.1847507331378297
2.093841642228739
2.004887585532747
1.9286412512218964
1.8621700879765395
1.7976539589442817
1.7429130009775171
1.699902248289345
1.667644183773216
1.6441837732160314
1.629521016617791
1.6207233626588464
1.6158357771260996
1.611925708699902
1.608993157380254
1.6041055718475072
1.598240469208211
1.590420332355816
1.5786901270772238
1.5620723362658846
1.5405669599217986
1.5151515151515151
1.487781036168133
1.457478005865103
1.426197458455523
1.3949169110459434
1.364613880742913
1.335288367546432
1.3118279569892473
1.29227761485826
1.2688172043010753
1.2434017595307918
1.2189638318670577
1.1964809384164223
1.1759530791788857
1.1564027370478984
1.13880742913001
1.1251221896383188
1.1133919843597262
1.1036168132942326
1.0948191593352885
1.0928641251221896
1.0918866080156402
1.0879765395894427
1.0840664711632453
1.0801564027370478
1.075268817204301
1.0703812316715542
1.0654936461388074
1.0596285434995112
1.0518084066471165
1.043010752688172
1.032258064516129
1.0263929618768328
1.0254154447702837
1.0312805474095796
1.0557184750733135
1.1085043988269794
1.1994134897360704
1.3333333333333333
1.5073313782991202
1.7116324535679377
1.9345063538611929
2.1593352883675463
2.3704789833822093
2.5562072336265884
2.695014662756598
2.7947214076246336
2.8797653958944283
2.943304007820137
2.983382209188661
3.004887585532747
3.0127077223851417
3.0097751710654936
2.99902248289345
2.981427174975562
2.956989247311828
2.9286412512218964
2.8963831867057674
2.86217008797654
2.8260019550342133
2.7869012707722387
2.744868035190616
2.6989247311827955
2.6471163245356792
2.589442815249267
2.525904203323558
2.4545454545454546
2.3743890518084068
2.2873900293255134
2.196480938416422
2.114369501466276
2.038123167155425
1.956989247311828
1.8797653958944285
1.8103616813294232
1.75366568914956
1.710654936461388
1.6803519061583578
1.6608015640273706
1.651026392961877
1.64613880742913
1.6451612903225807
1.6441837732160314
1.643206256109482
1.6392961876832846
1.632453567937439
1.6217008797653958
1.607038123167155
1.5884652981427174
1.5669599217986314
1.541544477028348
1.5131964809384164
1.4819159335288368
1.4496578690127078
1.4222873900293256
1.396871945259042
1.3655913978494625
1.3343108504398826
1.3049853372434017
1.2766373411534702
1.2502443792766371
1.2267839687194526
1.206256109481916
1.1867057673509287
1.1681329423264908
1.1505376344086022
1.1358748778103618
1.126099706744868
1.121212121212121
1.1163245356793745
1.1124144672531768
1.1085043988269794
1.1036168132942326
1.0987292277614855
1.093841642228739
1.0899315738025417
1.0869990224828934
1.0840664711632453
1.0791788856304985
1.0772238514173995
1.0762463343108504
1.0694037145650048
1.06158357771261
1.0596285434995112
1.075268817204301
1.118279569892473
1.1964809384164223
1.3157380254154447
1.4760508308895406
1.6695992179863148
1.8836754643206255
2.104594330400782
2.290322580645161
2.44672531769306
2.60019550342131
2.735092864125122
2.841642228739003
2.920821114369501
2.9745845552297165
3.007820136852395
3.0234604105571847
3.026392961876833
3.018572825024438
3.0019550342130987
2.9775171065493646
2.9472140762463344
2.913978494623656
2.8797653958944283
2.843597262952102
2.8044965786901277
2.763440860215054
2.719452590420332
2.6725317693059627
2.618768328445748
2.557184750733138
2.487781036168133
2.410557184750733
2.335288367546432
2.259042033235582
2.1739980449657867
2.086021505376344
1.9990224828934504
1.9159335288367547
1.839687194525904
1.7732160312805474
1.7194525904203324
1.6774193548387095
1.6471163245356797
1.6265884652981428
1.6148582600195502
1.6080156402737047
1.603128054740958
1.5992179863147604
1.5943304007820136
1.587487781036168
1.5786901270772238
1.5669599217986314
1.5503421309872922
1.5298142717497556
1.5053763440860215
1.478983382209189
1.4486803519061584
1.423264907135875
1.3998044965786902
1.3695014662756595
1.3391984359726294
1.3088954056695992
1.278592375366569
1.2512218963831867
1.2258064516129032
1.2013685239491692
1.176930596285435
1.1544477028347997
1.1348973607038124
1.1221896383186705
1.1124144672531768
1.1006842619745845
1.0899315738025417
1.0801564027370478
1.0703812316715542
