ppg
1.482893450635386
1.4633431085043989
1.439882697947214
1.41544477028348
1.3890518084066472
1.364613880742913
1.3411534701857282
1.3176930596285434
1.2942326490713587
1.2688172043010753
1.2434017595307918
1.2228739002932552
1.2043010752688172
1.1827956989247312
1.1612903225806452
1.1397849462365592
1.1173020527859236
1.096774193548387
1.0772238514173995
1.0586510263929618
1.0391006842619743
1.018572825024438
0.997067448680352
0.9765395894428152
0.9618768328445748
0.9491691104594332
0.9335288367546432
0.919843597262952
0.9051808406647116
0.8895405669599218
0.8748778103616813
0.8602150537634409
0.8435972629521017
0.8279569892473119
0.8132942326490714
0.852394916911046
0.9237536656891496
0.9589442815249268
0.9745845552297164
0.9804496578690128
0.981427174975562
0.9794721407624634
0.9765395894428152
0.9726295210166178
0.9667644183773216
0.9608993157380256
0.956989247311828
0.9589442815249268
0.9736070381231672
1.0019550342130987
1.0478983382209188
1.1202346041055715
1.219941348973607
1.3450635386119256
1.4897360703812317
1.640273704789834
1.7878787878787878
1.924731182795699
2.04594330400782
2.1485826001955037
2.233626588465298
2.294232649071359
2.3362658846529816
2.3704789833822093
2.3978494623655915
2.4173998044965788
2.429130009775171
2.434017595307918
2.4349951124144678
2.43108504398827
2.423264907135875
2.412512218963832
2.3978494623655915
2.3792766373411536
2.3597262952101663
2.335288367546432
2.304985337243402
2.267839687194526
2.222873900293255
2.1710654936461387
2.1114369501466275
2.0449657869012707
1.9716520039100685
1.8963831867057677
1.8240469208211143
1.7556207233626588
1.6989247311827955
1.651026392961877
1.606060606060606
1.5679374389051808
1.5366568914956011
1.5112414467253177
1.4926686217008798
1.479960899315738
1.4711632453567938
1.4652981427174976
1.4604105571847508
1.456500488758553
1.4535679374389052
1.452590420332356
1.4516129032258065
1.4496578690127078
1.4467253176930597
1.4428152492668622
1.4379276637341154
1.4330400782013686
1.4281524926686218
1.423264907135875
1.4193548387096775
1.41544477028348
1.4115347018572826
1.409579667644184
1.4086021505376345
1.4056695992179864
1.4027370478983383
1.3988269794721409
1.3949169110459434
1.3890518084066472
1.380254154447703
1.370478983382209
1.3616813294232648
1.35386119257087
1.346041055718475
1.3411534701857282
1.3372434017595307
1.3304007820136852
1.3225806451612905
1.3147605083088951
1.3049853372434017
1.295210166177908
1.2864125122189638
1.2776148582600195
1.267839687194526
1.2580645161290325
1.249266862170088
1.2434017595307918
1.241446725317693
1.241446725317693
1.2394916911045943
1.2355816226783969
1.2297165200391007
1.2228739002932552
1.2179863147605083
1.2160312805474096
1.2238514173998043
1.249266862170088
1.2961876832844574
1.370478983382209
1.456500488758553
1.5571847507331378
1.6871945259042034
1.835777126099707
1.991202346041056
2.144672531769306
2.2854349951124147
2.409579667644184
2.5161290322580645
2.603128054740958
2.6715542521994133
2.7253176930596283
2.7653958944281527
2.789833822091887
2.8044965786901277
2.817204301075269
2.8269794721407626
2.832844574780059
2.835777126099707
2.834799608993157
2.83088954056696
2.823069403714565
2.809384164222874
2.790811339198436
2.766373411534702
2.7390029325513194
2.705767350928641
2.665689149560117
2.6177908113391983
2.5620723362658846
2.498533724340176
2.4281524926686218
2.3519061583577714
2.271749755620724
2.1915933528836757
2.113391984359726
2.042033235581622
1.978494623655914
1.927663734115347
1.8875855327468232
1.8514173998044965
1.8211143695014664
1.7976539589442817
1.7781036168132942
1.7605083088954057
1.7448680351906158
1.7302052785923754
1.7135874877810362
1.6950146627565983
1.6764418377321604
1.6598240469208212
1.6451612903225807
1.6275659824046922
1.6099706744868034
1.5913978494623655
1.5698924731182795
1.5493646138807429
1.5288367546432062
1.5073313782991202
1.4868035190615836
1.469208211143695
1.452590420332356
1.434017595307918
1.418377321603128
1.404692082111437
1.3890518084066472
1.3734115347018572
1.356793743890518
1.33822091886608
1.3186705767350928
1.300097751710655
1.2834799608993157
1.2688172043010753
1.2580645161290325
1.249266862170088
1.2453567937438903
1.2434017595307918
1.2404692082111437
1.2365591397849462
1.2326490713587488
1.2287390029325511
1.224828934506354
1.2209188660801564
1.2189638318670577
1.2179863147605083
1.2160312805474096
1.2140762463343109
1.2111436950146628
1.2111436950146628
1.2121212121212122
1.2101661779081134
1.2082111436950147
1.2111436950146628
1.2267839687194526
1.2619745845552297
1.3225806451612905
1.409579667644184
1.52297165200391
1.656891495601173
1.8025415444770283
1.932551319648094
2.050830889540567
2.172043010752688
2.2844574780058653
2.383186705767351
2.466275659824047
2.533724340175953
2.5865102639296187
2.625610948191593
2.653958944281525
2.6725317693059627
2.6852394916911044
2.6911045943304006
2.689149560117302
2.6823069403714563
2.673509286412512
2.6637341153470184
2.652003910068426
2.635386119257087
2.6148582600195502
2.5884652981427174
2.555229716520039
2.5161290322580645
2.4682306940371457
2.4115347018572826
2.355816226783969
2.2981427174975564
2.23069403714565
2.157380254154448
2.080156402737048
2.002932551319648
1.9286412512218964
1.8602150537634408
1.7996089931573802
1.747800586510264
1.704789833822092
1.6715542521994136
1.64613880742913
1.629521016617791
1.6187683284457477
1.607038123167155
1.5933528836754642
1.5786901270772238
1.58455522971652
1.598240469208211
1.5923753665689149
1.5777126099706744
1.5591397849462365
1.5376344086021505
1.5161290322580645
1.4965786901270772
1.478983382209189
1.458455522971652
1.4379276637341154
1.4173998044965788
1.3958944281524928
1.375366568914956
1.35386119257087
1.3343108504398826
1.313782991202346
1.2932551319648091
1.2717497556207231
1.2512218963831867
1.2355816226783969
1.2228739002932552
1.2072336265884651
1.1915933528836755
1.176930596285435
1.1622678396871946
1.147605083088954
1.133919843597263
1.1202346041055715
1.1065493646138806
1.0957966764418376
1.086021505376344
1.0811339198435972
1.078201368523949
1.0733137829912025
1.0664711632453567
1.0586510263929618
1.0518084066471165
1.04594330400782
1.0410557184750733
1.0361681329423265
1.032258064516129
1.0283479960899315
1.0234604105571847
1.0234604105571847
1.0283479960899315
1.0381231671554252
1.0606060606060606
1.1036168132942326
1.1730205278592376
1.2727272727272727
1.401759530791789
1.5562072336265884
1.7282502443792769
1.9071358748778104
2.085043988269794
2.2521994134897363
2.3841642228739004
2.489736070381232
2.589442815249267
2.67644183773216
2.748778103616813
2.8054740957966766
2.8484848484848486
2.8807429130009776
2.905180840664712
2.9237536656891496
2.935483870967742
2.940371456500489
2.936461388074292
2.9266862170087977
2.9159335288367547
2.900293255131965
2.881720430107527
2.8563049853372435
2.823069403714565
2.7839687194525906
2.736070381231672
2.678396871945259
2.610948191593353
2.535679374389052
2.453567937438905
2.377321603128055
2.3059628543499517
2.2297165200391005
2.156402737047898
2.0879765395894427
2.0283479960899315
1.978494623655914
1.935483870967742
1.8993157380254155
1.8699902248289344
1.844574780058651
1.8240469208211143
1.8084066471163245
1.793743890518084
1.7781036168132942
1.761485826001955
1.7419354838709675
1.7233626588465298
1.7057673509286413
1.6881720430107527
1.6705767350928642
1.6549364613880744
1.640273704789834
1.6256109481915937
1.6099706744868034
1.5972629521016617
1.5865102639296187
1.5747800586510263
1.5620723362658846
1.5493646138807429
1.5366568914956011
1.5249266862170088
1.512218963831867
1.499511241446725
1.4868035190615836
1.474095796676442
1.4613880742913
1.452590420332356
1.4457478005865103
1.4379276637341154
1.4301075268817205
1.4213098729227762
1.4115347018572826
1.4007820136852396
1.3900293255131966
1.3851417399804498
1.3919843597262953
1.4173998044965788
1.469208211143695
1.5493646138807429
1.6383186705767352
1.739980449657869
1.8699902248289344
2.016617790811339
2.166177908113392
2.3098729227761488
2.439882697947214
2.5532746823069403
2.6471163245356792
2.719452590420332
2.776148582600196
2.819159335288368
2.8455522971652005
2.8611925708699903
2.873900293255132
2.8836754643206257
2.889540566959922
2.8905180840664717
2.8856304985337244
2.87683284457478
2.866080156402737
2.8533724340175954
2.8367546432062563
2.812316715542522
2.7810361681329425
2.7468230694037143
2.7067448680351904
2.6578690127077222
2.601173020527859
2.535679374389052
2.464320625610948
2.386119257086999
2.304007820136853
2.222873900293255
2.146627565982405
2.0762463343108504
2.01564027370479
1.9696969696969695
1.9345063538611929
1.903225806451613
1.8758553274682308
1.8543499511241448
1.836754643206256
1.822091886608016
1.8084066471163245
1.7927663734115349
1.775171065493646
1.7556207233626588
1.7350928641251222
1.7145650048875856
1.6979472140762464
1.6823069403714566
1.66177908113392
1.6392961876832846
1.6158357771260996
1.5943304007820136
1.5757575757575757
1.5591397849462365
1.543499511241447
1.5278592375366569
1.512218963831867
1.4946236559139785
1.4819159335288368
1.4701857282502444
1.456500488758553
1.444770283479961
1.4320625610948192
1.4193548387096775
1.4066471163245358
1.393939393939394
1.3812316715542523
1.3695014662756595
1.3587487781036167
1.3479960899315735
1.3372434017595307
1.3304007820136852
1.324535679374389
1.3147605083088951
1.305962854349951
1.2971652003910068
1.289345063538612
1.281524926686217
1.2746823069403714
1.2688172043010753
1.2639296187683284
1.260019550342131
1.2570869990224829
1.2580645161290325
1.2609970674486803
1.260019550342131
1.2580645161290325
1.252199413489736
1.2434017595307918
1.2336265884652982
1.2267839687194526
1.227761485826002
1.2424242424242424
1.2795698924731185
1.3440860215053765
1.439882697947214
1.5454545454545454
1.6656891495601174
1.8172043010752688
1.9833822091886608
2.1515151515151514
2.3098729227761488
2.4516129032258065
2.5718475073313782
2.670576735092864
2.7497556207233624
2.809384164222874
2.850439882697948
2.8729227761485827
2.8836754643206257
2.889540566959922
2.8914956011730206
2.889540566959922
2.884652981427175
2.87683284457478
2.8641251221896384
2.8475073313782997
2.8269794721407626
2.7996089931573804
2.766373411534702
2.7438905180840663
2.7223851417399803
2.684261974584555
2.633431085043988
2.5718475073313782
2.5004887585532747
2.420332355816227
2.334310850439883
2.2453567937438903
2.1544477028347995
2.064516129032258
1.9794721407624636
1.903225806451613
1.842619745845552
1.7956989247311828
1.75366568914956
1.7194525904203324
1.6920821114369502
1.6715542521994136
1.656891495601173
1.6441837732160314
1.6304985337243405
1.6148582600195502
1.598240469208211
1.5826001955034212
1.5718475073313782
1.563049853372434
1.5513196480938416
1.5395894428152492
1.5268817204301075
1.5141739980449658
1.501466275659824
1.487781036168133
1.4731182795698925
1.455522971652004
1.4379276637341154
1.4203323558162269
1.4027370478983383
1.3890518084066472
1.3763440860215057
1.3587487781036167
1.3391984359726294
1.3196480938416422
1.300097751710655
1.2805474095796676
1.2609970674486803
1.2424242424242424
1.224828934506354
1.2072336265884651
1.1906158357771262
1.1798631476050832
1.1730205278592376
1.1652003910068427
1.1573802541544478
1.1485826001955035
1.142717497556207
1.1397849462365592
1.1378299120234605
1.1368523949169111
1.1378299120234605
1.141739980449658
1.147605083088954
1.1544477028347997
1.164222873900293
1.1730205278592376
1.1788856304985338
1.181818181818182
1.1837732160312806
1.1886608015640274
1.2013685239491692
1.23069403714565
1.284457478005865
1.367546432062561
1.482893450635386
1.6265884652981428
1.7683284457478006
1.9130009775171064
2.0791788856304985
2.251221896383187
2.41544477028348
2.563049853372434
2.6901270772238512
2.795698924731183
2.878787878787879
2.943304007820137
2.992179863147605
3.026392961876833
3.048875855327468
3.058651026392962
3.06158357771261
3.0635386119257086
3.0635386119257086
3.0625610948191597
3.058651026392962
3.0498533724340176
3.037145650048876
3.0195503421309877
2.995112414467253
2.964809384164223
2.927663734115347
2.8856304985337244
2.838709677419355
2.7810361681329425
2.713587487781036
2.6373411534701856
2.5542521994134897
2.4672531769305963
2.3812316715542523
2.2981427174975564
2.2218963831867056
2.155425219941349
2.0987292277614857
2.0527859237536656
2.0195503421309877
1.9951124144672527
1.9736070381231672
1.9521016617790807
1.9286412512218964
1.903225806451613
1.878787878787879
1.8563049853372435
1.833822091886608
1.8113391984359728
1.7898338220918866
1.7683284457478006
1.7487781036168133
1.7302052785923754
1.7096774193548387
1.6881720430107527
1.6666666666666667
1.6451612903225807
1.6236559139784943
1.6021505376344083
1.5826001955034212
1.564027370478983
1.543499511241447
1.521994134897361
1.501466275659824
1.4868035190615836
1.474095796676442
1.4594330400782014
1.444770283479961
1.4301075268817205
1.4173998044965788
1.4056695992179864
1.3958944281524928
1.3861192570869991
1.3773216031280548
1.367546432062561
1.356793743890518
1.3499511241446724
1.346041055718475
1.3391984359726294
1.332355816226784
1.3284457478005864
1.3255131964809383
1.321603128054741
1.3186705767350928
1.3147605083088951
1.3098729227761483
1.3049853372434017
1.2981427174975562
1.2883675464320623
1.2825024437927663
1.281524926686217
1.2854349951124144
1.303030303030303
1.343108504398827
1.4134897360703813
1.5151515151515151
1.6451612903225807
1.7986314760508308
1.967741935483871
2.139784946236559
2.304007820136853
2.436950146627566
2.5434995112414467
2.64613880742913
2.7390029325513194
2.819159335288368
2.8826979472140764
2.9335288367546437
2.973607038123167
3.004887585532747
3.0283479960899315
3.0449657869012707
3.053763440860215
3.058651026392962
3.0557184750733137
3.04594330400782
3.0361681329423265
3.0234604105571847
3.005865102639296
2.9824046920821115
2.952101661779081
2.913978494623656
2.8670576735092865
2.8132942326490715
2.7517106549364616
2.6803519061583576
2.608993157380254
2.5376344086021505
2.4565004887585533
2.3704789833822093
2.283479960899316
2.198435972629521
2.120234604105572
2.050830889540567
1.991202346041056
1.9413489736070384
1.900293255131965
1.8670576735092863
1.839687194525904
1.8191593352883677
1.804496578690127
1.7888563049853372
1.7712609970674489
1.7517106549364614
1.732160312805474
1.7135874877810362
1.6950146627565983
1.6735092864125125
1.651026392961877
1.6285434995112416
1.606060606060606
1.5884652981427174
1.5728250244379276
1.5542521994134897
1.5347018572825024
1.5131964809384164
1.490713587487781
1.4672531769305963
1.444770283479961
1.4222873900293256
1.4007820136852396
1.380254154447703
1.3607038123167154
1.3470185728250244
1.335288367546432
1.321603128054741
1.3088954056695992
1.2961876832844574
1.2805474095796676
1.2639296187683284
1.249266862170088
1.2355816226783969
1.219941348973607
1.203323558162268
1.1886608015640274
1.173998044965787
1.1652003910068427
1.1593352883675463
1.152492668621701
1.144672531769306
1.1358748778103618
1.1270772238514175
1.0899315738025417
1.0381231671554252
1.007820136852395
0.9882697947214076
0.9736070381231672
0.9638318670576737
0.9618768328445748
0.9706744868035192
0.9941348973607038
1.040078201368524
1.1133919843597262
1.2150537634408602
1.3440860215053765
1.4965786901270772
1.66177908113392
1.828934506353861
1.991202346041056
2.1407624633431084
2.269794721407625
2.3655913978494625
2.4359726295210167
2.496578690127077
2.544477028347996
2.5806451612903225
2.6070381231671558
2.624633431085044
2.634408602150537
2.6392961876832843
2.6402737047898337
2.6373411534701856
2.63049853372434
2.618768328445748
2.6021505376344085
2.5855327468230693
2.565982404692082
2.5405669599217986
2.505376344086021
2.4604105571847508
2.404692082111437
2.3391984359726297
2.2658846529814274
2.185728250244379
2.099706744868035
2.0117302052785924
1.9364613880742916
1.869012707722385
1.7996089931573802
1.7360703812316716
1.6813294232649072
1.6373411534701858
1.6041055718475072
1.5806451612903225
1.564027370478983
1.5542521994134897
1.5493646138807429
1.5464320625610948
1.5464320625610948
1.5464320625610948
1.542521994134897
1.5386119257087
1.5347018572825024
1.5278592375366569
1.520039100684262
1.5141739980449658
1.509286412512219
1.5024437927663734
1.4946236559139785
1.4858260019550342
1.478005865102639
1.4731182795698925
1.4672531769305963
1.4594330400782014
1.4516129032258065
1.4428152492668622
1.436950146627566
1.43108504398827
1.4242424242424243
1.4164222873900294
1.409579667644184
1.401759530791789
1.3919843597262953
1.383186705767351
1.375366568914956
1.364613880742913
1.3528836754643203
1.3411534701857282
1.3313782991202343
1.321603128054741
1.3128054740957966
1.303030303030303
1.2942326490713587
1.2854349951124144
1.2766373411534702
1.2688172043010753
1.2658846529814272
1.2668621700879763
1.2668621700879763
1.2668621700879763
1.2649071358748778
1.2590420332355816
1.252199413489736
1.2453567937438903
1.2424242424242424
1.2473118279569892
1.2688172043010753
1.3128054740957966
1.370478983382209
1.4496578690127078
1.563049853372434
1.7067448680351909
1.873900293255132
2.050830889540567
2.225806451612903
2.389051808406647
2.5347018572825024
2.659824046920821
2.763440860215054
2.8475073313782997
2.913978494623656
2.956011730205278
2.983382209188661
3.0087976539589443
3.0303030303030303
3.046920821114369
3.0576735092864125
3.06158357771261
3.059628543499511
3.0518084066471163
3.038123167155425
3.0205278592375366
3.0
2.9745845552297165
2.945259042033236
2.9120234604105573
2.873900293255132
2.827956989247312
2.7702834799608995
2.701857282502444
2.6236559139784945
2.539589442815249
2.449657869012708
2.356793743890518
2.2668621700879767
2.1818181818181817
2.1094819159335287
2.048875855327468
1.991202346041056
1.9413489736070384
1.8983382209188664
1.86119257086999
1.828934506353861
1.8005865102639296
1.7771260997067448
1.7556207233626588
1.7341153470185728
1.7135874877810362
1.6959921798631477
1.6793743890518085
1.6598240469208212
1.6383186705767352
1.6177908113391983
1.5972629521016617
1.5757575757575757
1.555229716520039
1.533724340175953
1.5102639296187683
1.4858260019550342
1.4623655913978495
1.4418377321603129
1.4271749755620724
1.414467253176931
1.3988269794721409
1.3812316715542523
1.3626588465298142
1.3450635386119256
1.3284457478005864
1.3118279569892473
1.2942326490713587
1.2766373411534702
1.260019550342131
1.2453567937438903
1.2346041055718475
1.224828934506354
1.2121212121212122
1.1994134897360704
1.187683284457478
1.1749755620723363
1.1622678396871946
1.1495601173020529
1.1358748778103618
1.1251221896383188
1.1163245356793745
1.10752688172043
1.0987292277614855
1.093841642228739
1.0909090909090908
1.0821114369501466
1.0703812316715542
1.056695992179863
1.0439882697947214
1.0361681329423265
1.040078201368524
1.0635386119257086
1.1133919843597262
1.1935483870967742
1.3049853372434017
1.423264907135875
1.5503421309872922
1.7018572825024438
1.8621700879765395
2.0205278592375366
2.166177908113392
2.294232649071359
2.40078201368524
2.487781036168133
2.5562072336265884
2.6080156402737047
2.6471163245356792
2.6715542521994133
2.684261974584555
2.6940371456500487
2.7008797653958942
2.701857282502444
2.697947214076246
2.6911045943304006
2.681329423264907
2.665689149560117
2.6451612903225805
2.6177908113391983
2.58455522971652
2.5434995112414467
2.4995112414467253
2.4516129032258065
2.3929618768328447
2.324535679374389
2.2482893450635384
2.164222873900293
2.075268817204301
1.9853372434017595
1.8983382209188664
1.8172043010752688
1.7429130009775171
1.678396871945259
1.6304985337243405
1.5943304007820136
1.560117302052786
1.5317693059628543
1.509286412512219
1.490713587487781
1.478005865102639
1.4701857282502444
1.4633431085043989
1.457478005865103
1.452590420332356
1.447702834799609
1.4418377321603129
1.4428152492668622
1.4467253176930597
1.444770283479961
1.4408602150537635
1.436950146627566
1.4330400782013686
1.4281524926686218
1.4242424242424243
1.4203323558162269
1.41544477028348
1.4115347018572826
1.4076246334310851
1.4056695992179864
1.404692082111437
1.401759530791789
1.3978494623655917
1.393939393939394
1.3900293255131966
1.383186705767351
1.375366568914956
1.3665689149560116
1.359726295210166
1.3528836754643203
1.3450635386119256
1.3391984359726294
1.3372434017595307
1.3362658846529814
1.3333333333333333
1.3304007820136852
1.3264907135874875
1.3225806451612905
1.3176930596285434
1.3118279569892473
1.3069403714565004
1.3010752688172045
1.2942326490713587
1.2864125122189638
1.2805474095796676
1.2727272727272727
1.2619745845552297
1.2512218963831867
1.2453567937438903
1.2531769305962854
1.2825024437927663
1.33822091886608
1.4242424242424243
1.541544477028348
1.6813294232649072
1.8377321603128052
2.0019550342130987
2.144672531769306
2.2688172043010755
2.393939393939394
2.5083088954056696
2.6080156402737047
2.6940371456500487
2.764418377321604
2.820136852394917
2.865102639296188
2.900293255131965
2.9266862170087977
2.946236559139785
2.956011730205278
2.9589442815249267
2.960899315738025
2.960899315738025
2.956989247311828
2.946236559139785
2.930596285434995
2.9100684261974585
2.8836754643206257
2.850439882697948
2.8103616813294234
2.7624633431085046
2.705767350928641
2.64613880742913
2.581622678396872
2.506353861192571
2.423264907135875
2.335288367546432
2.247311827956989
2.160312805474096
2.0791788856304985
2.006842619745845
1.9442815249266865
1.8934506353861196
1.8523949169110456
1.822091886608016
1.8005865102639296
1.780058651026393
1.7605083088954057
1.7419354838709675
1.7223851417399805
1.7018572825024438
1.6813294232649072
1.6598240469208212
1.6392961876832846
1.6207233626588464
1.603128054740958
1.5865102639296187
1.5728250244379276
1.5591397849462365
1.541544477028348
1.521016617790811
1.501466275659824
1.4838709677419355
1.466275659824047
1.4496578690127078
1.4320625610948192
1.41544477028348
1.3988269794721409
1.383186705767351
1.3714565004887584
1.3616813294232648
1.3509286412512218
1.3401759530791788
1.3284457478005864
1.3157380254154447
1.3040078201368523
1.2932551319648091
1.2834799608993157
1.2746823069403714
1.2649071358748778
1.2551319648093842
1.2453567937438903
1.2394916911045943
1.2355816226783969
1.23069403714565
1.227761485826002
1.2258064516129032
1.224828934506354
1.224828934506354
1.2228739002932552
1.219941348973607
1.2150537634408602
1.2101661779081134
1.2052785923753666
1.2052785923753666
1.2121212121212122
1.23069403714565
1.270772238514174
1.3391984359726294
1.436950146627566
1.5620723362658846
1.70772238514174
1.8670576735092863
2.029325513196481
2.1847507331378297
2.3255131964809386
2.449657869012708
2.5425219941348973
2.611925708699902
2.67644183773216
2.7282502443792764
2.768328445747801
2.7976539589442817
2.817204301075269
2.8299120234604107
2.8377321603128056
2.8396871945259043
2.835777126099707
2.8289345063538613
2.817204301075269
2.801564027370479
2.7839687194525906
2.7595307917888565
2.729227761485826
2.6930596285435
2.6510263929618767
2.603128054740958
2.5454545454545454
2.47702834799609
2.39980449657869
2.313782991202346
2.222873900293255
2.1417399804496577
2.0664711632453567
1.9872922776148585
1.9090909090909087
1.8377321603128052
1.7771260997067448
1.7282502443792769
1.6881720430107527
1.6549364613880744
1.6285434995112416
1.607038123167155
1.5884652981427174
1.5728250244379276
1.5581622678396871
1.5405669599217986
1.520039100684262
