ppg
1.0488758553274682
1.021505376344086
0.9941348973607038
0.967741935483871
0.9393939393939394
0.9081133919843596
0.8778103616813294
0.8514173998044966
0.8367546432062561
0.8396871945259042
0.8660801564027371
0.9257086999022482
1.0263929618768328
1.166177908113392
1.3391984359726294
1.5366568914956011
1.7468230694037146
1.9550342130987293
2.150537634408602
2.3255131964809386
2.47702834799609
2.603128054740958
2.69208211143695
2.752688172043011
2.8025415444770285
2.8367546432062563
2.8533724340175954
2.8533724340175954
2.8377321603128056
2.8044965786901277
2.7565982404692084
2.695014662756598
2.622678396871945
2.5425219941348973
2.4652981427174976
2.3900293255131966
2.3098729227761488
2.2297165200391005
2.1515151515151514
2.0772238514174
2.007820136852395
1.9413489736070384
1.8797653958944285
1.822091886608016
1.7683284457478006
1.7790811339198436
1.828934506353861
1.8406647116324533
1.828934506353861
1.8054740957966764
1.7761485826001957
1.7438905180840665
1.7116324535679377
1.6803519061583578
1.651026392961877
1.6236559139784943
1.5992179863147604
1.5757575757575757
1.552297165200391
1.5347018572825024
1.5190615835777126
1.499511241446725
1.479960899315738
1.4613880742913
1.4428152492668622
1.423264907135875
1.401759530791789
1.380254154447703
1.359726295210166
1.3401759530791788
1.3196480938416422
1.303030303030303
1.2883675464320623
1.2697947214076246
1.2512218963831867
1.2394916911045943
1.238514173998045
1.2580645161290325
1.3020527859237536
1.3763440860215057
1.4819159335288368
1.6158357771260996
1.7712609970674489
1.9403714565004888
2.089931573802541
2.225806451612903
2.367546432062561
2.5004887585532747
2.6177908113391983
2.7145650048875853
2.791788856304985
2.8484848484848486
2.8885630498533725
2.9120234604105573
2.918866080156403
2.911045943304008
2.8914956011730206
2.86217008797654
2.823069403714565
2.773216031280548
2.7145650048875853
2.6510263929618767
2.582600195503421
2.512218963831867
2.442815249266862
2.376344086021505
2.312805474095797
2.2531769305962857
2.1974584555229715
2.1515151515151514
2.1114369501466275
2.070381231671554
2.0283479960899315
1.9872922776148585
1.948191593352884
1.911045943304008
1.8758553274682308
1.842619745845552
1.8093841642228736
1.7683284457478006
1.732160312805474
1.710654936461388
1.689149560117302
1.664711632453568
1.640273704789834
1.6158357771260996
1.5923753665689149
1.5718475073313782
1.5513196480938416
1.5317693059628543
1.5112414467253177
1.490713587487781
1.4701857282502444
1.4506353861192571
1.4349951124144673
1.4203323558162269
1.401759530791789
1.3822091886608017
1.3607038123167154
1.3372434017595307
1.3128054740957966
1.289345063538612
1.270772238514174
1.262952101661779
1.2727272727272727
1.3079178885630498
1.3607038123167154
1.434017595307918
1.543499511241447
1.6842619745845553
1.8455522971652003
2.0175953079178885
2.190615835777126
2.356793743890518
2.50733137829912
2.638318670576735
2.748778103616813
2.838709677419355
2.909090909090909
2.9530791788856305
2.9775171065493646
2.994134897360704
2.9980449657869013
2.989247311827957
2.9667644183773216
2.9315738025415445
2.8836754643206257
2.8260019550342133
2.760508308895406
2.6901270772238512
2.6177908113391983
2.552297165200391
2.4916911045943304
2.4281524926686218
2.364613880742913
2.304007820136853
2.24633431085044
2.1925708699902247
2.142717497556207
2.085043988269794
2.035190615835777
2.0009775171065494
1.964809384164223
1.9296187683284456
1.900293255131965
1.8748778103616808
1.8465298142717497
1.8172043010752688
1.7888563049853372
1.761485826001955
1.7350928641251222
1.7086999022482894
1.683284457478006
1.656891495601173
1.6275659824046922
1.5933528836754642
1.5650048875855327
1.541544477028348
1.5112414467253177
1.47702834799609
1.439882697947214
1.401759530791789
1.364613880742913
1.3264907135874875
1.2883675464320623
1.252199413489736
1.2160312805474096
1.1798631476050832
1.1436950146627567
1.1143695014662756
1.0909090909090908
1.0664711632453567
1.050830889540567
1.050830889540567
1.075268817204301
1.133919843597263
1.2287390029325511
1.3577712609970674
1.5151515151515151
1.6920821114369502
1.8748778103616808
2.0332355816226784
2.1700879765395893
2.3088954056695994
2.4359726295210167
2.5434995112414467
2.63049853372434
2.696969696969697
2.7438905180840663
2.7722385141739982
2.782991202346041
2.780058651026393
2.7624633431085046
2.729227761485826
2.6881720430107525
2.6402737047898337
2.5806451612903225
2.5131964809384164
2.439882697947214
2.3655913978494625
2.291300097751711
2.218963831867057
2.1495601173020527
2.071358748778104
2.004887585532747
1.9579667644183771
1.9159335288367547
1.865102639296188
1.8162267839687196
1.780058651026393
1.739980449657869
1.6989247311827955
1.6598240469208212
1.6217008797653958
1.58455522971652
1.5483870967741935
1.5131964809384164
1.4809384164222874
1.455522971652004
1.434017595307918
1.4086021505376345
1.383186705767351
1.359726295210166
1.3372434017595307
1.3147605083088951
1.2932551319648091
1.273704789833822
1.2561094819159335
1.2394916911045943
1.2238514173998043
1.2101661779081134
1.2023460410557183
1.198435972629521
1.1935483870967742
1.187683284457478
1.1808406647116323
1.1730205278592376
1.1681329423264908
1.1720430107526882
1.181818181818182
1.1994134897360704
1.2424242424242424
1.3372434017595307
1.436950146627566
1.5317693059628543
1.726295210166178
1.9804496578690127
2.161290322580645
2.3010752688172045
2.501466275659824
2.713587487781036
2.849462365591398
2.9530791788856305
3.047898338220919
3.1055718475073317
3.1358748778103616
3.1388074291300097
3.120234604105572
3.093841642228739
3.06158357771261
2.986314760508309
2.8905180840664717
2.8240469208211145
2.773216031280548
2.729227761485826
2.686217008797654
2.643206256109482
2.601173020527859
2.557184750733138
2.5219941348973607
2.4731182795698925
2.39980449657869
2.3274682306940373
2.2551319648093844
2.185728250244379
2.121212121212121
2.06158357771261
2.007820136852395
1.9608993157380252
1.9178885630498532
1.8836754643206255
1.8523949169110456
1.8191593352883677
1.7869012707722385
1.7565982404692082
1.7282502443792769
1.7028347996089932
1.6803519061583578
1.6598240469208212
1.6412512218963833
1.6226783968719452
1.606060606060606
1.5933528836754642
1.5826001955034212
1.5679374389051808
1.5493646138807429
1.5278592375366569
1.5034213098729228
1.4760508308895406
1.447702834799609
1.4173998044965788
1.3851417399804498
1.3528836754643203
1.3235581622678396
1.2981427174975562
1.2825024437927663
1.278592375366569
1.2883675464320623
1.3206256109481915
1.383186705767351
1.478005865102639
1.6041055718475072
1.7546432062561097
1.9188660801564028
2.0869990224828934
2.251221896383187
2.403714565004888
2.5210166177908118
2.611925708699902
2.696969696969697
2.7653958944281527
2.817204301075269
2.8533724340175954
2.8729227761485827
2.877810361681329
2.868035190615836
2.8426197458455524
2.8054740957966766
2.757575757575758
2.7008797653958942
2.643206256109482
2.58455522971652
2.5210166177908118
2.4545454545454546
2.389051808406647
2.3255131964809386
2.264907135874878
2.207233626588465
2.15347018572825
2.104594330400782
2.0576735092864125
2.0127077223851417
1.9736070381231672
1.9393939393939397
1.902248289345064
1.8641251221896384
1.826001955034213
1.7888563049853372
1.750733137829912
1.7126099706744868
1.6744868035190617
1.6392961876832846
1.607038123167155
1.5777126099706744
1.5493646138807429
1.525904203323558
1.5073313782991202
1.4887585532746823
1.4701857282502444
1.4516129032258065
1.4320625610948192
1.412512218963832
1.3919843597262953
1.3714565004887584
1.3509286412512218
1.3304007820136852
1.310850439882698
1.2961876832844574
1.281524926686217
1.2619745845552297
1.241446725317693
1.2189638318670577
1.1974584555229717
1.181818181818182
1.1788856304985338
1.1974584555229717
1.2434017595307918
1.3225806451612905
1.435972629521017
1.5777126099706744
1.7165200391006843
1.8543499511241448
2.0127077223851417
2.1730205278592374
2.32355816226784
2.4565004887585533
2.5698924731182795
2.66177908113392
2.7311827956989245
2.7810361681329425
2.814271749755621
2.83088954056696
2.83088954056696
2.8181818181818183
2.795698924731183
2.7624633431085046
2.718475073313783
2.6666666666666665
2.6080156402737047
2.544477028347996
2.47702834799609
2.407624633431085
2.3391984359726297
2.271749755620724
2.2082111436950145
2.15347018572825
2.104594330400782
2.056695992179863
2.010752688172043
1.9687194525904204
1.9296187683284456
1.8934506353861196
1.858260019550342
1.8240469208211143
1.790811339198436
1.7575757575757576
1.7253176930596286
1.699902248289345
1.6774193548387095
1.651026392961877
1.6256109481915937
1.6001955034213098
1.573802541544477
1.547409579667644
1.521016617790811
1.495601173020528
1.4711632453567938
1.447702834799609
1.4252199413489737
1.404692082111437
1.388074291300098
1.3743890518084063
1.356793743890518
1.33822091886608
1.3196480938416422
1.3010752688172045
1.2805474095796676
1.2590420332355816
1.2365591397849462
1.2150537634408602
1.1994134897360704
1.1964809384164223
1.2101661779081134
1.2434017595307918
1.305962854349951
1.401759530791789
1.5288367546432062
1.683284457478006
1.8533724340175952
2.0283479960899315
2.198435972629521
2.355816226783969
2.495601173020528
2.6148582600195502
2.699902248289345
2.760508308895406
2.812316715542522
2.850439882697948
2.874877810361681
2.8836754643206257
2.878787878787879
2.8611925708699903
2.831867057673509
2.791788856304985
2.739980449657869
2.679374389051808
2.611925708699902
2.547409579667644
2.484848484848485
2.4173998044965788
2.3499511241446727
2.2844574780058653
2.222873900293255
2.1652003910068425
2.113391984359726
2.065493646138808
2.021505376344086
1.9794721407624636
1.9393939393939397
1.9042033235581624
1.8729227761485825
1.839687194525904
1.8054740957966764
1.772238514173998
1.7390029325513197
1.704789833822092
1.6705767350928642
1.6383186705767352
1.6080156402737047
1.5796676441837731
1.5513196480938416
1.5249266862170088
1.5034213098729228
1.4848484848484849
1.4643206256109482
1.4418377321603129
1.4193548387096775
1.3998044965786902
1.383186705767351
1.3665689149560116
1.3509286412512218
1.335288367546432
1.3176930596285434
1.2981427174975562
1.281524926686217
1.2649071358748778
1.2443792766373412
1.2258064516129032
1.2140762463343109
1.217008797653959
1.2443792766373412
1.3020527859237536
1.393939393939394
1.5190615835777126
1.6686217008797657
1.8347996089931573
2.0087976539589443
2.1622678396871944
2.303030303030303
2.4516129032258065
2.591397849462365
2.713587487781036
2.814271749755621
2.89345063538612
2.951124144672532
2.988269794721408
3.005865102639296
3.004887585532747
2.9872922776148583
2.956011730205278
2.9149560117302054
2.86217008797654
2.7976539589442817
2.724340175953079
2.6451612903225805
2.5620723362658846
2.479960899315738
2.39980449657869
2.324535679374389
2.2521994134897363
2.1847507331378297
2.1221896383186705
2.069403714565005
2.021505376344086
1.9726295210166176
1.9257086999022484
1.8807429130009776
1.836754643206256
1.793743890518084
1.7526881720430108
1.7135874877810362
1.6744868035190617
1.6363636363636365
1.598240469208211
1.5650048875855327
1.5356793743890518
1.5034213098729228
1.4711632453567938
1.439882697947214
1.4086021505376345
1.3792766373411536
1.3509286412512218
1.3225806451612905
1.295210166177908
1.2688172043010753
1.2434017595307918
1.2189638318670577
1.1994134897360704
1.1827956989247312
1.1612903225806452
1.1368523949169111
1.1094819159335287
1.0821114369501466
1.0557184750733135
1.0332355816226784
1.0195503421309873
1.0224828934506354
1.0488758553274682
1.1065493646138806
1.1827956989247312
1.281524926686217
1.418377321603128
1.5806451612903225
1.7565982404692082
1.935483870967742
2.104594330400782
2.2551319648093844
2.3841642228739004
2.489736070381232
2.572825024437928
2.634408602150537
2.674486803519061
2.6930596285435
2.695014662756598
2.6852394916911044
2.66177908113392
2.624633431085044
2.573802541544477
2.5102639296187683
2.4349951124144678
2.3519061583577714
2.2639296187683287
2.1730205278592374
2.0821114369501466
2.003910068426197
1.9345063538611929
1.86119257086999
1.7898338220918866
1.721407624633431
1.6549364613880744
1.590420332355816
1.5268817204301075
1.466275659824047
1.4086021505376345
1.3548387096774193
1.3040078201368523
1.2561094819159335
1.2160312805474096
1.181818181818182
1.1436950146627567
1.104594330400782
1.0654936461388074
1.0263929618768328
0.9902248289345064
0.956989247311828
0.9237536656891496
0.8924731182795699
0.8621700879765396
0.8328445747800587
0.8113391984359726
0.7947214076246334
0.772238514173998
0.7468230694037146
0.7214076246334311
0.6940371456500489
0.667644183773216
0.6432062561094819
0.6207233626588465
0.5972629521016618
0.5738025415444771
0.5503421309872922
0.5278592375366569
0.5131964809384164
0.5053763440860215
0.5004887585532747
0.5102639296187683
0.5464320625610948
0.613880742913001
0.7165200391006843
0.8543499511241447
1.0195503421309873
1.2013685239491692
1.3890518084066472
1.5708699902248289
1.721407624633431
1.847507331378299
1.9687194525904204
2.0762463343108504
2.1652003910068425
2.2346041055718477
2.2854349951124147
2.317693059628544
2.333333333333333
2.334310850439883
2.320625610948192
2.29227761485826
2.2521994134897363
2.207233626588465
2.158357771260997
2.101661779081134
2.042033235581622
1.981427174975562
1.9237536656891496
1.8699902248289344
1.8211143695014664
1.7771260997067448
1.7390029325513197
1.704789833822092
1.6735092864125125
1.6480938416422288
1.6256109481915937
1.6011730205278591
1.5747800586510263
1.5483870967741935
1.521994134897361
1.4965786901270772
1.4711632453567938
1.444770283479961
1.418377321603128
1.3949169110459434
1.3724340175953078
1.3548387096774193
1.3401759530791788
1.3235581622678396
1.3069403714565004
1.2913000977517106
1.2746823069403714
1.2570869990224829
1.2394916911045943
1.2218963831867058
1.2043010752688172
1.187683284457478
1.1710654936461389
1.1515151515151516
1.1368523949169111
1.1221896383186705
1.1006842619745845
1.0742913000977516
1.0488758553274682
1.029325513196481
1.021505376344086
1.032258064516129
1.0694037145650048
1.1378299120234605
1.2394916911045943
1.370478983382209
1.501466275659824
1.6344086021505375
1.7878787878787878
1.945259042033236
2.093841642228739
2.2267839687194524
2.3382209188660803
2.4281524926686218
2.495601173020528
2.5425219941348973
2.570869990224829
2.581622678396872
2.575757575757576
2.5591397849462365
2.532746823069404
2.496578690127077
2.449657869012708
2.393939393939394
2.333333333333333
2.269794721407625
2.204301075268817
2.1378299120234603
2.072336265884653
2.0087976539589443
1.948191593352884
1.8973607038123168
1.8523949169110456
1.8054740957966764
1.7605083088954057
1.718475073313783
1.678396871945259
1.6392961876832846
1.6001955034213098
1.563049853372434
1.5278592375366569
1.4936461388074291
1.4613880742913
1.4301075268817205
1.404692082111437
1.3822091886608017
1.3548387096774193
1.324535679374389
1.2932551319648091
1.262952101661779
1.2336265884652982
1.2072336265884651
1.1827956989247312
1.1593352883675463
1.1378299120234605
1.1163245356793745
1.1006842619745845
1.0869990224828934
1.0703812316715542
1.053763440860215
1.0342130987292275
1.0127077223851415
1.0918866080156402
1.2228739002932552
1.278592375366569
1.2981427174975562
1.3040078201368523
1.3128054740957966
1.3333333333333333
1.3655913978494625
1.414467253176931
1.4887585532746823
1.5865102639296187
1.7008797653958945
1.8240469208211143
1.949169110459433
2.069403714565005
2.176930596285435
2.2688172043010755
2.3440860215053765
2.401759530791789
2.4389051808406648
2.4613880742913
2.47702834799609
2.484848484848485
2.484848484848485
2.4750733137829912
2.4565004887585533
2.4301075268817205
2.3958944281524928
2.3548387096774195
2.3088954056695994
2.260019550342131
2.209188660801564
2.1652003910068425
2.126099706744868
2.0840664711632453
2.043010752688172
2.003910068426197
1.9667644183773216
1.9305962854349952
1.895405669599218
1.8621700879765395
1.8328445747800584
1.8054740957966764
1.7790811339198436
1.7575757575757576
1.7390029325513197
1.7174975562072337
1.6959921798631477
1.6744868035190617
1.6520039100684265
1.6304985337243405
1.6099706744868034
1.590420332355816
1.5708699902248289
1.5532746823069403
1.5376344086021505
1.52297165200391
1.5141739980449658
1.5073313782991202
1.4965786901270772
1.4848484848484849
1.4721407624633431
1.458455522971652
1.444770283479961
1.4291300097751711
1.4115347018572826
1.392961876832845
1.3743890518084063
1.3558162267839686
1.343108504398827
1.3343108504398826
1.3264907135874875
1.327468230694037
1.346041055718475
1.3851417399804498
1.4486803519061584
1.5347018572825024
1.6392961876832846
1.758553274682307
1.8826979472140764
2.003910068426197
2.1163245356793743
2.204301075268817
2.2737047898338223
2.3382209188660803
2.3919843597262958
2.4349951124144678
2.466275659824047
2.4858260019550342
2.495601173020528
2.495601173020528
2.4858260019550342
2.4672531769305963
2.4408602150537635
2.410557184750733
2.377321603128055
2.3362658846529816
2.290322580645161
2.241446725317693
2.1925708699902247
2.146627565982405
2.103616813294233
2.0625610948191597
2.022482893450636
1.9853372434017595
1.9521016617790807
1.920821114369501
1.895405669599218
1.8729227761485825
1.8484848484848484
1.8240469208211143
1.8005865102639296
1.7771260997067448
1.7556207233626588
1.7350928641251222
1.715542521994135
1.6959921798631477
1.6764418377321604
1.6559139784946235
1.6392961876832846
1.6265884652981428
1.6129032258064515
1.5992179863147604
1.585532746823069
1.5718475073313782
1.5571847507331378
1.543499511241447
1.530791788856305
1.5180840664711632
1.5034213098729228
1.487781036168133
1.4760508308895406
1.466275659824047
1.452590420332356
1.436950146627566
1.4193548387096775
1.401759530791789
1.3851417399804498
1.3743890518084063
1.3773216031280548
1.3998044965786902
1.4437927663734116
1.512218963831867
1.603128054740958
1.6959921798631477
1.7927663734115349
1.906158357771261
2.022482893450636
2.133919843597263
2.2346041055718477
2.3225806451612905
2.3949169110459434
2.4516129032258065
2.495601173020528
2.525904203323558
2.544477028347996
2.5513196480938416
2.550342130987292
2.5434995112414467
2.527859237536657
2.505376344086021
2.4760508308895406
2.441837732160313
2.401759530791789
2.356793743890518
2.3088954056695994
2.259042033235582
2.209188660801564
2.160312805474096
2.118279569892473
2.081133919843597
2.042033235581622
2.002932551319648
1.964809384164223
1.9286412512218964
1.8944281524926687
1.8592375366568916
1.825024437927664
1.790811339198436
1.7565982404692082
1.7243401759530792
1.696969696969697
1.6735092864125125
1.6471163245356797
1.619745845552297
1.5933528836754642
1.5669599217986314
1.541544477028348
1.5180840664711632
1.495601173020528
1.474095796676442
1.4535679374389052
1.434017595307918
1.414467253176931
1.3998044965786902
1.3870967741935485
1.3714565004887584
1.3558162267839686
1.3401759530791788
1.3235581622678396
1.3049853372434017
1.2864125122189638
1.2668621700879763
1.24633431085044
1.2238514173998043
1.2043010752688172
1.1945259042033236
1.1945259042033236
1.2052785923753666
1.2336265884652982
1.284457478005865
1.359726295210166
1.458455522971652
1.5747800586510263
1.7008797653958945
1.827956989247312
1.949169110459433
2.060606060606061
2.157380254154448
2.228739002932551
2.281524926686217
2.3284457478005867
2.364613880742913
2.3900293255131966
2.4056695992179864
2.410557184750733
2.406647116324536
2.393939393939394
2.372434017595308
2.3421309872922778
2.304985337243402
2.267839687194526
2.2297165200391005
2.185728250244379
2.1378299120234603
2.089931573802541
2.043010752688172
1.9990224828934504
1.9560117302052784
1.9159335288367547
1.8797653958944285
1.8455522971652003
1.8142717497556209
1.7869012707722385
1.7663734115347018
1.7497556207233629
1.732160312805474
1.7145650048875856
1.6979472140762464
1.683284457478006
1.6705767350928642
1.6588465298142718
1.6471163245356797
1.6373411534701858
1.629521016617791
1.6236559139784943
1.6256109481915937
1.632453567937439
1.635386119257087
1.6373411534701858
1.6383186705767352
1.6383186705767352
1.6373411534701858
1.6344086021505375
1.6314760508308896
1.6265884652981428
1.619745845552297
1.6099706744868034
1.598240469208211
1.5884652981427174
1.5777126099706744
1.560117302052786
1.541544477028348
1.5278592375366569
1.5268817204301075
1.547409579667644
1.598240469208211
1.6823069403714566
1.7996089931573802
1.9472140762463344
2.115347018572825
2.269794721407625
2.41544477028348
2.572825024437928
2.7262952101661777
2.866080156402737
2.98435972629521
3.081133919843597
3.158357771260997
3.2170087976539588
3.259042033235582
3.283479960899316
3.29227761485826
3.2844574780058653
3.2629521016617797
3.23069403714565
3.1867057673509285
3.132942326490713
3.071358748778104
3.0019550342130987
2.9286412512218964
2.855327468230694
2.7839687194525906
2.7155425219941347
2.652003910068426
2.591397849462365
2.5386119257087
2.4916911045943304
2.443792766373412
2.3978494623655915
2.35386119257087
2.310850439882698
2.2688172043010755
2.2277614858260018
2.188660801564027
2.1515151515151514
2.113391984359726
2.072336265884653
2.0303030303030303
1.997067448680352
1.967741935483871
1.9364613880742916
1.906158357771261
1.87683284457478
1.8504398826979471
1.826001955034213
1.801564027370479
1.7781036168132942
1.75366568914956
1.7302052785923754
1.7057673509286413
1.6871945259042034
1.6695992179863148
1.6471163245356797
1.6217008797653958
1.595307917888563
1.5679374389051808
1.5405669599217986
1.5112414467253177
1.482893450635386
1.4594330400782014
1.4467253176930597
1.4535679374389052
1.487781036168133
1.5405669599217986
1.616813294232649
1.7311827956989247
1.8758553274682308
2.042033235581622
2.218963831867057
2.393939393939394
2.558162267839687
2.7067448680351904
2.835777126099707
2.943304007820137
3.029325513196481
3.086021505376344
3.1221896383186705
3.1524926686217007
3.172043010752688
3.174975562072336
3.1652003910068425
3.1417399804496577
3.1055718475073317
3.0576735092864125
2.99902248289345
2.9335288367546437
2.86217008797654
2.7966764418377323
2.735092864125122
2.670576735092864
2.606060606060606
2.5434995112414467
2.482893450635386
2.426197458455523
2.3714565004887587
2.320625610948192
2.272727272727273
2.2277614858260018
2.185728250244379
2.146627565982405
2.113391984359726
2.0840664711632453
2.0527859237536656
2.0205278592375366
1.989247311827957
1.9560117302052784
1.9237536656891496
1.8914956011730208
1.8592375366568916
1.8299120234604105
1.801564027370479
1.7761485826001957
1.7565982404692082
1.739980449657869
1.7233626588465298
1.704789833822092
1.683284457478006
1.66177908113392
1.6412512218963833
1.6207233626588464
1.6001955034213098
1.5806451612903225
1.5581622678396871
1.5347018572825024
1.5102639296187683
1.4916911045943304
1.4750733137829912
1.455522971652004
1.4408602150537635
1.4418377321603129
1.4672531769305963
1.5249266862170088
1.6187683284457477
1.7458455522971652
1.902248289345064
2.0791788856304985
2.2639296187683287
2.4242424242424243
2.5650048875855327
2.710654936461388
2.8455522971652005
2.961876832844575
3.058651026392962
3.136852394916911
3.196480938416422
3.2385141739980448
3.2629521016617797
3.269794721407625
3.26197458455523
3.2404692082111435
3.2082111436950145
3.1681329423264906
3.118279569892473
3.060606060606061
2.9960899315738025
2.9266862170087977
2.8563049853372435
