ppg
2.0254154447702835
1.994134897360704
1.962854349951124
1.932551319648094
1.9042033235581624
1.8758553274682308
1.8484848484848484
1.8211143695014664
1.7956989247311828
1.7712609970674489
1.7517106549364614
1.737047898338221
1.7204301075268815
1.7038123167155426
1.6881720430107527
1.6735092864125125
1.6588465298142718
1.6451612903225807
1.6334310850439884
1.6226783968719452
1.611925708699902
1.6011730205278591
1.590420332355816
1.5835777126099706
1.5786901270772238
1.5708699902248289
1.5620723362658846
1.552297165200391
1.541544477028348
1.5288367546432062
1.5131964809384164
1.4965786901270772
1.4809384164222874
1.466275659824047
1.4535679374389052
1.447702834799609
1.444770283479961
1.4408602150537635
1.4418377321603129
1.4506353861192571
1.4731182795698925
1.5102639296187683
1.5669599217986314
1.6441837732160314
1.7409579667644184
1.8533724340175952
1.9794721407624636
2.113391984359726
2.232649071358749
2.343108504398827
2.464320625610948
2.5865102639296187
2.701857282502444
2.806451612903226
2.9012707722385143
2.9853372434017595
3.060606060606061
3.1251221896383186
3.1808406647116323
3.2277614858260018
3.257086999022483
3.2766373411534704
3.297165200391007
3.3167155425219943
3.332355816226784
3.343108504398827
3.3489736070381237
3.347996089931574
3.3411534701857284
3.326490713587488
3.304007820136853
3.274682306940372
3.239491691104594
3.19941348973607
3.15347018572825
3.102639296187683
3.04594330400782
2.9853372434017595
2.924731182795699
2.8641251221896384
2.801564027370479
2.740957966764418
2.684261974584555
2.6295210166177907
2.579667644183773
2.5376344086021505
2.498533724340176
2.4594330400782014
2.421309872922776
2.3841642228739004
2.347996089931574
2.312805474095797
2.27761485826002
2.244379276637341
2.2111436950146626
2.176930596285435
2.142717497556207
2.112414467253177
2.085043988269794
2.053763440860215
2.021505376344086
1.9902248289345064
1.959921798631476
1.9305962854349952
1.903225806451613
1.7878787878787878
1.6304985337243405
1.5386119257087
1.4819159335288368
1.444770283479961
1.4203323558162269
1.401759530791789
1.383186705767351
1.3655913978494625
1.348973607038123
1.3343108504398826
1.3196480938416422
1.305962854349951
1.29227761485826
1.2795698924731185
1.2688172043010753
1.2580645161290325
1.2502443792766371
1.2443792766373412
1.2365591397849462
1.227761485826002
1.2179863147605083
1.2082111436950147
1.198435972629521
1.1886608015640274
1.176930596285435
1.163245356793744
1.1485826001955035
1.1348973607038124
1.1231671554252198
1.1163245356793745
1.1124144672531768
1.10752688172043
1.1036168132942326
1.1065493646138806
1.1192570869990224
1.144672531769306
1.1857282502443791
1.2453567937438903
1.3235581622678396
1.4193548387096775
1.5288367546432062
1.6304985337243405
1.7302052785923754
1.8465298142717497
1.9687194525904204
2.0879765395894427
2.201368523949169
2.304985337243402
2.3978494623655915
2.4789833822091887
2.548387096774193
2.6050830889540566
2.6510263929618767
2.6881720430107525
2.710654936461388
2.724340175953079
2.736070381231672
2.744868035190616
2.7517106549364616
2.752688172043011
2.748778103616813
2.73802541544477
2.721407624633431
2.699902248289345
2.6715542521994133
2.638318670576735
2.6021505376344085
2.5620723362658846
2.517106549364614
2.4672531769305963
2.4144672531769307
2.360703812316716
2.30791788856305
2.2561094819159337
2.2052785923753664
2.156402737047898
2.1114369501466275
2.0684261974584555
2.027370478983382
1.992179863147605
1.9618768328445748
1.9296187683284456
1.8983382209188664
1.868035190615836
1.8377321603128052
1.8074291300097751
1.7781036168132942
1.7497556207233629
1.7204301075268815
1.6901270772238517
1.6588465298142718
1.632453567937439
1.6080156402737047
1.5806451612903225
1.5532746823069403
1.525904203323558
1.498533724340176
1.4721407624633431
1.4467253176930597
1.4222873900293256
1.3988269794721409
1.375366568914956
1.3519061583577712
1.3304007820136852
1.313782991202346
1.2991202346041055
1.2834799608993157
1.2668621700879763
1.2502443792766371
1.2365591397849462
1.224828934506354
1.2130987292277615
1.2023460410557183
1.1925708699902249
1.1837732160312806
1.1759530791788857
1.1720430107526882
1.1700879765395895
1.166177908113392
1.1612903225806452
1.1544477028347997
1.1456500488758554
1.1368523949169111
1.1270772238514175
1.1163245356793745
1.104594330400782
1.0918866080156402
1.0762463343108504
1.0586510263929618
1.0449657869012707
1.0332355816226784
1.0205278592375366
1.007820136852395
0.997067448680352
0.9921798631476052
0.9960899315738024
1.0127077223851415
1.0449657869012707
1.093841642228739
1.1593352883675463
1.2404692082111437
1.321603128054741
1.4056695992179864
1.5053763440860215
1.6129032258064515
1.7223851417399805
1.8299120234604105
1.9315738025415443
2.0234604105571847
2.104594330400782
2.172043010752688
2.225806451612903
2.2668621700879767
2.2981427174975564
2.315738025415445
2.32355816226784
2.326490713587488
2.32355816226784
2.313782991202346
2.2981427174975564
2.278592375366569
2.254154447702835
2.225806451612903
2.1915933528836757
2.15347018572825
2.1114369501466275
2.071358748778104
2.0303030303030303
1.9824046920821117
1.9315738025415443
1.8797653958944285
1.827956989247312
1.7781036168132942
1.732160312805474
1.6901270772238517
1.651026392961877
1.6129032258064515
1.5757575757575757
1.542521994134897
1.5161290322580645
1.4936461388074291
1.4701857282502444
1.4457478005865103
1.4222873900293256
1.3978494623655917
1.3714565004887584
1.346041055718475
1.321603128054741
1.2961876832844574
1.2697947214076246
1.2443792766373412
1.224828934506354
1.2082111436950147
1.1886608015640274
1.166177908113392
1.1436950146627567
1.1231671554252198
1.104594330400782
1.086021505376344
1.0684261974584557
1.0527859237536656
1.0381231671554252
1.0254154447702837
1.0175953079178883
1.013685239491691
1.0068426197458455
0.9990224828934506
0.9921798631476052
0.9872922776148584
0.9824046920821116
0.978494623655914
0.9745845552297164
0.9726295210166178
0.9726295210166178
0.9736070381231672
0.975562072336266
0.9794721407624634
0.9853372434017597
0.9882697947214076
0.9921798631476052
0.9951124144672532
0.9990224828934506
1.0019550342130987
1.0058651026392962
1.0087976539589445
1.0117302052785924
1.0127077223851415
1.013685239491691
1.0156402737047898
1.0166177908113392
1.0146627565982405
1.013685239491691
1.013685239491691
1.013685239491691
1.0166177908113392
1.024437927663734
1.0420332355816226
1.072336265884653
1.1163245356793745
1.1749755620723363
1.2482893450635386
1.324535679374389
1.4066471163245358
1.5053763440860215
1.6138807429130009
1.726295210166178
1.8387096774193548
1.946236559139785
2.0449657869012707
2.131964809384164
2.206256109481916
2.2688172043010755
2.318670576735093
2.3499511241446727
2.36950146627566
2.432062561094819
2.5112414467253177
2.5425219941348973
2.547409579667644
2.533724340175953
2.5083088954056696
2.4750733137829912
2.4359726295210167
2.3900293255131966
2.3411534701857284
2.289345063538612
2.2404692082111435
2.193548387096774
2.142717497556207
2.090909090909091
2.042033235581622
1.997067448680352
1.95405669599218
1.9120234604105573
1.873900293255132
1.839687194525904
1.8074291300097751
1.780058651026393
1.7595307917888563
1.7429130009775171
1.7243401759530792
1.7038123167155426
1.6823069403714566
1.6598240469208212
1.6373411534701858
1.611925708699902
1.585532746823069
1.5591397849462365
1.5327468230694037
1.5063538611925709
1.479960899315738
1.457478005865103
1.4349951124144673
1.4086021505376345
1.380254154447703
1.3509286412512218
1.3225806451612905
1.295210166177908
1.267839687194526
1.2404692082111437
1.2140762463343109
1.1886608015640274
1.164222873900293
1.1456500488758554
1.1300097751710656
1.110459433040078
1.088954056695992
1.0684261974584557
1.0478983382209188
1.029325513196481
1.013685239491691
1.0
0.9872922776148584
0.975562072336266
0.9657869012707724
0.9579667644183774
0.95405669599218
0.9530791788856304
0.9511241446725318
0.9481915933528836
0.9452590420332356
0.9442815249266864
0.9433040078201368
0.9433040078201368
0.9433040078201368
0.9433040078201368
0.9433040078201368
0.9442815249266864
0.9491691104594332
0.956989247311828
0.9628543499511242
0.9716520039100685
0.9872922776148584
1.0127077223851415
1.0488758553274682
1.1006842619745845
1.1710654936461389
1.2609970674486803
1.3685239491691104
1.4926686217008798
1.632453567937439
1.7624633431085044
1.8866080156402736
2.026392961876833
2.1700879765395893
2.3118279569892475
2.443792766373412
2.5640273704789838
2.670576735092864
2.7624633431085046
2.8406647116324537
2.9042033235581624
2.9550342130987293
2.988269794721408
3.0097751710654936
3.029325513196481
3.0439882697947214
3.0527859237536656
3.056695992179863
3.0547409579667644
3.047898338220919
3.0361681329423265
3.018572825024438
2.9931573802541545
2.961876832844575
2.924731182795699
2.8826979472140764
2.8377321603128056
2.7869012707722387
2.732160312805474
2.67644183773216
2.6207233626588464
2.565982404692082
2.5131964809384164
2.463343108504399
2.4164222873900294
2.372434017595308
2.329423264907136
2.290322580645161
2.2561094819159337
2.2218963831867056
2.187683284457478
2.1544477028347995
2.1221896383186705
2.090909090909091
2.060606060606061
2.029325513196481
1.9960899315738023
1.962854349951124
1.9286412512218964
1.8944281524926687
1.865102639296188
1.835777126099707
1.8035190615835777
1.7712609970674489
1.7390029325513197
1.7067448680351909
1.6764418377321604
1.6490713587487782
1.6217008797653958
1.595307917888563
1.56891495601173
1.542521994134897
1.521994134897361
1.5034213098729228
1.482893450635386
1.4604105571847508
1.4379276637341154
1.4164222873900294
1.3958944281524928
1.3773216031280548
1.3577712609970674
1.3401759530791788
1.3235581622678396
1.3079178885630498
1.2961876832844574
1.2873900293255132
1.278592375366569
1.2697947214076246
1.2619745845552297
1.2531769305962854
1.2434017595307918
1.2326490713587488
1.2218963831867058
1.2101661779081134
1.1974584555229717
1.18475073313783
1.1720430107526882
1.163245356793744
1.1573802541544478
1.1505376344086022
1.1466275659824048
1.1495601173020529
1.163245356793744
1.1925708699902249
1.241446725317693
1.310850439882698
1.4027370478983383
1.5151515151515151
1.6441837732160314
1.7653958944281525
1.8856304985337244
2.026392961876833
2.174975562072336
2.324535679374389
2.4682306940371457
2.603128054740958
2.7262952101661777
2.835777126099707
2.9315738025415445
3.013685239491691
3.083088954056696
3.1417399804496577
3.1808406647116323
3.207233626588465
3.236559139784946
3.2639296187683287
3.2854349951124147
3.300097751710655
3.3088954056695994
3.310850439882698
3.3059628543499517
3.294232649071359
3.278592375366569
3.2561094819159337
3.2248289345063537
3.1867057673509285
3.1417399804496577
3.089931573802541
3.032258064516129
2.967741935483871
2.897360703812317
2.8240469208211145
2.750733137829912
2.678396871945259
2.6099706744868034
2.5464320625610948
2.486803519061584
2.434017595307918
2.3870967741935485
2.3411534701857284
2.2961876832844577
2.2531769305962857
2.2130987292277613
2.1739980449657867
2.134897360703812
2.0987292277614857
2.0625610948191597
2.026392961876833
1.991202346041056
1.9608993157380252
1.9296187683284456
1.8944281524926687
1.858260019550342
1.8211143695014664
1.7849462365591398
1.7497556207233629
1.7145650048875856
1.6823069403714566
1.6520039100684265
1.6217008797653958
1.5913978494623655
1.5620723362658846
1.5395894428152492
1.521016617790811
1.499511241446725
1.47702834799609
1.455522971652004
1.434017595307918
1.4134897360703813
1.393939393939394
1.375366568914956
1.356793743890518
1.3411534701857282
1.327468230694037
1.3176930596285434
1.3088954056695992
1.2991202346041055
1.2903225806451613
1.2825024437927663
1.273704789833822
1.2639296187683284
1.2541544477028348
1.2453567937438903
1.2355816226783969
1.2258064516129032
1.2150537634408602
1.203323558162268
1.195503421309873
1.1886608015640274
1.1798631476050832
1.1720430107526882
1.166177908113392
1.166177908113392
1.1759530791788857
1.1994134897360704
1.2394916911045943
1.2981427174975562
1.3734115347018572
1.4652981427174976
1.555229716520039
1.6471163245356797
1.7556207233626588
1.8729227761485825
1.9931573802541545
2.1114369501466275
2.2238514173998043
2.326490713587488
2.420332355816227
2.5034213098729228
2.5747800586510263
2.634408602150537
2.6832844574780057
2.716520039100684
2.73802541544477
2.758553274682307
2.7751710654936463
2.788856304985337
2.798631476050831
2.803519061583578
2.803519061583578
2.7976539589442817
2.7859237536656893
2.76930596285435
2.7468230694037143
2.718475073313783
2.686217008797654
2.6480938416422286
2.6050830889540566
2.5591397849462365
2.5102639296187683
2.458455522971652
2.404692082111437
2.3499511241446727
2.2981427174975564
2.249266862170088
2.203323558162268
2.160312805474096
2.12316715542522
2.090909090909091
2.0576735092864125
2.026392961876833
1.9951124144672527
1.964809384164223
1.9345063538611929
1.905180840664712
1.8758553274682308
1.847507331378299
1.8191593352883677
1.7917888563049853
1.7673509286412512
1.7429130009775171
1.715542521994135
1.6881720430107527
1.6598240469208212
1.632453567937439
1.606060606060606
1.581622678396872
1.5581622678396871
1.533724340175953
1.5102639296187683
1.487781036168133
1.4652981427174976
1.4467253176930597
1.4301075268817205
1.4115347018572826
1.392961876832845
1.3743890518084063
1.3558162267839686
1.3391984359726294
1.321603128054741
1.305962854349951
1.2932551319648091
1.281524926686217
1.2717497556207231
1.2649071358748778
1.260019550342131
1.252199413489736
1.2443792766373412
1.2355816226783969
1.2258064516129032
1.2160312805474096
1.206256109481916
1.1974584555229717
1.1867057673509287
1.1749755620723363
1.163245356793744
1.1505376344086022
1.141739980449658
1.1348973607038124
1.1251221896383188
1.1143695014662756
1.1036168132942326
1.096774193548387
1.0957966764418376
1.1036168132942326
1.1231671554252198
1.1573802541544478
1.2082111436950147
1.2756598240469208
1.3470185728250244
1.4252199413489737
1.521994134897361
1.629521016617791
1.7438905180840665
1.8602150537634408
1.9745845552297163
2.083088954056696
2.182795698924731
2.271749755620724
2.3489736070381237
2.4144672531769307
2.4604105571847508
2.49266862170088
2.52297165200391
2.5464320625610948
2.5610948191593352
2.567937438905181
2.56891495601173
2.5650048875855327
2.555229716520039
2.539589442815249
2.5180840664711632
2.4916911045943304
2.4604105571847508
2.4281524926686218
2.3929618768328447
2.3519061583577714
2.3069403714565007
2.259042033235582
2.209188660801564
2.158357771260997
2.10850439882698
2.059628543499511
2.0127077223851417
1.9687194525904204
1.9257086999022484
1.8885630498533723
1.8533724340175952
1.8172043010752688
1.7810361681329423
1.7448680351906158
1.710654936461388
1.6774193548387095
1.643206256109482
1.608993157380254
1.5757575757575757
1.541544477028348
1.5063538611925709
1.4711632453567938
1.4418377321603129
1.4164222873900294
1.3870967741935485
1.3558162267839686
1.3235581622678396
1.2913000977517106
1.2590420332355816
1.2287390029325511
1.2013685239491692
1.173998044965787
1.1456500488758554
1.118279569892473
1.0977517106549364
1.0801564027370478
1.0586510263929618
1.0371456500488758
1.0156402737047898
0.997067448680352
0.981427174975562
0.9667644183773216
0.9530791788856304
0.9403714565004888
0.927663734115347
0.9149560117302052
0.9032258064516128
0.8963831867057673
0.8934506353861192
0.8905180840664711
0.8875855327468231
0.884652981427175
0.8807429130009775
0.8748778103616813
0.8680351906158358
0.8621700879765396
0.8572825024437928
0.8533724340175953
0.8494623655913979
0.8504398826979472
0.8543499511241447
0.855327468230694
0.8533724340175953
0.8514173998044966
0.8475073313782991
0.8435972629521017
0.8396871945259042
0.8387096774193549
0.8426197458455523
0.8543499511241447
0.8768328445747801
0.9130009775171064
0.956989247311828
1.010752688172043
1.0821114369501466
1.1700879765395895
1.2727272727272727
1.3861192570869991
1.504398826979472
1.624633431085044
1.7429130009775171
1.857282502443793
1.963831867057673
2.060606060606061
2.1358748778103616
2.196480938416422
2.2531769305962857
2.303030303030303
2.3440860215053765
2.375366568914956
2.3958944281524928
2.4086021505376345
2.412512218963832
2.409579667644184
2.40078201368524
2.386119257086999
2.366568914956012
2.345063538611926
2.320625610948192
2.3391984359726297
2.378299120234604
2.380254154447703
2.363636363636364
2.3382209188660803
2.3088954056695994
2.27761485826002
2.247311827956989
2.217986314760508
2.189638318670577
2.167155425219941
2.146627565982405
2.124144672531769
2.1006842619745845
2.0762463343108504
2.0527859237536656
2.0303030303030303
2.006842619745845
1.9824046920821117
1.956989247311828
1.9315738025415443
1.905180840664712
1.8807429130009776
1.8602150537634408
1.8416422287390029
1.818181818181818
1.7927663734115349
1.7673509286412512
1.739980449657869
1.7096774193548387
1.6793743890518085
1.6500488758553276
1.6207233626588464
1.5923753665689149
1.5650048875855327
1.543499511241447
1.5249266862170088
1.504398826979472
1.482893450635386
1.4623655913978495
1.4428152492668622
1.4213098729227762
1.4007820136852396
1.3822091886608017
1.3655913978494625
1.3509286412512218
1.3372434017595307
1.324535679374389
1.3157380254154447
1.3098729227761483
1.3040078201368523
1.2981427174975562
1.2913000977517106
1.2854349951124144
1.278592375366569
1.2717497556207231
1.2658846529814272
1.2619745845552297
1.2580645161290325
1.2531769305962854
1.2502443792766371
1.2473118279569892
1.2404692082111437
1.2297165200391007
1.2160312805474096
1.2013685239491692
1.187683284457478
1.1779081133919844
1.173998044965787
1.1808406647116323
1.2013685239491692
1.2365591397849462
1.2883675464320623
1.3479960899315735
1.4164222873900294
1.5024437927663734
1.6021505376344083
1.7086999022482894
1.8172043010752688
1.924731182795699
2.0283479960899315
2.1251221896383186
2.21505376344086
2.2961876832844577
2.366568914956012
2.418377321603128
2.4574780058651027
2.4946236559139785
2.5268817204301075
2.550342130987292
2.567937438905181
2.579667644183773
2.5865102639296187
2.589442815249267
2.587487781036168
2.5806451612903225
2.570869990224829
2.558162267839687
2.5425219941348973
2.52297165200391
2.4995112414467253
2.4731182795698925
2.443792766373412
2.4115347018572826
2.377321603128055
2.343108504398827
2.3088954056695994
2.275659824046921
2.2453567937438903
2.21505376344086
2.188660801564027
2.166177908113392
2.142717497556207
2.120234604105572
2.096774193548387
2.0733137829912023
2.050830889540567
2.029325513196481
2.006842619745845
1.9853372434017595
1.963831867057673
1.9413489736070384
1.919843597262952
1.8993157380254155
1.87683284457478
1.8523949169110456
1.8269794721407624
1.8005865102639296
1.7741935483870968
1.747800586510264
1.7223851417399805
1.696969696969697
1.672531769305963
1.6500488758553276
1.6304985337243405
1.6158357771260996
1.603128054740958
1.587487781036168
1.56891495601173
1.5503421309872922
1.533724340175953
1.5180840664711632
1.5034213098729228
1.490713587487781
1.478983382209189
1.4701857282502444
1.4633431085043989
1.4594330400782014
1.455522971652004
1.4506353861192571
1.4457478005865103
1.439882697947214
1.434017595307918
1.4301075268817205
1.4252199413489737
1.4203323558162269
1.41544477028348
1.409579667644184
1.4027370478983383
1.3958944281524928
1.391006842619746
1.3870967741935485
1.3812316715542523
1.3734115347018572
1.3655913978494625
1.3607038123167154
1.359726295210166
1.3626588465298142
1.3743890518084063
1.396871945259042
1.434017595307918
1.487781036168133
1.5493646138807429
1.6207233626588464
1.7135874877810362
1.822091886608016
1.943304007820137
2.0733137829912023
2.2052785923753664
2.335288367546432
2.4613880742913
2.5806451612903225
2.689149560117302
2.7859237536656893
2.8699902248289346
2.930596285434995
2.978494623655914
3.027370478983382
3.072336265884653
3.113391984359726
3.150537634408602
3.1818181818181817
3.207233626588465
3.2267839687194524
3.241446725317693
3.251221896383187
3.2561094819159337
3.2521994134897363
3.2404692082111435
3.225806451612903
3.207233626588465
3.182795698924731
3.1515151515151514
3.113391984359726
3.069403714565005
3.0195503421309877
2.963831867057673
2.903225806451613
2.8406647116324537
2.777126099706745
2.718475073313783
2.6637341153470184
2.606060606060606
2.549364613880743
2.496578690127077
2.447702834799609
2.4027370478983383
2.360703812316716
2.321603128054741
2.2854349951124147
2.2502443792766376
2.2140762463343107
2.1818181818181817
2.1515151515151514
2.118279569892473
2.0840664711632453
2.050830889540567
2.01564027370479
1.981427174975562
1.9472140762463344
1.9130009775171064
1.8778103616813293
1.8435972629521016
1.8103616813294232
1.7781036168132942
1.7526881720430108
1.7302052785923754
1.7038123167155426
1.678396871945259
1.653958944281525
1.6304985337243405
1.607038123167155
1.585532746823069
1.565982404692082
1.5503421309872922
1.5347018572825024
1.5180840664711632
1.5063538611925709
1.495601173020528
1.482893450635386
1.4711632453567938
1.4604105571847508
1.4496578690127078
1.439882697947214
1.4301075268817205
1.4203323558162269
1.3665689149560116
1.2903225806451613
1.2482893450635386
1.2218963831867058
1.2052785923753666
1.1945259042033236
1.1837732160312806
1.1720430107526882
1.160312805474096
1.1485826001955035
1.1378299120234605
1.1300097751710656
1.1280547409579669
1.1348973607038124
1.1515151515151516
1.181818181818182
1.2209188660801564
1.2717497556207231
1.3421309872922775
1.4301075268817205
1.5317693059628543
1.6441837732160314
1.7634408602150538
1.884652981427175
2.002932551319648
2.1163245356793743
2.222873900293255
2.3196480938416424
2.407624633431085
2.474095796676442
2.527859237536657
2.581622678396872
2.63049853372434
2.6725317693059627
2.70772238514174
2.7370478983382207
2.760508308895406
2.779081133919844
2.792766373411535
2.801564027370479
2.8044965786901277
2.798631476050831
2.7869012707722387
2.771260997067449
2.7517106549364616
2.727272727272727
2.699902248289345
2.667644183773216
2.63049853372434
2.587487781036168
2.539589442815249
2.487781036168133
2.432062561094819
2.375366568914956
2.324535679374389
2.2766373411534704
2.2267839687194524
2.176930596285435
2.1300097751710654
2.086021505376344
2.04594330400782
2.0087976539589443
1.9745845552297163
1.943304007820137
1.913978494623656
1.8866080156402736
1.8631476050830889
1.8406647116324533
1.81524926686217
1.7869012707722385
1.7575757575757576
1.7272727272727273
1.696969696969697
1.6686217008797657
1.640273704789834
1.6129032258064515
1.58455522971652
1.5571847507331378
1.533724340175953
1.5141739980449658
1.4916911045943304
1.469208211143695
1.4467253176930597
1.4252199413489737
1.4037145650048877
1.3841642228739004
1.364613880742913
1.346041055718475
1.327468230694037
1.310850439882698
1.2971652003910068
1.2883675464320623
1.2825024437927663
1.2746823069403714
1.2658846529814272
1.2570869990224829
1.249266862170088
1.241446725317693
1.2326490713587488
1.2238514173998043
1.2150537634408602
1.2052785923753666
1.1964809384164223
1.1896383186705768
1.1857282502443791
1.1808406647116323
1.173998044965787
1.1652003910068427
1.155425219941349
1.1436950146627567
1.1319648093841643
1.1202346041055715
1.1094819159335287
1.1036168132942326
1.1055718475073313
1.1173020527859236
1.1397849462365592
1.173998044965787
1.224828934506354
1.2903225806451613
1.3724340175953078
