ppg
1.0586510263929618
1.0547409579667644
1.0518084066471165
1.0498533724340176
1.0478983382209188
1.0469208211143697
1.04594330400782
1.0449657869012707
1.0449657869012707
1.0439882697947214
1.043010752688172
1.0449657869012707
1.0478983382209188
1.0498533724340176
1.0498533724340176
1.0498533724340176
1.0488758553274682
1.0478983382209188
1.0469208211143697
1.0449657869012707
1.043010752688172
1.040078201368524
1.0361681329423265
1.0361681329423265
1.040078201368524
1.0498533724340176
1.0713587487781036
1.1133919843597262
1.181818181818182
1.2834799608993157
1.418377321603128
1.5835777126099706
1.7702834799608993
1.9696969696969695
2.1681329423264906
2.355816226783969
2.5034213098729228
2.6207233626588464
2.7311827956989245
2.823069403714565
2.8944281524926687
2.9442815249266863
2.975562072336266
2.992179863147605
2.9960899315738025
2.989247311827957
2.975562072336266
2.956989247311828
2.932551319648094
2.905180840664712
2.87683284457478
2.8475073313782997
2.8152492668621703
2.779081133919844
2.7390029325513194
2.6940371456500487
2.644183773216031
2.587487781036168
2.525904203323558
2.4594330400782014
2.3900293255131966
2.326490713587488
2.2668621700879767
2.204301075268817
2.142717497556207
2.085043988269794
2.0332355816226784
1.988269794721408
1.949169110459433
1.913978494623656
1.881720430107527
1.8514173998044965
1.822091886608016
1.7956989247311828
1.7702834799608993
1.7419354838709675
1.7116324535679377
1.6803519061583578
1.6490713587487782
1.616813294232649
1.585532746823069
1.5542521994134897
1.52297165200391
1.490713587487781
1.4594330400782014
1.4281524926686218
1.4027370478983383
1.380254154447703
1.3548387096774193
1.3294232649071358
1.303030303030303
1.2776148582600195
1.252199413489736
1.2287390029325511
1.206256109481916
1.1857282502443791
1.166177908113392
1.147605083088954
1.1348973607038124
1.1251221896383188
1.1133919843597262
1.1016617790811338
1.0899315738025417
1.078201368523949
1.067448680351906
1.0576735092864125
1.0498533724340176
1.043010752688172
1.0361681329423265
1.029325513196481
1.0224828934506354
1.0205278592375366
1.0195503421309873
1.0175953079178883
1.0156402737047898
1.013685239491691
1.0117302052785924
1.0097751710654936
1.0087976539589445
1.007820136852395
1.0068426197458455
1.0058651026392962
1.0058651026392962
1.0087976539589445
1.0127077223851415
1.0146627565982405
1.0156402737047898
1.0156402737047898
1.0146627565982405
1.0146627565982405
1.0146627565982405
1.0146627565982405
1.0146627565982405
1.013685239491691
1.0127077223851415
1.010752688172043
1.010752688172043
1.013685239491691
1.0175953079178883
1.029325513196481
1.0557184750733135
1.104594330400782
1.1827956989247312
1.2942326490713587
1.4389051808406648
1.6109481915933528
1.8035190615835777
2.004887585532747
2.1788856304985336
2.3304007820136854
2.484848484848485
2.625610948191593
2.7438905180840663
2.8367546432062563
2.905180840664712
2.952101661779081
2.979472140762464
2.991202346041056
2.991202346041056
2.9804496578690127
2.963831867057673
2.940371456500489
2.913000977517106
2.884652981427175
2.854349951124145
2.8211143695014664
2.7859237536656893
2.7468230694037143
2.7038123167155423
2.654936461388074
2.601173020527859
2.541544477028348
2.4780058651026398
2.4173998044965788
2.357771260997068
2.294232649071359
2.2297165200391005
2.167155425219941
2.10850439882698
2.0557184750733137
2.007820136852395
1.9657869012707725
1.9296187683284456
1.8963831867057677
1.866080156402737
1.836754643206256
1.8113391984359728
1.7878787878787878
1.7605083088954057
1.7302052785923754
1.6989247311827955
1.6656891495601174
1.632453567937439
1.5992179863147604
1.565982404692082
1.5327468230694037
1.500488758553275
1.4682306940371457
1.4418377321603129
1.4173998044965788
1.3900293255131966
1.3626588465298142
1.335288367546432
1.3088954056695992
1.2834799608993157
1.2580645161290325
1.2336265884652982
1.2101661779081134
1.1886608015640274
1.1691104594330402
1.1505376344086022
1.1368523949169111
1.126099706744868
1.1124144672531768
1.0987292277614855
1.086021505376344
1.0733137829912025
1.06158357771261
1.050830889540567
1.0410557184750733
1.032258064516129
1.024437927663734
1.018572825024438
1.0166177908113392
1.0166177908113392
1.0146627565982405
1.0127077223851415
1.0097751710654936
1.007820136852395
1.0068426197458455
1.0058651026392962
1.0048875855327468
1.0048875855327468
1.0048875855327468
1.0058651026392962
1.0087976539589445
1.0127077223851415
1.0146627565982405
1.0156402737047898
1.0156402737047898
1.0156402737047898
1.0156402737047898
1.0156402737047898
1.0166177908113392
1.0166177908113392
1.0166177908113392
1.0166177908113392
1.0166177908113392
1.018572825024438
1.021505376344086
1.021505376344086
1.021505376344086
1.0263929618768328
1.043010752688172
1.0762463343108504
1.1348973607038124
1.2228739002932552
1.3421309872922775
1.4936461388074291
1.6705767350928642
1.835777126099707
1.994134897360704
2.1700879765395893
2.3440860215053765
2.501466275659824
2.636363636363636
2.744868035190616
2.8269794721407626
2.884652981427175
2.921798631476051
2.941348973607038
2.9472140762463344
2.9423264907135875
2.927663734115347
2.9071358748778104
2.8836754643206257
2.857282502443793
2.827956989247312
2.795698924731183
2.760508308895406
2.720430107526881
2.67644183773216
2.627565982404692
2.573802541544477
2.515151515151515
2.4574780058651027
2.40078201368524
2.3382209188660803
2.2737047898338223
2.2111436950146626
2.1524926686217007
2.0987292277614857
2.0518084066471163
2.0117302052785924
1.9775171065493649
1.9472140762463344
1.919843597262952
1.8944281524926687
1.871945259042033
1.8504398826979471
1.826001955034213
1.7996089931573802
1.772238514173998
1.7429130009775171
1.7135874877810362
1.6823069403714566
1.651026392961877
1.619745845552297
1.587487781036168
1.555229716520039
1.5278592375366569
1.5034213098729228
1.4760508308895406
1.447702834799609
1.4193548387096775
1.391006842619746
1.3636363636363635
1.3372434017595307
1.3118279569892473
1.2873900293255132
1.2639296187683284
1.241446725317693
1.219941348973607
1.2043010752688172
1.1925708699902249
1.1788856304985338
1.164222873900293
1.1495601173020529
1.1368523949169111
1.1251221896383188
1.1133919843597262
1.1026392961876832
1.0928641251221896
1.0850439882697946
1.078201368523949
1.0742913000977516
1.0733137829912025
1.0694037145650048
1.064516129032258
1.0606060606060606
1.056695992179863
1.053763440860215
1.050830889540567
1.0488758553274682
1.04594330400782
1.0439882697947214
1.0420332355816226
1.040078201368524
1.0410557184750733
1.0439882697947214
1.0449657869012707
1.04594330400782
1.04594330400782
1.0449657869012707
1.0439882697947214
1.043010752688172
1.0420332355816226
1.0410557184750733
1.0391006842619743
1.0371456500488758
1.0371456500488758
1.0381231671554252
1.0371456500488758
1.0371456500488758
1.0420332355816226
1.0576735092864125
1.0909090909090908
1.1495601173020529
1.2394916911045943
1.3626588465298142
1.5180840664711632
1.6989247311827955
1.895405669599218
2.069403714565005
2.2267839687194524
2.3919843597262958
2.5464320625610948
2.6803519061583576
2.788856304985337
2.8719452590420333
2.9315738025415445
2.9696969696969697
2.9902248289345064
2.997067448680352
2.9931573802541545
2.978494623655914
2.956989247311828
2.9335288367546437
2.90811339198436
2.8797653958944283
2.849462365591398
2.81622678396872
2.780058651026393
2.740957966764418
2.696969696969697
2.6480938416422286
2.5943304007820136
2.5347018572825024
2.4760508308895406
2.4164222873900294
2.3519061583577714
2.2844574780058653
2.217986314760508
2.1544477028347995
2.0957966764418376
2.0439882697947214
1.997067448680352
1.9560117302052784
1.919843597262952
1.8875855327468232
1.8602150537634408
1.8347996089931573
1.8074291300097751
1.7790811339198436
1.7497556207233629
1.7194525904203324
1.6881720430107527
1.656891495601173
1.624633431085044
1.5913978494623655
1.5591397849462365
1.5268817204301075
1.4946236559139785
1.4672531769305963
1.4428152492668622
1.4164222873900294
1.388074291300098
1.3607038123167154
1.3333333333333333
1.3069403714565004
1.2805474095796676
1.2551319648093842
1.23069403714565
1.2082111436950147
1.1867057673509287
1.1710654936461389
1.1593352883675463
1.144672531769306
1.1300097751710656
1.1163245356793745
1.1026392961876832
1.0899315738025417
1.0772238514173995
1.0654936461388074
1.0547409579667644
1.04594330400782
1.0381231671554252
1.0342130987292275
1.0332355816226784
1.0303030303030305
1.0263929618768328
1.0224828934506354
1.018572825024438
1.0146627565982405
1.0117302052785924
1.0087976539589445
1.0068426197458455
1.0048875855327468
1.0039100684261977
1.002932551319648
1.0048875855327468
1.007820136852395
1.0097751710654936
1.010752688172043
1.010752688172043
1.0097751710654936
1.0087976539589445
1.007820136852395
1.007820136852395
1.0068426197458455
1.0068426197458455
1.0068426197458455
1.0087976539589445
1.0117302052785924
1.0127077223851415
1.0117302052785924
1.010752688172043
1.010752688172043
1.0146627565982405
1.029325513196481
1.0606060606060606
1.1163245356793745
1.203323558162268
1.3235581622678396
1.4760508308895406
1.6275659824046922
1.782991202346041
1.9667644183773216
2.1593352883675463
2.345063538611926
2.512218963831867
2.654936461388074
2.7702834799608995
2.8582600195503423
2.920821114369501
2.961876832844575
2.98435972629521
2.988269794721408
2.9804496578690127
2.967741935483871
2.9501466275659824
2.927663734115347
2.902248289345064
2.873900293255132
2.841642228739003
2.806451612903226
2.7673509286412514
2.7253176930596283
2.678396871945259
2.627565982404692
2.575757575757576
2.52297165200391
2.4613880742913
2.393939393939394
2.3255131964809386
2.2580645161290325
2.193548387096774
2.131964809384164
2.0762463343108504
2.0254154447702835
1.9804496578690127
1.9403714565004888
1.9071358748778104
1.8778103616813293
1.8484848484848484
1.8201368523949168
1.790811339198436
1.7605083088954057
1.729227761485826
1.696969696969697
1.6637341153470186
1.6304985337243405
1.5972629521016617
1.563049853372434
1.5288367546432062
1.500488758553275
1.474095796676442
1.444770283479961
1.412512218963832
1.380254154447703
1.3499511241446724
1.3206256109481915
1.29227761485826
1.2649071358748778
1.238514173998045
1.2140762463343109
1.1906158357771262
1.1720430107526882
1.1573802541544478
1.1407624633431086
1.1241446725317692
1.10752688172043
1.0909090909090908
1.075268817204301
1.06158357771261
1.0488758553274682
1.0371456500488758
1.0254154447702837
1.0146627565982405
1.0048875855327468
1.0
0.997067448680352
0.9921798631476052
0.9872922776148584
0.9824046920821116
0.9794721407624634
0.9765395894428152
0.975562072336266
0.9736070381231672
0.9726295210166178
0.9716520039100685
0.9716520039100685
0.9736070381231672
0.9765395894428152
0.9775171065493646
0.978494623655914
0.978494623655914
0.978494623655914
0.978494623655914
0.978494623655914
0.978494623655914
0.978494623655914
0.978494623655914
0.978494623655914
0.9794721407624634
0.9824046920821116
0.9863147605083088
0.9882697947214076
0.989247311827957
0.989247311827957
0.9882697947214076
0.9872922776148584
0.9882697947214076
0.9951124144672532
1.0127077223851415
1.0498533724340176
1.1124144672531768
1.187683284457478
1.2834799608993157
1.418377321603128
1.58455522971652
1.772238514173998
1.9696969696969695
2.164222873900293
2.345063538611926
2.505376344086021
2.6392961876832843
2.7468230694037143
2.827956989247312
2.884652981427175
2.9149560117302054
2.927663734115347
2.932551319648094
2.9286412512218964
2.917888563049853
2.900293255131965
2.877810361681329
2.850439882697948
2.819159335288368
2.7839687194525906
2.744868035190616
2.702834799608993
2.659824046920821
2.613880742913001
2.5610948191593352
2.5024437927663734
2.439882697947214
2.3743890518084068
2.3069403714565007
2.241446725317693
2.1788856304985336
2.120234604105572
2.0684261974584555
2.022482893450636
1.9833822091886608
1.951124144672532
1.924731182795699
1.8983382209188664
1.873900293255132
1.8494623655913975
1.825024437927664
1.7996089931573802
1.7732160312805474
1.7458455522971652
1.7174975562072337
1.6871945259042034
1.656891495601173
1.629521016617791
1.6041055718475072
1.5757575757575757
1.5454545454545454
1.5141739980449658
1.482893450635386
1.4516129032258065
1.4213098729227762
1.3919843597262953
1.3636363636363635
1.335288367546432
1.3088954056695992
1.2825024437927663
1.2619745845552297
1.2453567937438903
1.2267839687194526
1.2072336265884651
1.1886608015640274
1.1700879765395895
1.1534701857282503
1.1378299120234605
1.1231671554252198
1.1085043988269794
1.0948191593352885
1.083088954056696
1.075268817204301
1.0703812316715542
1.0635386119257086
1.0557184750733135
1.0488758553274682
1.043010752688172
1.0371456500488758
1.032258064516129
1.0283479960899315
1.0254154447702837
1.0234604105571847
1.021505376344086
1.0224828934506354
1.024437927663734
1.024437927663734
1.0234604105571847
1.021505376344086
1.0195503421309873
1.0175953079178883
1.0166177908113392
1.0156402737047898
1.0146627565982405
1.0146627565982405
1.013685239491691
1.0127077223851415
1.0146627565982405
1.0175953079178883
1.0175953079178883
1.0166177908113392
1.0146627565982405
1.0127077223851415
1.0127077223851415
1.0195503421309873
1.0381231671554252
1.0762463343108504
1.1397849462365592
1.2346041055718475
1.3401759530791788
1.4623655913978495
1.6226783968719452
1.8074291300097751
2.003910068426197
2.198435972629521
2.3812316715542523
2.5425219941348973
2.677419354838709
2.78494623655914
2.8670576735092865
2.924731182795699
2.962854349951124
2.978494623655914
2.9804496578690127
2.9775171065493646
2.967741935483871
2.9530791788856305
2.9335288367546437
2.9100684261974585
2.8836754643206257
2.855327468230694
2.823069403714565
2.7869012707722387
2.745845552297165
2.702834799608993
2.656891495601173
2.6041055718475072
2.5454545454545454
2.4819159335288368
2.4144672531769307
2.346041055718475
2.278592375366569
2.2140762463343107
2.15347018572825
2.0987292277614857
2.0498533724340176
2.007820136852395
1.9736070381231672
1.9442815249266865
1.9149560117302051
1.8875855327468232
1.8602150537634408
1.8318670576735088
1.8035190615835777
1.7741935483870968
1.7438905180840665
1.7135874877810362
1.6842619745845553
1.653958944281525
1.6275659824046922
1.603128054740958
1.5757575757575757
1.547409579667644
1.5180840664711632
1.4887585532746823
1.458455522971652
1.4291300097751711
1.3998044965786902
1.3782991202346042
1.3607038123167154
1.3401759530791788
1.3186705767350928
1.3020527859237536
1.2873900293255132
1.270772238514174
1.2541544477028348
1.2375366568914956
1.2218963831867058
1.206256109481916
1.1915933528836755
1.1779081133919844
1.164222873900293
1.1515151515151516
1.1407624633431086
1.133919843597263
1.1300097751710656
1.1241446725317692
1.118279569892473
1.1133919843597262
1.1094819159335287
1.1055718475073313
1.1016617790811338
1.0987292277614855
1.0948191593352885
1.0918866080156402
1.0899315738025417
1.0879765395894427
1.088954056695992
1.0909090909090908
1.0918866080156402
1.0918866080156402
1.0918866080156402
1.0918866080156402
1.0918866080156402
1.0918866080156402
1.0918866080156402
1.0909090909090908
1.0899315738025417
1.088954056695992
1.0909090909090908
1.093841642228739
1.093841642228739
1.0928641251221896
1.0909090909090908
1.088954056695992
1.0899315738025417
1.0977517106549364
1.118279569892473
1.1593352883675463
1.227761485826002
1.3264907135874875
1.456500488758553
1.590420332355816
1.7311827956989247
1.902248289345064
2.086021505376344
2.2668621700879767
2.4359726295210167
2.58455522971652
2.70772238514174
2.8054740957966766
2.8797653958944283
2.932551319648094
2.9657869012707723
2.979472140762464
2.979472140762464
2.9745845552297165
2.963831867057673
2.9472140762463344
2.9257086999022484
2.8993157380254155
2.868035190615836
2.832844574780059
2.793743890518084
2.748778103616813
2.6989247311827955
2.644183773216031
2.590420332355816
2.5347018572825024
2.4731182795698925
2.407624633431085
2.3411534701857284
2.2766373411534704
2.2160312805474094
2.160312805474096
2.110459433040078
2.0664711632453567
2.029325513196481
1.997067448680352
1.970674486803519
1.948191593352884
1.9257086999022484
1.903225806451613
1.8797653958944285
1.8563049853372435
1.83088954056696
1.804496578690127
1.775171065493646
1.7448680351906158
1.7135874877810362
1.6823069403714566
1.651026392961877
1.6226783968719452
1.5972629521016617
1.56891495601173
1.5395894428152492
1.5102639296187683
1.4819159335288368
1.4535679374389052
1.426197458455523
1.4007820136852396
1.3763440860215057
1.3528836754643203
1.3304007820136852
1.3128054740957966
1.2991202346041055
1.2834799608993157
1.267839687194526
1.252199413489736
1.2365591397849462
1.2228739002932552
1.2101661779081134
1.198435972629521
1.187683284457478
1.1788856304985338
1.1700879765395895
1.1652003910068427
1.1622678396871946
1.1583577712609971
1.1544477028347997
1.1505376344086022
1.147605083088954
1.144672531769306
1.142717497556207
1.141739980449658
1.1407624633431086
1.1407624633431086
1.141739980449658
1.144672531769306
1.1495601173020529
1.1564027370478984
1.164222873900293
1.1720430107526882
1.1808406647116323
1.1896383186705768
1.1994134897360704
1.2101661779081134
1.2209188660801564
1.2316715542521994
1.241446725317693
1.252199413489736
1.2649071358748778
1.2825024437927663
1.310850439882698
1.3577712609970674
1.4281524926686218
1.525904203323558
1.6520039100684265
1.804496578690127
1.975562072336266
2.156402737047898
2.337243401759531
2.5083088954056696
2.662756598240469
2.780058651026393
2.8690127077223853
2.952101661779081
3.0234604105571847
3.0821114369501466
3.129032258064516
3.164222873900293
3.187683284457478
3.201368523949169
3.206256109481916
3.201368523949169
3.187683284457478
3.1652003910068425
3.133919843597263
3.0977517106549364
3.0547409579667644
3.003910068426197
2.946236559139785
2.8797653958944283
2.8044965786901277
2.721407624633431
2.632453567937439
2.539589442815249
2.443792766373412
2.3489736070381237
2.264907135874878
2.187683284457478
2.1055718475073317
2.0234604105571847
1.9423264907135875
1.8641251221896384
1.7898338220918866
1.7174975562072337
1.6480938416422288
1.5796676441837731
1.5112414467253177
1.4408602150537635
1.3782991202346042
1.3186705767350928
1.2502443792766371
1.176930596285435
1.1016617790811338
1.0283479960899315
0.959921798631476
0.8973607038123167
0.8435972629521017
0.7986314760508308
0.7634408602150538
0.7380254154447703
0.7223851417399805
0.718475073313783
0.7243401759530792
0.7380254154447703
0.7595307917888563
0.7917888563049853
0.833822091886608
0.8866080156402737
0.9491691104594332
1.018572825024438
1.093841642228739
1.1730205278592376
1.2531769305962854
1.324535679374389
1.3919843597262953
1.4672531769305963
1.547409579667644
1.6334310850439884
1.7243401759530792
1.8191593352883677
1.9159335288367547
2.013685239491691
2.1114369501466275
2.209188660801564
2.3088954056695994
2.4134897360703813
2.504398826979472
2.591397849462365
2.6940371456500487
2.80058651026393
2.902248289345064
2.989247311827957
3.0557184750733137
3.096774193548387
3.113391984359726
3.10850439882698
3.085043988269794
3.048875855327468
3.005865102639296
2.9579667644183774
2.9042033235581624
2.8152492668621703
2.708699902248289
2.6265884652981426
2.557184750733138
2.496578690127077
2.444770283479961
2.4056695992179864
2.3841642228739004
2.3851417399804498
2.410557184750733
2.4457478005865103
2.49266862170088
2.5640273704789838
2.6480938416422286
2.7370478983382207
2.822091886608016
2.8963831867057674
2.956989247311828
3.0019550342130987
3.0303030303030303
3.0439882697947214
3.0439882697947214
3.032258064516129
3.010752688172043
2.9853372434017595
2.9550342130987293
2.919843597262952
2.881720430107527
2.8406647116324537
2.7966764418377323
2.750733137829912
2.702834799608993
2.6529814271749754
2.601173020527859
2.547409579667644
2.4975562072336266
2.4486803519061584
2.396871945259042
2.3440860215053765
2.2932551319648096
2.2453567937438903
2.201368523949169
2.163245356793744
2.129032258064516
2.099706744868035
2.0733137829912023
2.0498533724340176
2.0303030303030303
2.0117302052785924
1.992179863147605
1.9716520039100685
1.9501466275659824
1.9266862170087975
1.902248289345064
1.8758553274682308
1.847507331378299
1.8172043010752688
1.7869012707722385
1.7546432062561097
1.7223851417399805
1.6930596285434996
1.6666666666666667
1.6363636363636365
1.6050830889540566
1.5728250244379276
1.5395894428152492
1.5063538611925709
1.4731182795698925
1.439882697947214
1.4066471163245358
1.3743890518084063
1.3450635386119256
1.3225806451612905
1.305962854349951
1.289345063538612
1.2746823069403714
1.262952101661779
1.2541544477028348
1.2482893450635386
1.2443792766373412
1.2424242424242424
1.241446725317693
1.2404692082111437
1.2394916911045943
1.2375366568914956
1.2375366568914956
1.2375366568914956
1.2336265884652982
1.227761485826002
1.2209188660801564
1.2140762463343109
1.206256109481916
1.198435972629521
1.1915933528836755
1.1857282502443791
1.181818181818182
1.1788856304985338
1.1808406647116323
1.18475073313783
1.187683284457478
1.1896383186705768
1.1896383186705768
1.1886608015640274
1.1857282502443791
1.181818181818182
1.176930596285435
1.173998044965787
1.1730205278592376
1.173998044965787
1.1779081133919844
1.1837732160312806
1.1886608015640274
1.1915933528836755
1.1935483870967742
1.1935483870967742
1.1925708699902249
1.1915933528836755
1.1945259042033236
1.2052785923753666
1.227761485826002
1.2668621700879763
1.3264907135874875
1.392961876832845
1.4701857282502444
1.5698924731182795
1.6852394916911049
1.8064516129032255
1.927663734115347
2.0410557184750733
2.1407624633431084
2.2238514173998043
2.2883675464320627
2.334310850439883
2.360703812316716
2.3704789833822093
2.366568914956012
2.3519061583577714
2.3274682306940373
2.294232649071359
2.254154447702835
2.2082111436950145
2.158357771260997
2.104594330400782
2.048875855327468
1.992179863147605
1.9364613880742916
1.881720430107527
1.8347996089931573
1.7947214076246334
1.75366568914956
1.7135874877810362
1.678396871945259
1.6480938416422288
1.6236559139784943
1.6050830889540566
1.5913978494623655
1.581622678396872
1.5747800586510263
1.5698924731182795
1.5669599217986314
1.5650048875855327
1.5610948191593352
1.5562072336265884
1.5503421309872922
1.543499511241447
1.5356793743890518
1.5268817204301075
1.5180840664711632
1.509286412512219
1.499511241446725
1.4897360703812317
1.478983382209189
1.4711632453567938
1.4633431085043989
1.4535679374389052
1.4418377321603129
1.4281524926686218
1.414467253176931
1.4007820136852396
1.388074291300098
1.3763440860215057
1.364613880742913
1.35386119257087
1.343108504398827
1.335288367546432
1.3284457478005864
1.3196480938416422
1.3088954056695992
1.2971652003910068
1.2854349951124144
1.2756598240469208
1.2668621700879763
1.260019550342131
1.2541544477028348
1.249266862170088
1.2443792766373412
1.2394916911045943
1.2365591397849462
1.2346041055718475
1.2287390029325511
1.2209188660801564
1.2121212121212122
1.203323558162268
1.1945259042033236
1.1857282502443791
1.1779081133919844
1.1720430107526882
1.1671554252199414
1.164222873900293
1.1652003910068427
1.1681329423264908
1.1691104594330402
1.1700879765395895
1.1710654936461389
1.1730205278592376
1.173998044965787
1.1749755620723363
1.176930596285435
1.1788856304985338
1.1798631476050832
1.1808406647116323
1.1808406647116323
1.1827956989247312
1.1837732160312806
1.181818181818182
1.1788856304985338
