ppg
1.796676441837732
1.761485826001955
1.7243401759530792
1.686217008797654
1.6451612903225807
1.6011730205278591
1.552297165200391
1.5083088954056696
1.4652981427174976
1.4105571847507332
1.3499511241446724
1.2864125122189638
1.2209188660801564
1.1544477028347997
1.0879765395894427
1.0234604105571847
0.9618768328445748
0.9042033235581622
0.8514173998044966
0.8054740957966764
0.7741935483870968
0.7526881720430108
0.7272727272727273
0.7018572825024438
0.6774193548387096
0.6539589442815249
0.6314760508308895
0.6109481915933529
0.5933528836754643
0.5796676441837733
0.5698924731182796
0.5659824046920822
0.5718475073313783
0.5835777126099707
0.5962854349951124
0.6089931573802542
0.6236559139784946
0.6383186705767351
0.6539589442815249
0.6715542521994134
0.6940371456500489
0.7272727272727273
0.7800586510263929
0.8602150537634409
0.9550342130987292
1.072336265884653
1.2297165200391007
1.4173998044965788
1.6207233626588464
1.823069403714565
2.0097751710654936
2.1700879765395893
2.300097751710655
2.40078201368524
2.4760508308895406
2.533724340175953
2.578690127077224
2.6099706744868034
2.632453567937439
2.653958944281525
2.6715542521994133
2.6832844574780057
2.687194525904203
2.6823069403714563
2.667644183773216
2.644183773216031
2.613880742913001
2.576735092864125
2.5347018572825024
2.4946236559139785
2.4565004887585533
2.41544477028348
2.3743890518084068
2.334310850439883
2.2932551319648096
2.2521994134897363
2.209188660801564
2.1652003910068425
2.118279569892473
2.069403714565005
2.018572825024438
1.9657869012707725
1.919843597262952
1.878787878787879
1.833822091886608
1.7878787878787878
1.7438905180840665
1.7028347996089932
1.664711632453568
1.629521016617791
1.5962854349951123
1.565982404692082
1.5376344086021505
1.512218963831867
1.4946236559139785
1.4809384164222874
1.4652981427174976
1.4486803519061584
1.4330400782013686
1.4173998044965788
1.401759530791789
1.3861192570869991
1.370478983382209
1.3548387096774193
1.3401759530791788
1.327468230694037
1.3157380254154447
1.3098729227761483
1.3079178885630498
1.3049853372434017
1.3020527859237536
1.300097751710655
1.2991202346041055
1.2981427174975562
1.2971652003910068
1.2961876832844574
1.295210166177908
1.2942326490713587
1.295210166177908
1.2991202346041055
1.305962854349951
1.3147605083088951
1.3264907135874875
1.3421309872922775
1.3636363636363635
1.3900293255131966
1.4222873900293256
1.4604105571847508
1.5024437927663734
1.547409579667644
1.5933528836754642
1.6392961876832846
1.6803519061583578
1.7174975562072337
1.7556207233626588
1.7917888563049853
1.826001955034213
1.855327468230694
1.8807429130009776
1.900293255131965
1.9149560117302051
1.924731182795699
1.9305962854349952
1.932551319648094
1.9315738025415443
2.0019550342130987
2.1065493646138806
2.156402737047898
2.1788856304985336
2.188660801564027
2.1925708699902247
2.193548387096774
2.193548387096774
2.193548387096774
2.1925708699902247
2.1915933528836757
2.189638318670577
2.189638318670577
2.190615835777126
2.1925708699902247
2.1974584555229715
2.204301075268817
2.2140762463343107
2.2238514173998043
2.233626588465298
2.241446725317693
2.247311827956989
2.251221896383187
2.2531769305962857
2.254154447702835
2.2551319648093844
2.2551319648093844
2.2551319648093844
2.2561094819159337
2.2561094819159337
2.2561094819159337
2.254154447702835
2.2502443792766376
2.244379276637341
2.2355816226783967
2.225806451612903
2.21505376344086
2.206256109481916
2.198435972629521
2.1915933528836757
2.185728250244379
2.1808406647116323
2.177908113391984
2.1788856304985336
2.1837732160312804
2.1955034213098727
2.2170087976539588
2.251221896383187
2.3010752688172045
2.355816226783969
2.420332355816227
2.509286412512219
2.6158357771261
2.7331378299120237
2.852394916911046
2.9667644183773216
3.0684261974584555
3.1544477028347995
3.222873900293255
3.2737047898338223
3.3098729227761488
3.334310850439883
3.346041055718475
3.3489736070381237
3.350928641251222
3.3499511241446727
3.345063538611926
3.3362658846529816
3.3225806451612905
3.304007820136853
3.2795698924731185
3.2502443792766376
3.2160312805474094
3.177908113391984
3.139784946236559
3.1006842619745845
3.058651026392962
3.0146627565982405
2.970674486803519
2.9266862170087977
2.8836754643206257
2.841642228739003
2.80058651026393
2.7595307917888565
2.717497556207233
2.67644183773216
2.636363636363636
2.601173020527859
2.5698924731182795
2.539589442815249
2.5131964809384164
2.490713587487781
2.472140762463343
2.455522971652004
2.441837732160313
2.4281524926686218
2.4144672531769307
2.398826979472141
2.3822091886608017
2.367546432062561
2.3528836754643208
2.337243401759531
2.321603128054741
2.3069403714565007
2.294232649071359
2.283479960899316
2.274682306940372
2.2688172043010755
2.2629521016617797
2.2580645161290325
2.2521994134897363
2.2453567937438903
2.2375366568914954
2.2297165200391005
2.219941348973607
2.2082111436950145
2.196480938416422
2.185728250244379
2.177908113391984
2.176930596285435
2.185728250244379
2.206256109481916
2.2404692082111435
2.2883675464320627
2.340175953079179
2.398826979472141
2.4760508308895406
2.5650048875855327
2.659824046920821
2.7546432062561097
2.844574780058651
2.9266862170087977
2.997067448680352
3.0547409579667644
3.099706744868035
3.133919843597263
3.1524926686217007
3.161290322580645
3.166177908113392
3.166177908113392
3.160312805474096
3.1495601173020527
3.133919843597263
3.113391984359726
3.089931573802541
3.0625610948191597
3.03128054740958
2.9960899315738025
2.9579667644183774
2.920821114369501
2.8826979472140764
2.8396871945259043
2.7947214076246336
2.7497556207233624
2.7038123167155423
2.658846529814272
2.6158357771261
2.573802541544477
2.5317693059628543
2.4916911045943304
2.452590420332356
2.419354838709677
2.389051808406647
2.357771260997068
2.3274682306940373
2.2991202346041058
2.272727272727273
2.2482893450635384
2.2267839687194524
2.207233626588465
2.190615835777126
2.175953079178885
2.1622678396871944
2.150537634408602
2.1407624633431084
2.132942326490713
2.124144672531769
2.113391984359726
2.102639296187683
2.09188660801564
2.081133919843597
2.070381231671554
2.059628543499511
2.0498533724340176
2.0391006842619745
2.0283479960899315
2.0205278592375366
2.0146627565982405
2.005865102639296
1.9960899315738023
1.986314760508309
1.975562072336266
1.964809384164223
1.95405669599218
1.9442815249266865
1.9364613880742916
1.932551319648094
1.9345063538611929
1.946236559139785
1.964809384164223
1.9931573802541545
2.0361681329423265
2.093841642228739
2.164222873900293
2.244379276637341
2.3313782991202348
2.4222873900293256
2.5141739980449658
2.6021505376344085
2.6832844574780057
2.7546432062561097
2.807429130009776
2.84652981427175
2.8797653958944283
2.905180840664712
2.919843597262952
2.924731182795699
2.921798631476051
2.911045943304008
2.89345063538612
2.870967741935484
2.843597262952102
2.8132942326490715
2.780058651026393
2.7468230694037143
2.713587487781036
2.675464320625611
2.634408602150537
2.590420332355816
2.5454545454545454
2.5004887585532747
2.455522971652004
2.412512218963832
2.3704789833822093
2.332355816226784
2.297165200391007
2.2688172043010755
2.244379276637341
2.220918866080156
2.198435972629521
2.177908113391984
2.1593352883675463
2.1417399804496577
2.126099706744868
2.112414467253177
2.1006842619745845
2.089931573802541
2.081133919843597
2.074291300097752
2.070381231671554
2.0684261974584555
2.067448680351906
2.0664711632453567
2.065493646138808
2.064516129032258
2.06158357771261
1.8377321603128052
1.5024437927663734
1.3284457478005864
1.2346041055718475
1.1808406647116323
1.1505376344086022
1.1319648093841643
1.1163245356793745
1.1016617790811338
1.0879765395894427
1.075268817204301
1.06158357771261
1.0478983382209188
1.0342130987292275
1.021505376344086
1.013685239491691
1.0146627565982405
1.0283479960899315
1.0527859237536656
1.0918866080156402
1.1544477028347997
1.2404692082111437
1.3479960899315735
1.4750733137829912
1.6158357771260996
1.7634408602150538
1.9100684261974583
2.047898338220919
2.1710654936461387
2.274682306940372
2.3489736070381237
2.39980449657869
2.441837732160313
2.4701857282502444
2.486803519061584
2.4916911045943304
2.4858260019550342
2.4701857282502444
2.4457478005865103
2.412512218963832
2.3714565004887587
2.32355816226784
2.269794721407625
2.2170087976539588
2.163245356793744
2.103616813294233
2.042033235581622
1.9804496578690127
1.919843597262952
1.86119257086999
1.8054740957966764
1.7517106549364614
1.6989247311827955
1.6480938416422288
1.6001955034213098
1.5591397849462365
1.5239491691104594
1.4887585532746823
1.455522971652004
1.426197458455523
1.401759530791789
1.3812316715542523
1.364613880742913
1.3519061583577712
1.3411534701857282
1.3313782991202343
1.321603128054741
1.3118279569892473
1.3040078201368523
1.2961876832844574
1.2864125122189638
1.2766373411534702
1.2668621700879763
1.2580645161290325
1.2512218963831867
1.2453567937438903
1.2394916911045943
1.2346041055718475
1.2287390029325511
1.2218963831867058
1.2160312805474096
1.209188660801564
1.1994134897360704
1.1886608015640274
1.176930596285435
1.1652003910068427
1.1534701857282503
1.141739980449658
1.130987292277615
1.121212121212121
1.1163245356793745
1.1192570869990224
1.1300097751710656
1.1515151515151516
1.1896383186705768
1.24633431085044
1.3235581622678396
1.4203323558162269
1.5347018572825024
1.6637341153470186
1.8005865102639296
1.93841642228739
2.070381231671554
2.190615835777126
2.2932551319648096
2.366568914956012
2.418377321603128
2.4613880742913
2.4916911045943304
2.509286412512219
2.5161290322580645
2.5141739980449658
2.505376344086021
2.489736070381232
2.469208211143695
2.443792766373412
2.4134897360703813
2.3812316715542523
2.347018572825025
2.30791788856305
2.264907135874878
2.2170087976539588
2.163245356793744
2.104594330400782
2.040078201368524
1.9726295210166176
1.902248289345064
1.8318670576735088
1.7634408602150538
1.6979472140762464
1.643206256109482
1.5972629521016617
1.552297165200391
1.5112414467253177
1.4760508308895406
1.4457478005865103
1.4203323558162269
1.3998044965786902
1.3812316715542523
1.3626588465298142
1.3440860215053765
1.3235581622678396
1.3049853372434017
1.2873900293255132
1.2668621700879763
1.2443792766373412
1.2218963831867058
1.2003910068426198
1.181818181818182
1.166177908113392
1.152492668621701
1.141739980449658
1.1329423264907137
1.1251221896383188
1.118279569892473
1.1133919843597262
1.1085043988269794
1.0987292277614855
1.0850439882697946
1.0694037145650048
1.050830889540567
1.0312805474095796
1.0117302052785924
0.9941348973607038
0.9794721407624634
0.9667644183773216
0.9579667644183774
0.95405669599218
0.9550342130987292
0.9589442815249268
0.9706744868035192
0.9951124144672532
1.035190615835777
1.093841642228739
1.1720430107526882
1.2717497556207231
1.391006842619746
1.5278592375366569
1.6764418377321604
1.83088954056696
1.962854349951124
2.0772238514174
2.1945259042033234
2.2981427174975564
2.3822091886608017
2.442815249266862
2.4819159335288368
2.5024437927663734
2.5083088954056696
2.5024437927663734
2.486803519061584
2.462365591397849
2.4330400782013686
2.3978494623655915
2.3548387096774195
2.304985337243402
2.247311827956989
2.1837732160312804
2.114369501466276
2.0410557184750733
1.964809384164223
1.8866080156402736
1.8074291300097751
1.7282502443792769
1.6500488758553276
1.5835777126099706
1.5249266862170088
1.4633431085043989
1.401759530791789
1.343108504398827
1.2883675464320623
1.2375366568914956
1.1915933528836755
1.1515151515151516
1.118279569892473
1.0909090909090908
1.0703812316715542
1.0576735092864125
1.0498533724340176
1.043010752688172
1.0361681329423265
1.029325513196481
1.021505376344086
1.0117302052785924
1.0019550342130987
0.9912023460410556
0.9794721407624634
0.9687194525904204
0.9589442815249268
0.9521016617790812
0.9491691104594332
0.9491691104594332
0.9481915933528836
0.9472140762463344
0.9452590420332356
0.9413489736070382
0.9364613880742912
0.9305962854349952
0.9237536656891496
0.916911045943304
0.9100684261974584
0.9042033235581622
0.9022482893450636
0.9022482893450636
0.9022482893450636
0.9051808406647116
0.9130009775171064
0.9305962854349952
0.9618768328445748
1.010752688172043
1.0791788856304985
1.1691104594330402
1.281524926686217
1.4134897360703813
1.5610948191593352
1.6959921798631477
1.9130009775171064
2.1955034213098727
2.4164222873900294
2.591397849462365
2.7282502443792764
2.8299120234604107
2.9012707722385143
2.9472140762463344
2.972629521016618
2.981427174975562
2.9775171065493646
2.961876832844575
2.9374389051808407
2.906158357771261
2.8670576735092865
2.8211143695014664
2.766373411534702
2.7038123167155423
2.633431085043988
2.555229716520039
2.472140762463343
2.3851417399804498
2.297165200391007
2.209188660801564
2.131964809384164
2.0625610948191597
1.988269794721408
1.913978494623656
1.8406647116324533
1.7683284457478006
1.6979472140762464
1.6285434995112416
1.560117302052786
1.4926686217008798
1.4271749755620724
1.364613880742913
1.313782991202346
1.2717497556207231
1.2267839687194526
1.181818181818182
1.13880742913001
1.0977517106549364
1.0586510263929618
1.021505376344086
0.9863147605083088
0.9530791788856304
0.9227761485826002
0.895405669599218
0.8709677419354839
0.855327468230694
0.844574780058651
0.8318670576735093
0.8181818181818182
0.8035190615835777
0.7878787878787878
0.7712609970674487
0.7536656891495601
0.7350928641251222
0.7165200391006843
0.6989247311827957
0.6842619745845552
0.6774193548387096
0.6774193548387096
0.6754643206256109
0.6735092864125122
0.6715542521994134
0.6686217008797654
0.6666666666666666
0.667644183773216
0.6754643206256109
0.6979472140762464
0.7438905180840665
0.8211143695014663
0.9159335288367546
1.0342130987292275
1.1974584555229717
1.393939393939394
1.611925708699902
1.836754643206256
2.053763440860215
2.249266862170088
2.4164222873900294
2.552297165200391
2.656891495601173
2.736070381231672
2.793743890518084
2.827956989247312
2.84652981427175
2.860215053763441
2.8670576735092865
2.866080156402737
2.854349951124145
2.832844574780059
2.80058651026393
2.758553274682307
2.70772238514174
2.649071358748778
2.58455522971652
2.5219941348973607
2.4604105571847508
2.3919843597262958
2.3196480938416424
2.24633431085044
2.172043010752688
2.0987292277614857
2.026392961876833
1.9560117302052784
1.8885630498533723
1.823069403714565
1.758553274682307
1.696969696969697
1.64613880742913
1.603128054740958
1.5581622678396871
1.5161290322580645
1.478983382209189
1.4457478005865103
1.4164222873900294
1.3900293255131966
1.3655913978494625
1.3411534701857282
1.316715542521994
1.29227761485826
1.2727272727272727
1.2570869990224829
1.2394916911045943
1.2228739002932552
1.2072336265884651
1.1915933528836755
1.176930596285435
1.1612903225806452
1.1436950146627567
1.1241446725317692
1.1026392961876832
1.078201368523949
1.0527859237536656
1.032258064516129
1.0156402737047898
0.9941348973607038
0.9716520039100685
0.9491691104594332
0.927663734115347
0.9081133919843596
0.8885630498533724
0.8690127077223851
0.8504398826979472
0.8328445747800587
0.8181818181818182
0.8142717497556208
0.8211143695014663
0.8396871945259042
0.8787878787878788
0.9442815249266864
1.040078201368524
1.166177908113392
1.3186705767350928
1.4926686217008798
1.678396871945259
1.8670576735092863
2.048875855327468
2.2140762463343107
2.343108504398827
2.443792766373412
2.5347018572825024
2.6099706744868034
2.667644183773216
2.70772238514174
2.732160312805474
2.7438905180840663
2.742913000977517
2.7311827956989245
2.708699902248289
2.675464320625611
2.636363636363636
2.592375366568915
2.5405669599217986
2.484848484848485
2.4271749755620724
2.36950146627566
2.3118279569892475
2.2551319648093844
2.1974584555229715
2.1378299120234603
2.0762463343108504
2.0127077223851417
1.949169110459433
1.8934506353861196
1.844574780058651
1.7956989247311828
1.750733137829912
1.7126099706744868
1.683284457478006
1.6627565982404693
1.6490713587487782
1.640273704789834
1.6314760508308896
1.6187683284457477
1.5992179863147604
1.5777126099706744
1.5503421309872922
1.512218963831867
1.466275659824047
1.4193548387096775
1.3763440860215057
1.343108504398827
1.3235581622678396
1.316715542521994
1.3196480938416422
1.3284457478005864
1.3372434017595307
1.3440860215053765
1.348973607038123
1.3519061583577712
1.3509286412512218
1.3470185728250244
1.3421309872922775
1.3333333333333333
1.3206256109481915
1.3040078201368523
1.2834799608993157
1.2619745845552297
1.241446725317693
1.2287390029325511
1.2258064516129032
1.2355816226783969
1.260019550342131
1.305962854349951
1.3792766373411536
1.4838709677419355
1.619745845552297
1.782991202346041
1.9657869012707725
2.155425219941349
2.3382209188660803
2.5004887585532747
2.633431085043988
2.7253176930596283
2.78494623655914
2.827956989247312
2.852394916911046
2.860215053763441
2.8514173998044967
2.8289345063538613
2.7947214076246336
2.750733137829912
2.7008797653958942
2.6471163245356792
2.592375366568915
2.541544477028348
2.493646138807429
2.441837732160313
2.388074291300098
2.332355816226784
2.2737047898338223
2.2130987292277613
2.150537634408602
2.124144672531769
2.1192570869990224
2.09188660801564
2.0557184750733137
2.01564027370479
1.9804496578690127
1.9472140762463344
1.9090909090909087
1.868035190615836
1.826001955034213
1.782991202346041
1.739980449657869
1.699902248289345
1.6627565982404693
1.6304985337243405
1.603128054740958
1.581622678396872
1.5679374389051808
1.5591397849462365
1.552297165200391
1.5464320625610948
1.541544477028348
1.5366568914956011
1.5317693059628543
1.5278592375366569
1.5239491691104594
1.520039100684262
1.5151515151515151
1.5102639296187683
1.5034213098729228
1.498533724340176
1.4946236559139785
1.4858260019550342
1.4750733137829912
1.4633431085043989
1.4506353861192571
1.4389051808406648
1.4291300097751711
1.4213098729227762
1.4134897360703813
1.404692082111437
1.393939393939394
1.3841642228739004
1.3743890518084063
1.3626588465298142
1.3548387096774193
1.359726295210166
1.3851417399804498
1.435972629521017
1.5141739980449658
1.619745845552297
1.7468230694037146
1.889540566959922
2.0410557184750733
2.1739980449657867
2.2932551319648096
2.421309872922776
2.544477028347996
2.6578690127077222
2.755620723362659
2.8377321603128056
2.903225806451613
2.952101661779081
2.986314760508309
3.005865102639296
3.013685239491691
3.010752688172043
2.9980449657869013
2.978494623655914
2.9550342130987293
2.9286412512218964
2.898338220918866
2.8641251221896384
2.8260019550342133
2.782013685239492
2.732160312805474
2.67644183773216
2.613880742913001
2.5464320625610948
2.482893450635386
2.4222873900293256
2.356793743890518
2.291300097751711
2.228739002932551
2.1710654936461387
2.117302052785924
2.069403714565005
2.0254154447702835
1.9853372434017595
1.9472140762463344
1.911045943304008
1.8758553274682308
1.847507331378299
1.823069403714565
1.796676441837732
1.772238514173998
1.750733137829912
1.7331378299120237
1.7204301075268815
1.7116324535679377
1.7067448680351909
1.7038123167155426
1.7008797653958945
1.6959921798631477
1.6911045943304008
1.6852394916911049
1.6744868035190617
1.66177908113392
1.6480938416422288
1.635386119257087
1.6256109481915937
1.619745845552297
1.6177908113391983
1.6177908113391983
1.6177908113391983
1.616813294232649
1.6129032258064515
1.608993157380254
1.6041055718475072
1.595307917888563
1.5835777126099706
1.5708699902248289
1.5620723362658846
1.5591397849462365
1.5669599217986314
1.5894428152492668
1.629521016617791
1.689149560117302
1.7683284457478006
1.8494623655913975
1.9374389051808407
2.046920821114369
2.1700879765395893
2.300097751710655
2.4330400782013686
2.5640273704789838
2.6901270772238512
2.8084066471163247
2.9149560117302054
3.005865102639296
3.0772238514174
3.129032258064516
3.155425219941349
3.1622678396871944
3.158357771260997
3.1417399804496577
3.114369501466276
3.0791788856304985
3.038123167155425
2.9931573802541545
2.9442815249266863
2.89247311827957
2.835777126099707
2.774193548387097
2.7145650048875853
2.654936461388074
2.5884652981427174
2.5180840664711632
2.44672531769306
2.376344086021505
2.3098729227761488
2.2482893450635384
2.1925708699902247
2.1436950146627565
2.1006842619745845
2.06158357771261
2.026392961876833
1.9980449657869013
1.9736070381231672
1.946236559139785
1.9178885630498532
1.8875855327468232
1.8563049853372435
1.825024437927664
1.7947214076246334
1.7653958944281525
1.7380254154447703
1.7135874877810362
1.6930596285434996
1.6774193548387095
1.664711632453568
1.651026392961877
1.6363636363636365
1.6207233626588464
1.6021505376344083
1.5796676441837731
1.555229716520039
1.5288367546432062
1.501466275659824
1.4750733137829912
1.4516129032258065
1.4320625610948192
1.418377321603128
1.409579667644184
1.3998044965786902
1.3900293255131966
1.3782991202346042
1.3636363636363635
1.3470185728250244
1.327468230694037
1.3049853372434017
1.2825024437927663
1.262952101661779
1.249266862170088
1.2453567937438903
1.2531769305962854
1.273704789833822
1.3118279569892473
1.3695014662756595
1.447702834799609
1.543499511241447
1.6529814271749756
1.772238514173998
1.895405669599218
2.0175953079178885
2.134897360703812
2.244379276637341
2.333333333333333
2.406647116324536
2.4819159335288368
2.5513196480938416
2.6129032258064515
2.665689149560117
2.70772238514174
2.73802541544477
2.7565982404692084
2.7624633431085046
2.7565982404692084
2.739980449657869
2.7155425219941347
2.6852394916911044
2.64613880742913
2.60019550342131
2.548387096774193
2.4916911045943304
2.43108504398827
2.367546432062561
2.303030303030303
2.239491691104594
2.1788856304985336
2.124144672531769
2.075268817204301
2.037145650048876
2.006842619745845
1.9794721407624636
1.95405669599218
1.9296187683284456
1.905180840664712
1.8797653958944285
1.8523949169110456
1.823069403714565
1.7917888563049853
1.7605083088954057
1.729227761485826
1.7038123167155426
1.6823069403714566
1.603128054740958
1.4975562072336266
1.435972629521017
1.3978494623655917
1.3724340175953078
1.35386119257087
1.33822091886608
1.324535679374389
1.3118279569892473
1.300097751710655
1.29227761485826
1.2854349951124144
1.2776148582600195
1.2697947214076246
1.2619745845552297
1.2551319648093842
1.2482893450635386
1.241446725317693
1.2346041055718475
1.2267839687194526
1.217008797653959
1.2072336265884651
1.198435972629521
1.195503421309873
1.1994134897360704
1.2130987292277615
1.2424242424242424
1.2913000977517106
1.3626588465298142
1.455522971652004
1.56891495601173
1.696969696969697
1.835777126099707
1.9794721407624636
2.1221896383186705
2.242424242424242
2.345063538611926
2.450635386119257
2.548387096774193
2.63049853372434
2.695014662756598
2.739980449657869
2.768328445747801
2.780058651026393
2.779081133919844
2.7653958944281527
2.7419354838709675
2.7116324535679373
2.67644183773216
2.6373411534701856
2.591397849462365
2.539589442815249
2.482893450635386
2.4222873900293256
2.356793743890518
2.289345063538612
2.220918866080156
2.15347018572825
2.0879765395894427
2.026392961876833
1.9736070381231672
1.9266862170087975
1.8778103616813293
1.827956989247312
1.7781036168132942
1.729227761485826
1.6813294232649072
1.635386119257087
1.5923753665689149
1.5532746823069403
1.5190615835777126
1.4887585532746823
1.4623655913978495
1.4428152492668622
1.4271749755620724
1.4115347018572826
1.3949169110459434
1.3782991202346042
1.3616813294232648
1.3440860215053765
1.3264907135874875
