ppg
1.6852394916911049
1.6656891495601174
1.643206256109482
1.6226783968719452
1.6021505376344083
1.581622678396872
1.5610948191593352
1.541544477028348
1.521994134897361
1.504398826979472
1.487781036168133
1.4721407624633431
1.457478005865103
1.4467253176930597
1.4379276637341154
1.4271749755620724
1.41544477028348
1.4027370478983383
1.3900293255131966
1.3773216031280548
1.3655913978494625
1.3548387096774193
1.3450635386119256
1.3362658846529814
1.327468230694037
1.321603128054741
1.316715542521994
1.3088954056695992
1.2981427174975562
1.2864125122189638
1.2756598240469208
1.2658846529814272
1.2443792766373412
1.2160312805474096
1.198435972629521
1.1867057673509287
1.1788856304985338
1.1720430107526882
1.1691104594330402
1.1652003910068427
1.1573802541544478
1.1485826001955035
1.142717497556207
1.144672531769306
1.1593352883675463
1.1915933528836755
1.24633431085044
1.324535679374389
1.423264907135875
1.5386119257087
1.6471163245356797
1.7517106549364614
1.869012707722385
1.986314760508309
2.0987292277614857
2.203323558162268
2.2952101661779083
2.375366568914956
2.443792766373412
2.5024437927663734
2.5513196480938416
2.593352883675464
2.621700879765396
2.641251221896383
2.659824046920821
2.67644183773216
2.689149560117302
2.6989247311827955
2.704789833822092
2.70772238514174
2.70772238514174
2.704789833822092
2.697947214076246
2.6832844574780057
2.6608015640273703
2.633431085043988
2.60019550342131
2.558162267839687
2.5083088954056696
2.449657869012708
2.3822091886608017
2.3088954056695994
2.233626588465298
2.158357771260997
2.085043988269794
2.018572825024438
1.9618768328445748
1.9178885630498532
1.8836754643206255
1.8514173998044965
1.8211143695014664
1.790811339198436
1.7595307917888563
1.7282502443792769
1.696969696969697
1.6666666666666667
1.6373411534701858
1.608993157380254
1.581622678396872
1.5562072336265884
1.5356793743890518
1.517106549364614
1.495601173020528
1.4711632453567938
1.4457478005865103
1.423264907135875
1.4027370478983383
1.380254154447703
1.3558162267839686
1.3313782991202343
1.3079178885630498
1.284457478005865
1.2668621700879763
1.252199413489736
1.2355816226783969
1.219941348973607
1.2043010752688172
1.1896383186705768
1.1759530791788857
1.163245356793744
1.1505376344086022
1.1397849462365592
1.1290322580645162
1.1192570869990224
1.1124144672531768
1.110459433040078
1.110459433040078
1.1085043988269794
1.1055718475073313
1.1016617790811338
1.0977517106549364
1.093841642228739
1.0899315738025417
1.086021505376344
1.0821114369501466
1.0772238514173995
1.0713587487781036
1.0684261974584557
1.0654936461388074
1.0586510263929618
1.0518084066471165
1.0439882697947214
1.0361681329423265
1.0283479960899315
1.0224828934506354
1.0175953079178883
1.010752688172043
1.0039100684261977
0.997067448680352
0.9931573802541545
0.9941348973607038
0.9980449657869012
1.0058651026392962
1.0254154447702837
1.06158357771261
1.121212121212121
1.2043010752688172
1.310850439882698
1.435972629521017
1.5708699902248289
1.70772238514174
1.8406647116324533
1.9501466275659824
2.042033235581622
2.133919843597263
2.218963831867057
2.2952101661779083
2.361681329423265
2.420332355816227
2.472140762463343
2.5180840664711632
2.5591397849462365
2.598240469208211
2.632453567937439
2.66177908113392
2.681329423264907
2.6940371456500487
2.705767350928641
2.7155425219941347
2.721407624633431
2.7223851417399803
2.717497556207233
2.7067448680351904
2.689149560117302
2.664711632453568
2.631476050830889
2.590420332355816
2.5454545454545454
2.4946236559139785
2.4301075268817205
2.3548387096774195
2.274682306940372
2.1925708699902247
2.1114369501466275
2.035190615835777
1.9657869012707725
1.906158357771261
1.8563049853372435
1.8142717497556209
1.7790811339198436
1.7517106549364614
1.726295210166178
1.6989247311827955
1.6695992179863148
1.6373411534701858
1.6041055718475072
1.5718475073313782
1.5405669599217986
1.5112414467253177
1.482893450635386
1.457478005865103
1.4320625610948192
1.412512218963832
1.3949169110459434
1.3734115347018572
1.348973607038123
1.3255131964809383
1.303030303030303
1.2795698924731185
1.2580645161290325
1.238514173998045
1.2209188660801564
1.2023460410557183
1.1837732160312806
1.1691104594330402
1.1593352883675463
1.152492668621701
1.1436950146627567
1.1329423264907137
1.121212121212121
1.1094819159335287
1.0977517106549364
1.086021505376344
1.0742913000977516
1.0635386119257086
1.053763440860215
1.0449657869012707
1.0420332355816226
1.043010752688172
1.0439882697947214
1.0439882697947214
1.0439882697947214
1.0439882697947214
1.0449657869012707
1.0469208211143697
1.0478983382209188
1.0478983382209188
1.0478983382209188
1.0478983382209188
1.04594330400782
1.0449657869012707
1.0449657869012707
1.0410557184750733
1.035190615835777
1.0283479960899315
1.0205278592375366
1.0146627565982405
1.010752688172043
1.0068426197458455
1.0039100684261977
1.0009775171065494
0.9990224828934506
1.0009775171065494
1.0068426197458455
1.0175953079178883
1.040078201368524
1.0811339198435972
1.1466275659824048
1.2355816226783969
1.3479960899315735
1.478983382209189
1.6207233626588464
1.7673509286412512
1.9120234604105573
2.03128054740958
2.1309872922776147
2.231671554252199
2.3255131964809386
2.409579667644184
2.4819159335288368
2.5454545454545454
2.601173020527859
2.650048875855328
2.69208211143695
2.7282502443792764
2.760508308895406
2.787878787878788
2.8054740957966766
2.859237536656892
2.9345063538611926
2.9745845552297165
2.9931573802541545
2.9980449657869013
2.994134897360704
2.983382209188661
2.964809384164223
2.93841642228739
2.903225806451613
2.859237536656892
2.8084066471163247
2.750733137829912
2.679374389051808
2.598240469208211
2.5112414467253177
2.4222873900293256
2.335288367546432
2.2531769305962857
2.179863147605083
2.115347018572825
2.060606060606061
2.013685239491691
1.9716520039100685
1.9364613880742916
1.9042033235581624
1.870967741935484
1.836754643206256
1.801564027370479
1.7663734115347018
1.7341153470185728
1.7018572825024438
1.6686217008797657
1.635386119257087
1.603128054740958
1.5718475073313782
1.5454545454545454
1.521016617790811
1.495601173020528
1.4682306940371457
1.439882697947214
1.4105571847507332
1.380254154447703
1.3528836754643203
1.3313782991202343
1.3118279569892473
1.2932551319648091
1.2746823069403714
1.2570869990224829
1.2443792766373412
1.2336265884652982
1.219941348973607
1.2082111436950147
1.198435972629521
1.1915933528836755
1.1857282502443791
1.1808406647116323
1.176930596285435
1.1720430107526882
1.166177908113392
1.1925708699902249
1.1945259042033236
1.1974584555229717
1.1994134897360704
1.2003910068426198
1.2003910068426198
1.2013685239491692
1.2072336265884651
1.224828934506354
1.260019550342131
1.3225806451612905
1.41544477028348
1.5366568914956011
1.6823069403714566
1.822091886608016
1.9589442815249267
2.115347018572825
2.2766373411534704
2.429130009775171
2.56891495601173
2.6930596285435
2.80058651026393
2.89247311827957
2.970674486803519
3.037145650048876
3.0928641251221896
3.131964809384164
3.160312805474096
3.190615835777126
3.218963831867057
3.243401759530792
3.2658846529814274
3.2844574780058653
3.2981427174975564
3.3059628543499517
3.3088954056695994
3.3059628543499517
3.297165200391007
3.281524926686217
3.2580645161290325
3.2267839687194524
3.187683284457478
3.139784946236559
3.081133919843597
3.0117302052785924
2.9335288367546437
2.8475073313782997
2.7565982404692084
2.667644183773216
2.5835777126099706
2.509286412512219
2.449657869012708
2.39980449657869
2.3548387096774195
2.314760508308896
2.2795698924731185
2.244379276637341
2.209188660801564
2.174975562072336
2.142717497556207
2.112414467253177
2.0821114369501466
2.0518084066471163
2.022482893450636
1.997067448680352
1.9726295210166176
1.945259042033236
1.9178885630498532
1.8905180840664717
1.865102639296188
1.8416422287390029
1.818181818181818
1.7927663734115349
1.7683284457478006
1.7458455522971652
1.7243401759530792
1.7057673509286413
1.689149560117302
1.6695992179863148
1.6490713587487782
1.6285434995112416
1.6099706744868034
1.5923753665689149
1.5747800586510263
1.5571847507331378
1.5405669599217986
1.5268817204301075
1.5151515151515151
1.5053763440860215
1.498533724340176
1.4926686217008798
1.4838709677419355
1.4760508308895406
1.469208211143695
1.4643206256109482
1.4594330400782014
1.4545454545454546
1.4496578690127078
1.4467253176930597
1.4437927663734116
1.4408602150537635
1.4389051808406648
1.4379276637341154
1.4349951124144673
1.4320625610948192
1.4281524926686218
1.4242424242424243
1.4193548387096775
1.41544477028348
1.4105571847507332
1.4037145650048877
1.393939393939394
1.383186705767351
1.370478983382209
1.3616813294232648
1.35386119257087
1.3440860215053765
1.3362658846529814
1.3333333333333333
1.3411534701857282
1.367546432062561
1.4164222873900294
1.4916911045943304
1.5943304007820136
1.721407624633431
1.866080156402737
2.0
2.1251221896383186
2.26197458455523
2.3958944281524928
2.5210166177908118
2.633431085043988
2.732160312805474
2.81622678396872
2.886608015640274
2.9472140762463344
2.99902248289345
3.042033235581622
3.069403714565005
3.0879765395894427
3.10752688172043
3.1251221896383186
3.1388074291300097
3.1495601173020527
3.156402737047898
3.158357771260997
3.155425219941349
3.1485826001955037
3.136852394916911
3.118279569892473
3.089931573802541
3.0527859237536656
3.007820136852395
2.951124144672532
2.8836754643206257
2.806451612903226
2.721407624633431
2.632453567937439
2.5434995112414467
2.4565004887585533
2.3743890518084068
2.2981427174975564
2.2297165200391005
2.1739980449657867
2.1251221896383186
2.0772238514174
2.032258064516129
1.988269794721408
1.9442815249266865
1.9042033235581624
1.8641251221896384
1.775171065493646
1.664711632453568
1.5923753665689149
1.5386119257087
1.4936461388074291
1.4594330400782014
1.43108504398827
1.4007820136852396
1.3695014662756595
1.3391984359726294
1.3098729227761483
1.2805474095796676
1.252199413489736
1.224828934506354
1.1994134897360704
1.173998044965787
1.1495601173020529
1.1300097751710656
1.1133919843597262
1.0928641251221896
1.0713587487781036
1.0527859237536656
1.0381231671554252
1.024437927663734
1.0117302052785924
0.9990224828934506
0.9863147605083088
0.975562072336266
0.9657869012707724
0.9579667644183774
0.9550342130987292
0.95405669599218
0.9491691104594332
0.9413489736070382
0.9335288367546432
0.9266862170087976
0.919843597262952
0.9120234604105572
0.9042033235581622
0.8963831867057673
0.8885630498533724
0.8807429130009775
0.8768328445747801
0.8748778103616813
0.8690127077223851
0.8621700879765396
0.855327468230694
0.8475073313782991
0.8396871945259042
0.8318670576735093
0.8250244379276638
0.820136852394917
0.8191593352883676
0.8240469208211144
0.8435972629521017
0.8768328445747801
0.927663734115347
1.0058651026392962
1.1114369501466277
1.2404692082111437
1.3870967741935485
1.5405669599217986
1.6920821114369502
1.8347996089931573
1.964809384164223
2.081133919843597
2.182795698924731
2.257086999022483
2.315738025415445
2.3743890518084068
2.4271749755620724
2.4750733137829912
2.5180840664711632
2.5562072336265884
2.590420332355816
2.6207233626588464
2.64613880742913
2.665689149560117
2.6823069403714563
2.6940371456500487
2.696969696969697
2.6940371456500487
2.689149560117302
2.6803519061583576
2.665689149560117
2.6451612903225805
2.616813294232649
2.5777126099706744
2.5268817204301075
2.463343108504399
2.391006842619746
2.3088954056695994
2.231671554252199
2.157380254154448
2.0762463343108504
1.9960899315738023
1.921798631476051
1.855327468230694
1.7986314760508308
1.7497556207233629
1.7096774193548387
1.6744868035190617
1.640273704789834
1.607038123167155
1.5747800586510263
1.547409579667644
1.520039100684262
1.4887585532746823
1.455522971652004
1.423264907135875
1.3919843597262953
1.3626588465298142
1.3362658846529814
1.310850439882698
1.2864125122189638
1.2619745845552297
1.2365591397849462
1.2150537634408602
1.1964809384164223
1.1749755620723363
1.152492668621701
1.1290322580645162
1.104594330400782
1.0821114369501466
1.06158357771261
1.0439882697947214
1.0273704789833822
1.010752688172043
0.997067448680352
0.9833822091886608
0.9745845552297164
0.9687194525904204
0.9608993157380256
0.9521016617790812
0.9413489736070382
0.9305962854349952
0.9237536656891496
0.919843597262952
0.9178885630498532
0.916911045943304
0.916911045943304
0.916911045943304
0.9188660801564028
0.9208211143695014
0.9208211143695014
0.9208211143695014
0.919843597262952
0.9159335288367546
0.9100684261974584
0.9032258064516128
0.895405669599218
0.8875855327468231
0.8817204301075269
0.8768328445747801
0.8719452590420332
0.8709677419354839
0.8719452590420332
0.8690127077223851
0.8651026392961877
0.8611925708699902
0.8582600195503421
0.8572825024437928
0.8592375366568915
0.8719452590420332
0.8993157380254154
0.9472140762463344
1.0195503421309873
1.1026392961876832
1.1994134897360704
1.327468230694037
1.4750733137829912
1.6314760508308896
1.7878787878787878
1.9374389051808407
2.0733137829912023
2.1925708699902247
2.2952101661779083
2.3841642228739004
2.4604105571847508
2.517106549364614
2.5610948191593352
2.6070381231671558
2.6510263929618767
2.69208211143695
2.7311827956989245
2.7653958944281527
2.793743890518084
2.817204301075269
2.834799608993157
2.8455522971652005
2.849462365591398
2.84652981427175
2.834799608993157
2.81622678396872
2.795698924731183
2.7702834799608995
2.7370478983382207
2.695014662756598
2.644183773216031
2.581622678396872
2.5083088954056696
2.4242424242424243
2.332355816226784
2.236559139784946
2.1515151515151514
2.0762463343108504
2.0019550342130987
1.9345063538611929
1.8758553274682308
1.8269794721407624
1.7839687194525904
1.7448680351906158
1.70772238514174
1.6735092864125125
1.6383186705767352
1.6011730205278591
1.565982404692082
1.5366568914956011
1.509286412512219
1.479960899315738
1.4506353861192571
1.4222873900293256
1.3958944281524928
1.3685239491691104
1.3411534701857282
1.316715542521994
1.29227761485826
1.2658846529814272
1.238514173998045
1.2160312805474096
1.1964809384164223
1.1749755620723363
1.1534701857282503
1.1329423264907137
1.115347018572825
1.0977517106549364
1.0791788856304985
1.0606060606060606
1.04594330400782
1.032258064516129
1.0195503421309873
1.0068426197458455
1.0
0.9960899315738024
0.9902248289345064
0.9824046920821116
0.9726295210166178
0.9618768328445748
0.9501466275659824
0.93841642228739
0.927663734115347
0.9188660801564028
0.913978494623656
0.9110459433040078
0.9130009775171064
0.916911045943304
0.9638318670576737
1.0332355816226784
1.0684261974584557
1.086021505376344
1.0928641251221896
1.093841642228739
1.093841642228739
1.0928641251221896
1.0918866080156402
1.0918866080156402
1.0918866080156402
1.0948191593352885
1.096774193548387
1.0957966764418376
1.0928641251221896
1.088954056695992
1.0850439882697946
1.0811339198435972
1.0772238514173995
1.0742913000977516
1.0733137829912025
1.078201368523949
1.093841642228739
1.1192570869990224
1.1593352883675463
1.2258064516129032
1.321603128054741
1.4457478005865103
1.5923753665689149
1.7526881720430108
1.916911045943304
2.0762463343108504
2.2267839687194524
2.364613880742913
2.4858260019550342
2.590420332355816
2.6695992179863146
2.732160312805474
2.795698924731183
2.857282502443793
2.913000977517106
2.962854349951124
3.005865102639296
3.042033235581622
3.0733137829912023
3.099706744868035
3.120234604105572
3.134897360703812
3.136852394916911
3.1309872922776147
3.124144672531769
3.114369501466276
3.0987292277614857
3.078201368523949
3.0527859237536656
3.0205278592375366
2.979472140762464
2.9286412512218964
2.8670576735092865
2.7966764418377323
2.720430107526881
2.6480938416422286
2.5777126099706744
2.5024437927663734
2.4301075268817205
2.364613880742913
2.30791788856305
2.259042033235582
2.2170087976539588
2.1788856304985336
2.1417399804496577
2.1065493646138806
2.0733137829912023
2.0439882697947214
2.016617790811339
1.9872922776148585
1.9589442815249267
1.9315738025415443
1.9042033235581624
1.8758553274682308
1.8494623655913975
1.8240469208211143
1.7986314760508308
1.7732160312805474
1.7487781036168133
1.726295210166178
1.70772238514174
1.6920821114369502
1.6735092864125125
1.6529814271749756
1.6334310850439884
1.6138807429130009
1.5962854349951123
1.5796676441837731
1.564027370478983
1.5493646138807429
1.5347018572825024
1.521016617790811
1.5102639296187683
1.501466275659824
1.4926686217008798
1.482893450635386
1.4750733137829912
1.4672531769305963
1.4594330400782014
1.4516129032258065
1.4437927663734116
1.4379276637341154
1.4330400782013686
1.4281524926686218
1.4242424242424243
1.423264907135875
1.423264907135875
1.4213098729227762
1.418377321603128
1.41544477028348
1.4115347018572826
1.4076246334310851
1.4037145650048877
1.3998044965786902
1.3958944281524928
1.3919843597262953
1.388074291300098
1.3861192570869991
1.3851417399804498
1.3822091886608017
1.3763440860215057
1.3685239491691104
1.359726295210166
1.3519061583577712
1.343108504398827
1.335288367546432
1.327468230694037
1.3196480938416422
1.3128054740957966
1.3098729227761483
1.3157380254154447
1.3313782991202343
1.3636363636363635
1.4203323558162269
1.5034213098729228
1.6138807429130009
1.747800586510264
1.8983382209188664
2.058651026392962
2.218963831867057
2.3714565004887587
2.5112414467253177
2.619745845552297
2.70772238514174
2.7966764418377323
2.878787878787879
2.9530791788856305
3.016617790811339
3.070381231671554
3.114369501466276
3.150537634408602
3.177908113391984
3.1974584555229715
3.212121212121212
3.2160312805474094
3.2130987292277613
3.2111436950146626
3.2082111436950145
3.203323558162268
3.1945259042033234
3.1818181818181817
3.163245356793744
3.1378299120234603
3.101661779081134
3.0547409579667644
2.994134897360704
2.9237536656891496
2.852394916911046
2.776148582600196
2.689149560117302
2.598240469208211
2.5083088954056696
2.4222873900293256
2.345063538611926
2.27761485826002
2.220918866080156
2.1710654936461387
2.126099706744868
2.0869990224828934
2.053763440860215
2.021505376344086
1.986314760508309
1.9521016617790807
1.9188660801564028
1.8856304985337244
1.8523949169110456
1.8201368523949168
1.7878787878787878
1.7565982404692082
1.726295210166178
1.6950146627565983
1.66177908113392
1.632453567937439
1.606060606060606
1.576735092864125
1.5464320625610948
1.5161290322580645
1.4858260019550342
1.456500488758553
1.4281524926686218
1.4007820136852396
1.375366568914956
1.3519061583577712
1.3313782991202343
1.3176930596285434
1.305962854349951
1.2903225806451613
1.273704789833822
1.2570869990224829
1.2424242424242424
1.2287390029325511
1.2160312805474096
1.203323558162268
1.1925708699902249
1.181818181818182
1.1730205278592376
1.166177908113392
1.163245356793744
1.1612903225806452
1.115347018572825
1.1143695014662756
1.1133919843597262
1.115347018572825
1.118279569892473
1.1192570869990224
1.1202346041055715
1.1202346041055715
1.1221896383186705
1.1231671554252198
1.121212121212121
1.118279569892473
1.115347018572825
1.1143695014662756
1.1133919843597262
1.1114369501466277
1.1065493646138806
1.099706744868035
1.0918866080156402
1.0840664711632453
1.0772238514173995
1.0762463343108504
1.078201368523949
1.0821114369501466
1.0948191593352885
1.1221896383186705
1.1700879765395895
1.2453567937438903
1.3470185728250244
1.4701857282502444
1.5806451612903225
1.683284457478006
1.8064516129032255
1.916911045943304
2.01564027370479
2.1192570869990224
2.217986314760508
2.3069403714565007
2.3841642228739004
2.4516129032258065
2.5112414467253177
2.5620723362658846
2.6070381231671558
2.6480938416422286
2.6832844574780057
2.7067448680351904
2.7223851417399803
2.739980449657869
2.7546432062561097
2.764418377321604
2.76930596285435
2.768328445747801
2.7624633431085046
2.7517106549364616
2.735092864125122
2.7116324535679373
2.681329423264907
2.6422287390029324
2.5992179863147604
2.550342130987292
2.490713587487781
2.4222873900293256
2.347018572825025
2.2668621700879767
2.1847507331378297
2.1065493646138806
2.0332355816226784
1.967741935483871
1.911045943304008
1.86119257086999
1.8211143695014664
1.7888563049853372
1.7556207233626588
1.721407624633431
1.6881720430107527
1.653958944281525
1.6217008797653958
1.5894428152492668
1.5591397849462365
1.530791788856305
1.5034213098729228
1.47702834799609
1.4516129032258065
1.4320625610948192
1.414467253176931
1.393939393939394
1.3714565004887584
1.3479960899315735
1.3235581622678396
1.300097751710655
1.2776148582600195
1.2551319648093842
1.2326490713587488
1.2111436950146628
1.1906158357771262
1.1759530791788857
1.164222873900293
1.1505376344086022
1.1378299120234605
1.126099706744868
1.1143695014662756
1.1036168132942326
1.0918866080156402
1.0821114369501466
1.0733137829912025
1.064516129032258
1.056695992179863
1.0498533724340176
1.0478983382209188
1.0469208211143697
1.0420332355816226
1.0361681329423265
1.0303030303030305
1.0254154447702837
1.021505376344086
1.0175953079178883
1.0146627565982405
1.0117302052785924
1.007820136852395
1.0039100684261977
1.0019550342130987
1.0019550342130987
1.0
0.997067448680352
0.9951124144672532
0.9941348973607038
0.9931573802541545
0.9931573802541545
0.9931573802541545
0.9941348973607038
0.9951124144672532
0.9960899315738024
0.9960899315738024
0.9990224828934506
1.0039100684261977
1.0058651026392962
1.0068426197458455
1.007820136852395
1.007820136852395
1.0068426197458455
1.0048875855327468
1.0019550342130987
0.9990224828934506
0.9980449657869012
0.997067448680352
1.0
1.0039100684261977
1.0058651026392962
1.0068426197458455
1.0097751710654936
1.0195503421309873
1.0420332355816226
1.083088954056696
1.1485826001955035
1.2404692082111437
1.3558162267839686
1.4897360703812317
1.6373411534701858
1.7702834799608993
1.89247311827957
2.026392961876833
2.156402737047898
2.27761485826002
2.388074291300098
2.484848484848485
2.567937438905181
2.6392961876832843
2.7008797653958942
2.7546432062561097
2.80058651026393
2.83088954056696
2.852394916911046
2.875855327468231
2.897360703812317
2.913978494623656
2.924731182795699
2.930596285434995
2.930596285434995
2.9266862170087977
2.918866080156403
2.906158357771261
2.8885630498533725
2.865102639296188
2.835777126099707
2.798631476050831
2.750733137829912
2.69208211143695
2.6236559139784945
2.547409579667644
2.466275659824047
2.3822091886608017
2.300097751710655
2.222873900293255
2.1524926686217007
2.090909090909091
2.0410557184750733
2.0
1.9608993157380252
1.9237536656891496
1.8875855327468232
1.8533724340175952
1.818181818181818
1.7839687194525904
1.750733137829912
1.7174975562072337
1.686217008797654
1.656891495601173
1.629521016617791
1.606060606060606
1.585532746823069
1.564027370478983
1.543499511241447
1.5239491691104594
1.5053763440860215
1.487781036168133
1.4711632453567938
1.4535679374389052
1.4379276637341154
1.4222873900293256
1.4066471163245358
1.3949169110459434
1.3841642228739004
1.370478983382209
1.3558162267839686
1.3421309872922775
1.3294232649071358
1.3176930596285434
1.305962854349951
1.295210166177908
1.2864125122189638
1.278592375366569
1.270772238514174
1.262952101661779
1.2580645161290325
1.2561094819159335
1.2531769305962854
1.2482893450635386
1.2443792766373412
1.2424242424242424
1.241446725317693
1.2404692082111437
1.2404692082111437
1.2394916911045943
1.2375366568914956
1.2336265884652982
1.2316715542521994
1.2316715542521994
1.2297165200391007
1.227761485826002
1.2267839687194526
