ppg
1.1348973607038124
1.1163245356793745
1.1065493646138806
1.1016617790811338
1.1016617790811338
1.1055718475073313
1.1124144672531768
1.1221896383186705
1.1319648093841643
1.1407624633431086
1.1466275659824048
1.1485826001955035
1.1466275659824048
1.142717497556207
1.1368523949169111
1.1270772238514175
1.1133919843597262
1.0957966764418376
1.0762463343108504
1.0625610948191593
1.06158357771261
1.0772238514173995
1.1241446725317692
1.2160312805474096
1.3577712609970674
1.543499511241447
1.7605083088954057
1.988269794721408
2.206256109481916
2.398826979472141
2.552297165200391
2.662756598240469
2.7282502443792764
2.758553274682307
2.766373411534702
2.7536656891495603
2.724340175953079
2.681329423264907
2.6285434995112413
2.5669599217986314
2.4995112414467253
2.4281524926686218
2.3548387096774195
2.2795698924731185
2.2111436950146626
2.145650048875855
2.0733137829912023
1.997067448680352
1.920821114369501
1.8435972629521016
1.7663734115347018
1.6930596285434996
1.6226783968719452
1.5542521994134897
1.4897360703812317
1.4301075268817205
1.375366568914956
1.332355816226784
1.2991202346041055
1.2649071358748778
1.2346041055718475
1.2111436950146628
1.195503421309873
1.1867057673509287
1.1837732160312806
1.187683284457478
1.195503421309873
1.2043010752688172
1.2140762463343109
1.2238514173998043
1.2346041055718475
1.2434017595307918
1.249266862170088
1.2512218963831867
1.249266862170088
1.2443792766373412
1.2355816226783969
1.2218963831867058
1.203323558162268
1.1837732160312806
1.1691104594330402
1.1681329423264908
1.18475073313783
1.2287390029325511
1.316715542521994
1.4545454545454546
1.635386119257087
1.8465298142717497
2.071358748778104
2.2873900293255134
2.4760508308895406
2.627565982404692
2.7370478983382207
2.806451612903226
2.8367546432062563
2.8377321603128056
2.8181818181818183
2.7810361681329425
2.730205278592375
2.667644183773216
2.598240469208211
2.5249266862170088
2.4486803519061584
2.3714565004887587
2.2932551319648096
2.2140762463343107
2.133919843597263
2.0635386119257086
1.997067448680352
1.9227761485826005
1.8465298142717497
1.76930596285435
1.6930596285434996
1.6187683284457477
1.5454545454545454
1.4760508308895406
1.4115347018572826
1.3519061583577712
1.2981427174975562
1.2561094819159335
1.2238514173998043
1.1935483870967742
1.1681329423264908
1.1495601173020529
1.1378299120234605
1.133919843597263
1.1378299120234605
1.1466275659824048
1.1573802541544478
1.1691104594330402
1.1808406647116323
1.1906158357771262
1.2003910068426198
1.2082111436950147
1.2130987292277615
1.2160312805474096
1.2160312805474096
1.2140762463343109
1.2111436950146628
1.206256109481916
1.198435972629521
1.1886608015640274
1.1788856304985338
1.1798631476050832
1.1935483870967742
1.2297165200391007
1.3020527859237536
1.418377321603128
1.576735092864125
1.76930596285435
1.9804496578690127
2.1915933528836757
2.4115347018572826
2.6158357771261
2.7673509286412514
2.8719452590420333
2.9345063538611926
2.9589442815249267
2.9579667644183774
2.941348973607038
2.909090909090909
2.8641251221896384
2.8103616813294234
2.7497556207233624
2.6832844574780057
2.611925708699902
2.536656891495601
2.4594330400782014
2.380254154447703
2.30791788856305
2.2385141739980448
2.1622678396871944
2.0821114369501466
2.0
1.919843597262952
1.8416422287390029
1.7663734115347018
1.696969696969697
1.632453567937439
1.5747800586510263
1.52297165200391
1.47702834799609
1.4437927663734116
1.4213098729227762
1.4027370478983383
1.3900293255131966
1.3822091886608017
1.3782991202346042
1.3773216031280548
1.3782991202346042
1.380254154447703
1.3812316715542523
1.380254154447703
1.3773216031280548
1.375366568914956
1.3734115347018572
1.3685239491691104
1.3616813294232648
1.3519061583577712
1.33822091886608
1.3196480938416422
1.2991202346041055
1.2795698924731185
1.2688172043010753
1.278592375366569
1.321603128054741
1.3900293255131966
1.4926686217008798
1.6520039100684265
1.857282502443793
2.089931573802541
2.329423264907136
2.555229716520039
2.750733137829912
2.906158357771261
3.0175953079178885
3.0869990224828934
3.118279569892473
3.1163245356793743
3.09188660801564
3.0518084066471163
2.995112414467253
2.927663734115347
2.8514173998044967
2.76930596285435
2.6832844574780057
2.595307917888563
2.505376344086021
2.4134897360703813
2.320625610948192
2.2248289345063537
2.1407624633431084
2.0625610948191597
1.975562072336266
1.8856304985337244
1.7976539589442817
1.7135874877810362
1.632453567937439
1.555229716520039
1.4848484848484849
1.4222873900293256
1.3665689149560116
1.3196480938416422
1.2825024437927663
1.2580645161290325
1.2434017595307918
1.2316715542521994
1.2238514173998043
1.2209188660801564
1.2209188660801564
1.2238514173998043
1.227761485826002
1.2316715542521994
1.2336265884652982
1.2316715542521994
1.2267839687194526
1.2228739002932552
1.2189638318670577
1.209188660801564
1.1945259042033236
1.176930596285435
1.1564027370478984
1.133919843597263
1.115347018572825
1.1124144672531768
1.1407624633431086
1.2130987292277615
1.3391984359726294
1.521016617790811
1.7116324535679377
1.911045943304008
2.146627565982405
2.3851417399804498
2.6021505376344085
2.782013685239492
2.9159335288367547
3.003910068426197
3.0498533724340176
3.060606060606061
3.0439882697947214
3.003910068426197
2.9530791788856305
2.8944281524926687
2.8240469208211145
2.7438905180840663
2.656891495601173
2.5669599217986314
2.474095796676442
2.380254154447703
2.2873900293255134
2.1955034213098727
2.102639296187683
2.010752688172043
1.9188660801564028
1.8377321603128052
1.7634408602150538
1.6823069403714566
1.6011730205278591
1.52297165200391
1.447702834799609
1.3782991202346042
1.316715542521994
1.262952101661779
1.2189638318670577
1.1867057673509287
1.1622678396871946
1.147605083088954
1.142717497556207
1.1407624633431086
1.142717497556207
1.147605083088954
1.1534701857282503
1.1593352883675463
1.163245356793744
1.1671554252199414
1.1710654936461389
1.1730205278592376
1.1720430107526882
1.1691104594330402
1.1671554252199414
1.163245356793744
1.1515151515151516
1.1319648093841643
1.1094819159335287
1.0928641251221896
1.0957966764418376
1.1319648093841643
1.2150537634408602
1.3519061583577712
1.5395894428152492
1.7683284457478006
1.9872922776148585
2.1945259042033234
2.4164222873900294
2.622678396871945
2.7947214076246336
2.920821114369501
3.0019550342130987
3.043010752688172
3.0498533724340176
3.029325513196481
2.988269794721408
2.932551319648094
2.865102639296188
2.7976539589442817
2.729227761485826
2.6510263929618767
2.5669599217986314
2.4780058651026398
2.386119257086999
2.29227761485826
2.1974584555229715
2.103616813294233
2.010752688172043
1.919843597262952
1.83088954056696
1.7565982404692082
1.6881720430107527
1.6129032258064515
1.5376344086021505
1.4652981427174976
1.3978494623655917
1.3372434017595307
1.284457478005865
1.241446725317693
1.2082111436950147
1.18475073313783
1.1691104594330402
1.160312805474096
1.1593352883675463
1.163245356793744
1.1671554252199414
1.1710654936461389
1.1749755620723363
1.1788856304985338
1.1808406647116323
1.1798631476050832
1.1779081133919844
1.173998044965787
1.1671554252199414
1.1573802541544478
1.1495601173020529
1.13880742913001
1.1202346041055715
1.096774193548387
1.0742913000977516
1.06158357771261
1.0733137829912025
1.1231671554252198
1.219941348973607
1.3665689149560116
1.5562072336265884
1.7761485826001957
2.0087976539589443
2.207233626588465
2.3714565004887587
2.5268817204301075
2.6529814271749754
2.740957966764418
2.792766373411535
2.812316715542522
2.8044965786901277
2.777126099706745
2.736070381231672
2.684261974584555
2.622678396871945
2.5610948191593352
2.4995112414467253
2.39980449657869
2.280547409579668
2.1818181818181817
2.090909090909091
2.003910068426197
1.920821114369501
1.8406647116324533
1.7634408602150538
1.686217008797654
1.6099706744868034
1.544477028347996
1.4868035190615836
1.4252199413489737
1.364613880742913
1.3079178885630498
1.2561094819159335
1.2111436950146628
1.1720430107526882
1.141739980449658
1.1192570869990224
1.1055718475073313
1.099706744868035
1.1006842619745845
1.1065493646138806
1.115347018572825
1.1251221896383188
1.1348973607038124
1.1436950146627567
1.1515151515151516
1.1583577712609971
1.163245356793744
1.1681329423264908
1.1720430107526882
1.1759530791788857
1.1779081133919844
1.1788856304985338
1.176930596285435
1.1681329423264908
1.155425219941349
1.1466275659824048
1.1515151515151516
1.1827956989247312
1.252199413489736
1.3655913978494625
1.521016617790811
1.7126099706744868
1.9266862170087975
2.1436950146627565
2.3225806451612905
2.4672531769305963
2.601173020527859
2.7067448680351904
2.780058651026393
2.822091886608016
2.835777126099707
2.8260019550342133
2.7996089931573804
2.7595307917888565
2.7096774193548385
2.6510263929618767
2.591397849462365
2.5288367546432062
2.4574780058651027
2.3812316715542523
2.3010752688172045
2.217986314760508
2.132942326490713
2.046920821114369
1.9608993157380252
1.8748778103616808
1.7878787878787878
1.7028347996089932
1.6217008797653958
1.5542521994134897
1.495601173020528
1.4349951124144673
1.3773216031280548
1.3255131964809383
1.2805474095796676
1.2424242424242424
1.2111436950146628
1.187683284457478
1.1710654936461389
1.163245356793744
1.1612903225806452
1.164222873900293
1.1710654936461389
1.1779081133919844
1.1837732160312806
1.1886608015640274
1.1925708699902249
1.1945259042033236
1.1935483870967742
1.1915933528836755
1.1867057673509287
1.1779081133919844
1.163245356793744
1.144672531769306
1.130987292277615
1.121212121212121
1.118279569892473
1.1368523949169111
1.1925708699902249
1.2961876832844574
1.4496578690127078
1.6471163245356797
1.873900293255132
2.1114369501466275
2.3391984359726297
2.539589442815249
2.686217008797654
2.7869012707722387
2.863147605083089
2.9100684261974585
2.9266862170087977
2.916911045943304
2.886608015640274
2.841642228739003
2.7839687194525906
2.7155425219941347
2.6373411534701856
2.5532746823069403
2.466275659824047
2.386119257086999
2.3088954056695994
2.2248289345063537
2.136852394916911
2.04594330400782
1.95405669599218
1.8621700879765395
1.7732160312805474
1.6871945259042034
1.6041055718475072
1.525904203323558
1.4506353861192571
1.3900293255131966
1.3391984359726294
1.2873900293255132
1.238514173998045
1.1945259042033236
1.1583577712609971
1.130987292277615
1.1114369501466277
1.1006842619745845
1.096774193548387
1.0977517106549364
1.1016617790811338
1.10752688172043
1.1143695014662756
1.121212121212121
1.1251221896383188
1.126099706744868
1.1241446725317692
1.1202346041055715
1.1143695014662756
1.1055718475073313
1.0918866080156402
1.0733137829912025
1.050830889540567
1.029325513196481
1.0175953079178883
1.021505376344086
1.050830889540567
1.1202346041055715
1.2394916911045943
1.4115347018572826
1.6265884652981428
1.8670576735092863
2.112414467253177
2.3411534701857284
2.5376344086021505
2.6930596285435
2.803519061583578
2.8670576735092865
2.89345063538612
2.898338220918866
2.881720430107527
2.8475073313782997
2.7976539589442817
2.736070381231672
2.664711632453568
2.587487781036168
2.505376344086021
2.420332355816227
2.333333333333333
2.254154447702835
2.179863147605083
2.0987292277614857
2.0127077223851417
1.9257086999022484
1.8387096774193548
1.75366568914956
1.6705767350928642
1.590420332355816
1.5141739980449658
1.439882697947214
1.3695014662756595
1.3069403714565004
1.2590420332355816
1.2209188660801564
1.181818181818182
1.1485826001955035
1.1241446725317692
1.1065493646138806
1.0957966764418376
1.0918866080156402
1.0928641251221896
1.099706744868035
1.10752688172043
1.115347018572825
1.1231671554252198
1.130987292277615
1.1358748778103618
1.1397849462365592
1.1407624633431086
1.1378299120234605
1.1300097751710656
1.118279569892473
1.1006842619745845
1.0791788856304985
1.0576735092864125
1.0439882697947214
1.050830889540567
1.0791788856304985
1.1397849462365592
1.2502443792766371
1.412512218963832
1.6187683284457477
1.8543499511241448
2.0987292277614857
2.3313782991202348
2.532746823069404
2.69208211143695
2.8084066471163247
2.8826979472140764
2.916911045943304
2.919843597262952
2.903225806451613
2.8670576735092865
2.81622678396872
2.7546432062561097
2.6852394916911044
2.6099706744868034
2.529814271749756
2.4457478005865103
2.358748778103617
2.270772238514174
2.1915933528836757
2.1163245356793743
2.034213098729228
1.948191593352884
1.8592375366568916
1.772238514173998
1.686217008797654
1.603128054740958
1.5249266862170088
1.4516129032258065
1.3812316715542523
1.3157380254154447
1.2570869990224829
1.2121212121212122
1.176930596285435
1.144672531769306
1.1192570869990224
1.1006842619745845
1.0899315738025417
1.086021505376344
1.0879765395894427
1.0928641251221896
1.1016617790811338
1.110459433040078
1.1163245356793745
1.1231671554252198
1.1290322580645162
1.130987292277615
1.1290322580645162
1.1251221896383188
1.118279569892473
1.1065493646138806
1.0909090909090908
1.0703812316715542
1.0488758553274682
1.032258064516129
1.0312805474095796
1.0576735092864125
1.1094819159335287
1.1945259042033236
1.3313782991202343
1.5141739980449658
1.7302052785923754
1.959921798631476
2.1847507331378297
2.3870967741935485
2.5532746823069403
2.677419354838709
2.758553274682307
2.80058651026393
2.811339198435973
2.7976539589442817
2.766373411534702
2.719452590420332
2.659824046920821
2.592375366568915
2.5190615835777126
2.4408602150537635
2.357771260997068
2.2737047898338223
2.187683284457478
2.1006842619745845
2.0127077223851417
1.9345063538611929
1.8631476050830889
1.7859237536656891
1.7067448680351909
1.6265884652981428
1.547409579667644
1.4701857282502444
1.3958944281524928
1.3264907135874875
1.2619745845552297
1.203323558162268
1.152492668621701
1.1173020527859236
1.0928641251221896
1.0703812316715542
1.053763440860215
1.043010752688172
1.0391006842619743
1.040078201368524
1.0449657869012707
1.053763440860215
1.0654936461388074
1.078201368523949
1.088954056695992
1.0977517106549364
1.1065493646138806
1.1143695014662756
1.1192570869990224
1.121212121212121
1.1202346041055715
1.118279569892473
1.1143695014662756
1.1085043988269794
1.099706744868035
1.093841642228739
1.0987292277614855
1.1251221896383188
1.1691104594330402
1.241446725317693
1.3626588465298142
1.530791788856305
1.7380254154447703
1.9667644183773216
2.198435972629521
2.4144672531769307
2.5992179863147604
2.744868035190616
2.8475073313782997
2.909090909090909
2.935483870967742
2.9345063538611926
2.913000977517106
2.877810361681329
2.83088954056696
2.774193548387097
2.7096774193548385
2.6392961876832843
2.5640273704789838
2.4838709677419355
2.39980449657869
2.312805474095797
2.2218963831867056
2.139784946236559
2.0625610948191597
1.9765395894428155
1.889540566959922
1.804496578690127
1.721407624633431
1.6412512218963833
1.564027370478983
1.4916911045943304
1.426197458455523
1.3685239491691104
1.3186705767350928
1.2776148582600195
1.249266862170088
1.2287390029325511
1.2101661779081134
1.1945259042033236
1.1827956989247312
1.176930596285435
1.1759530791788857
1.176930596285435
1.1798631476050832
1.1827956989247312
1.1837732160312806
1.1827956989247312
1.1827956989247312
1.1827956989247312
1.1788856304985338
1.1720430107526882
1.1622678396871946
1.1485826001955035
1.130987292277615
1.1143695014662756
1.10752688172043
1.1192570869990224
1.163245356793744
1.2512218963831867
1.3900293255131966
1.544477028347996
1.7174975562072337
1.9345063538611929
2.1681329423264906
2.3919843597262958
2.589442815249267
2.7468230694037143
2.859237536656892
2.929618768328446
2.961876832844575
2.962854349951124
2.93841642228739
2.8993157380254155
2.8484848484848486
2.7859237536656893
2.7145650048875853
2.636363636363636
2.5513196480938416
2.462365591397849
2.3704789833822093
2.2766373411534704
2.182795698924731
2.088954056695992
1.9951124144672527
1.9012707722385145
1.8191593352883677
1.7438905180840665
1.66177908113392
1.5786901270772238
1.4965786901270772
1.4173998044965788
1.343108504398827
1.2756598240469208
1.2160312805474096
1.164222873900293
1.1221896383186705
1.088954056695992
1.067448680351906
1.0557184750733135
1.04594330400782
1.0410557184750733
1.0410557184750733
1.0449657869012707
1.0498533724340176
1.0557184750733135
1.06158357771261
1.0654936461388074
1.067448680351906
1.0664711632453567
1.0625610948191593
1.0596285434995112
1.0557184750733135
1.0449657869012707
1.0283479960899315
1.007820136852395
0.9882697947214076
0.978494623655914
0.9912023460410556
1.040078201368524
1.1368523949169111
1.2873900293255132
1.487781036168133
1.6881720430107527
1.8885630498533723
2.115347018572825
2.335288367546432
2.527859237536657
2.679374389051808
2.7869012707722387
2.8514173998044967
2.877810361681329
2.8719452590420333
2.8426197458455524
2.795698924731183
2.7419354838709675
2.6823069403714563
2.610948191593353
2.532746823069404
2.449657869012708
2.3626588465298144
2.2737047898338223
2.182795698924731
2.09188660801564
2.0019550342130987
1.913978494623656
1.825024437927664
1.737047898338221
1.6608015640273706
1.5913978494623655
1.5161290322580645
1.4408602150537635
1.3685239491691104
1.3010752688172045
1.2394916911045943
1.18475073313783
1.1368523949169111
1.0957966764418376
1.0606060606060606
1.0342130987292275
1.0205278592375366
1.0156402737047898
1.0146627565982405
1.0273704789833822
1.04594330400782
1.0586510263929618
1.0684261974584557
1.0762463343108504
1.0811339198435972
1.083088954056696
1.083088954056696
1.0811339198435972
1.0762463343108504
1.0733137829912025
1.0684261974584557
1.056695992179863
1.040078201368524
1.0234604105571847
1.0146627565982405
1.024437927663734
1.0654936461388074
1.1505376344086022
1.2873900293255132
1.4731182795698925
1.6950146627565983
1.9042033235581624
2.099706744868035
2.3059628543499517
2.49266862170088
2.644183773216031
2.7546432062561097
2.825024437927664
2.857282502443793
2.8582600195503423
2.834799608993157
2.7947214076246336
2.740957966764418
2.677419354838709
2.6148582600195502
2.5513196480938416
2.4789833822091887
2.401759530791789
2.3196480938416424
2.233626588465298
2.144672531769306
2.0547409579667644
1.963831867057673
1.873900293255132
1.7859237536656891
1.699902248289345
1.6275659824046922
1.563049853372434
1.4926686217008798
1.423264907135875
1.3558162267839686
1.2932551319648091
1.2365591397849462
1.187683284457478
1.1485826001955035
1.1173020527859236
1.0957966764418376
1.0801564027370478
1.0713587487781036
1.0713587487781036
1.0762463343108504
1.0811339198435972
1.0850439882697946
1.088954056695992
1.0909090909090908
1.0928641251221896
1.093841642228739
1.0948191593352885
1.0948191593352885
1.093841642228739
1.0879765395894427
1.0821114369501466
1.0742913000977516
1.0586510263929618
1.0391006842619743
1.0195503421309873
1.007820136852395
1.0146627565982405
1.053763440860215
1.1368523949169111
1.2658846529814272
1.4389051808406648
1.6451612903225807
1.866080156402737
2.056695992179863
2.218963831867057
2.375366568914956
2.505376344086021
2.601173020527859
2.66177908113392
2.6901270772238512
2.6911045943304006
2.670576735092864
2.632453567937439
2.5806451612903225
2.520039100684262
2.458455522971652
2.3978494623655915
2.3304007820136854
2.259042033235582
2.185728250244379
2.1114369501466275
2.035190615835777
1.9579667644183771
1.878787878787879
1.7986314760508308
1.7194525904203324
1.6412512218963833
1.5669599217986314
1.5063538611925709
1.452590420332356
1.3949169110459434
1.3391984359726294
1.2873900293255132
1.241446725317693
1.2013685239491692
1.1681329423264908
1.1407624633431086
1.121212121212121
1.1094819159335287
1.1036168132942326
1.1065493646138806
1.1143695014662756
1.1251221896383188
1.1378299120234605
1.152492668621701
1.1652003910068427
1.176930596285435
1.1867057673509287
1.1925708699902249
1.1964809384164223
1.1974584555229717
1.1964809384164223
1.1935483870967742
1.1915933528836755
1.1886608015640274
1.181818181818182
1.1759530791788857
1.1788856304985338
1.2023460410557183
1.2580645161290325
1.3548387096774193
1.4965786901270772
1.6793743890518085
1.89247311827957
2.117302052785924
2.30791788856305
2.4682306940371457
2.6207233626588464
2.7468230694037143
2.8377321603128056
2.89247311827957
2.9149560117302054
2.911045943304008
2.8856304985337244
2.844574780058651
2.790811339198436
2.727272727272727
2.6559139784946235
2.5865102639296187
2.5161290322580645
2.4379276637341154
2.35386119257087
2.2668621700879767
2.1788856304985336
2.088954056695992
1.9980449657869013
1.90811339198436
1.8172043010752688
1.7272727272727273
1.640273704789834
1.5669599217986314
1.5034213098729228
1.4379276637341154
1.375366568914956
1.3196480938416422
1.270772238514174
1.227761485826002
1.1935483870967742
1.1681329423264908
1.1505376344086022
1.13880742913001
1.1329423264907137
1.1319648093841643
1.1358748778103618
1.1407624633431086
1.1466275659824048
1.152492668621701
1.1573802541544478
1.1612903225806452
1.164222873900293
1.164222873900293
1.163245356793744
1.160312805474096
1.1544477028347997
1.144672531769306
1.1358748778103618
1.126099706744868
1.1143695014662756
1.1124144672531768
1.1348973607038124
1.195503421309873
1.3040078201368523
1.4633431085043989
1.6666666666666667
1.8993157380254155
2.1417399804496577
2.3743890518084068
2.558162267839687
2.6989247311827955
2.820136852394917
2.9100684261974585
2.964809384164223
2.9853372434017595
2.978494623655914
2.951124144672532
2.90811339198436
2.850439882697948
2.782013685239492
2.704789833822092
2.621700879765396
2.541544477028348
2.462365591397849
2.3743890518084068
2.2825024437927666
2.189638318670577
2.0977517106549364
2.005865102639296
1.913978494623656
1.822091886608016
1.7311827956989247
1.6441837732160314
1.5610948191593352
1.4916911045943304
1.434017595307918
1.3734115347018572
1.3147605083088951
1.2619745845552297
1.2160312805474096
1.176930596285435
1.144672531769306
1.1202346041055715
1.1036168132942326
1.0948191593352885
1.0918866080156402
1.093841642228739
1.099706744868035
1.10752688172043
1.115347018572825
1.1221896383186705
1.1280547409579669
1.1300097751710656
1.1280547409579669
1.1231671554252198
1.1173020527859236
1.1085043988269794
1.0957966764418376
1.0791788856304985
1.0654936461388074
1.0576735092864125
1.0557184750733135
1.0733137829912025
1.126099706744868
1.2267839687194526
1.3792766373411536
1.5786901270772238
1.8113391984359728
2.0576735092864125
2.2981427174975564
2.5131964809384164
2.6911045943304006
2.8132942326490715
2.889540566959922
2.941348973607038
2.964809384164223
2.960899315738025
2.935483870967742
2.89345063538612
2.838709677419355
2.774193548387097
2.702834799608993
2.6265884652981426
2.5454545454545454
2.469208211143695
2.3958944281524928
2.314760508308896
2.228739002932551
2.1388074291300097
2.046920821114369
1.9550342130987293
1.8641251221896384
1.7761485826001957
1.6920821114369502
1.611925708699902
1.5347018572825024
1.4613880742913
1.4027370478983383
1.3528836754643203
1.3020527859237536
1.2551319648093842
1.2140762463343109
1.1808406647116323
1.1564027370478984
1.1407624633431086
1.1329423264907137
1.1329423264907137
1.1378299120234605
1.144672531769306
1.1534701857282503
1.1612903225806452
1.1671554252199414
1.1710654936461389
1.173998044965787
1.1749755620723363
1.173998044965787
1.1700879765395895
1.1622678396871946
1.1495601173020529
1.1319648093841643
1.110459433040078
1.0899315738025417
1.0801564027370478
1.0879765395894427
1.1221896383186705
1.1994134897360704
1.327468230694037
1.5073313782991202
1.729227761485826
1.9745845552297163
