ppg
0.9931573802541545
0.9951124144672532
0.9960899315738024
0.9960899315738024
0.9960899315738024
0.9960899315738024
0.9960899315738024
0.9960899315738024
0.9951124144672532
0.9921798631476052
0.9863147605083088
0.9833822091886608
0.9824046920821116
0.9775171065493646
0.9716520039100685
0.9706744868035192
0.981427174975562
1.0097751710654936
1.06158357771261
1.144672531769306
1.2619745845552297
1.409579667644184
1.5806451612903225
1.7644183773216031
1.9257086999022484
2.0684261974584555
2.218963831867057
2.360703812316716
2.486803519061584
2.5943304007820136
2.6832844574780057
2.7565982404692084
2.81622678396872
2.863147605083089
2.9012707722385143
2.932551319648094
2.9501466275659824
2.9589442815249267
2.9667644183773216
2.970674486803519
2.9687194525904204
2.960899315738025
2.9472140762463344
2.9266862170087977
2.900293255131965
2.866080156402737
2.8211143695014664
2.766373411534702
2.702834799608993
2.6373411534701856
2.5698924731182795
2.4946236559139785
2.4144672531769307
2.335288367546432
2.259042033235582
2.188660801564027
2.126099706744868
2.072336265884653
2.027370478983382
1.991202346041056
1.962854349951124
1.9423264907135875
1.9257086999022484
1.911045943304008
1.8963831867057677
1.8836754643206255
1.8699902248289344
1.8543499511241448
1.835777126099707
1.8132942326490715
1.7898338220918866
1.7663734115347018
1.7409579667644184
1.7126099706744868
1.686217008797654
1.6627565982404693
1.6373411534701858
1.6109481915933528
1.5826001955034212
1.5532746823069403
1.52297165200391
1.4926686217008798
1.4633431085043989
1.4349951124144673
1.409579667644184
1.3861192570869991
1.3665689149560116
1.3499511241446724
1.3313782991202343
1.3118279569892473
1.2932551319648091
1.2746823069403714
1.2551319648093842
1.2365591397849462
1.2179863147605083
1.1994134897360704
1.1827956989247312
1.1671554252199414
1.1534701857282503
1.144672531769306
1.1378299120234605
1.130987292277615
1.1251221896383188
1.1202346041055715
1.1163245356793745
1.1124144672531768
1.1085043988269794
1.104594330400782
1.099706744868035
1.0918866080156402
1.0840664711632453
1.0801564027370478
1.0762463343108504
1.0684261974584557
1.0586510263929618
1.0488758553274682
1.040078201368524
1.0332355816226784
1.0283479960899315
1.0263929618768328
1.0332355816226784
1.0469208211143697
1.0547409579667644
1.0586510263929618
1.06158357771261
1.064516129032258
1.0635386119257086
1.0606060606060606
1.0557184750733135
1.050830889540567
1.0469208211143697
1.0410557184750733
1.0342130987292275
1.0263929618768328
1.0205278592375366
1.0166177908113392
1.0175953079178883
1.029325513196481
1.053763440860215
1.0987292277614855
1.1700879765395895
1.2727272727272727
1.4076246334310851
1.5669599217986314
1.7429130009775171
1.9257086999022484
2.104594330400782
2.270772238514174
2.401759530791789
2.50733137829912
2.6099706744868034
2.701857282502444
2.782013685239492
2.8475073313782997
2.9012707722385143
2.9442815249266863
2.9775171065493646
3.002932551319648
3.0205278592375366
3.0303030303030303
3.034213098729228
3.0283479960899315
3.01564027370479
3.002932551319648
2.986314760508309
2.964809384164223
2.935483870967742
2.898338220918866
2.852394916911046
2.7976539589442817
2.736070381231672
2.667644183773216
2.593352883675464
2.5219941348973607
2.452590420332356
2.377321603128055
2.302052785923754
2.23069403714565
2.167155425219941
2.112414467253177
2.067448680351906
2.034213098729228
2.0087976539589443
1.989247311827957
1.9736070381231672
1.9589442815249267
1.945259042033236
1.9315738025415443
1.9159335288367547
1.8973607038123168
1.8758553274682308
1.8514173998044965
1.8240469208211143
1.7947214076246334
1.7663734115347018
1.7390029325513197
1.7096774193548387
1.6813294232649072
1.6578690127077225
1.6363636363636365
1.611925708699902
1.58455522971652
1.5542521994134897
1.5239491691104594
1.4946236559139785
1.4652981427174976
1.4379276637341154
1.412512218963832
1.3870967741935485
1.3616813294232648
1.33822091886608
1.3196480938416422
1.3049853372434017
1.2903225806451613
1.2756598240469208
1.260019550342131
1.2453567937438903
1.2297165200391007
1.2140762463343109
1.198435972629521
1.1827956989247312
1.1691104594330402
1.1564027370478984
1.1485826001955035
1.142717497556207
1.1348973607038124
1.126099706744868
1.115347018572825
1.104594330400782
1.093841642228739
1.0840664711632453
1.0332355816226784
1.0381231671554252
1.0576735092864125
1.0987292277614855
1.1681329423264908
1.2502443792766371
1.3519061583577712
1.490713587487781
1.656891495601173
1.8387096774193548
2.026392961876833
2.210166177908113
2.380254154447703
2.5317693059628543
2.66177908113392
2.771260997067449
2.86217008797654
2.9257086999022484
2.970674486803519
3.0146627565982405
3.0527859237536656
3.083088954056696
3.1055718475073317
3.120234604105572
3.1300097751710654
3.133919843597263
3.131964809384164
3.12316715542522
3.10752688172043
3.085043988269794
3.0557184750733137
3.018572825024438
2.975562072336266
2.9237536656891496
2.8641251221896384
2.7966764418377323
2.7223851417399803
2.641251221896383
2.555229716520039
2.469208211143695
2.386119257086999
2.3069403714565007
2.2404692082111435
2.185728250244379
2.1378299120234603
2.096774193548387
2.06158357771261
2.034213098729228
2.0127077223851417
1.994134897360704
1.9775171065493649
1.9608993157380252
1.9442815249266865
1.9257086999022484
1.905180840664712
1.8866080156402736
1.8670576735092863
1.842619745845552
1.81524926686217
1.7859237536656891
1.7565982404692082
1.7243401759530792
1.6901270772238517
1.6559139784946235
1.6217008797653958
1.5884652981427174
1.5571847507331378
1.5327468230694037
1.5102639296187683
1.4868035190615836
1.4613880742913
1.435972629521017
1.4115347018572826
1.3870967741935485
1.3607038123167154
1.335288367546432
1.3118279569892473
1.2913000977517106
1.2717497556207231
1.2551319648093842
1.2424242424242424
1.2326490713587488
1.219941348973607
1.206256109481916
1.1925708699902249
1.1798631476050832
1.1671554252199414
1.155425219941349
1.1436950146627567
1.1329423264907137
1.1231671554252198
1.1124144672531768
1.1055718475073313
1.099706744868035
1.0909090909090908
1.083088954056696
1.075268817204301
1.067448680351906
1.0625610948191593
1.0606060606060606
1.0596285434995112
1.0586510263929618
1.0586510263929618
1.0586510263929618
1.0586510263929618
1.0596285434995112
1.06158357771261
1.06158357771261
1.0606060606060606
1.0586510263929618
1.056695992179863
1.0557184750733135
1.053763440860215
1.050830889540567
1.0488758553274682
1.04594330400782
1.040078201368524
1.0371456500488758
1.0361681329423265
1.0312805474095796
1.0234604105571847
1.0166177908113392
1.0224828934506354
1.04594330400782
1.0918866080156402
1.166177908113392
1.273704789833822
1.4115347018572826
1.5718475073313782
1.7233626588465298
1.869012707722385
2.0303030303030303
2.1915933528836757
2.343108504398827
2.4789833822091887
2.5972629521016617
2.696969696969697
2.7810361681329425
2.8514173998044967
2.909090909090909
2.956011730205278
2.994134897360704
3.01564027370479
3.024437927663734
3.03128054740958
3.034213098729228
3.03128054740958
3.0234604105571847
3.010752688172043
2.992179863147605
2.9696969696969697
2.9423264907135875
2.90811339198436
2.865102639296188
2.8181818181818183
2.763440860215054
2.6989247311827955
2.627565982404692
2.549364613880743
2.4672531769305963
2.3841642228739004
2.303030303030303
2.2277614858260018
2.161290322580645
2.104594330400782
2.059628543499511
2.0234604105571847
1.994134897360704
1.970674486803519
1.951124144672532
1.9345063538611929
1.9188660801564028
1.902248289345064
1.884652981427175
1.865102639296188
1.844574780058651
1.822091886608016
1.7986314760508308
1.772238514173998
1.747800586510264
1.7253176930596286
1.7008797653958945
1.6735092864125125
1.64613880742913
1.616813294232649
1.587487781036168
1.5571847507331378
1.5288367546432062
1.5034213098729228
1.47702834799609
1.4486803519061584
1.4213098729227762
1.3998044965786902
1.3812316715542523
1.3587487781036167
1.335288367546432
1.3128054740957966
1.2932551319648091
1.2756598240469208
1.2580645161290325
1.2424242424242424
1.227761485826002
1.2130987292277615
1.198435972629521
1.187683284457478
1.1779081133919844
1.1671554252199414
1.1564027370478984
1.1456500488758554
1.1358748778103618
1.1280547409579669
1.121212121212121
1.1143695014662756
1.10752688172043
1.099706744868035
1.0899315738025417
1.0821114369501466
1.0791788856304985
1.078201368523949
1.0762463343108504
1.0733137829912025
1.0703812316715542
1.0664711632453567
1.06158357771261
1.056695992179863
1.0527859237536656
1.0498533724340176
1.0488758553274682
1.0478983382209188
1.0488758553274682
1.050830889540567
1.0498533724340176
1.0488758553274682
1.0478983382209188
1.0469208211143697
1.043010752688172
1.0381231671554252
1.0312805474095796
1.0273704789833822
1.0312805474095796
1.0498533724340176
1.088954056695992
1.142717497556207
1.217008797653959
1.3255131964809383
1.4623655913978495
1.6207233626588464
1.7898338220918866
1.959921798631476
2.1221896383186705
2.269794721407625
2.40078201368524
2.5112414467253177
2.6041055718475072
2.6695992179863146
2.717497556207233
2.7624633431085046
2.8025415444770285
2.834799608993157
2.860215053763441
2.878787878787879
2.8905180840664717
2.897360703812317
2.898338220918866
2.8944281524926687
2.886608015640274
2.874877810361681
2.857282502443793
2.834799608993157
2.5532746823069403
2.679374389051808
2.782013685239492
2.8533724340175954
2.903225806451613
2.949169110459433
2.9902248289345064
3.027370478983382
3.056695992179863
3.0791788856304985
3.0948191593352883
3.1065493646138806
3.113391984359726
3.115347018572825
3.113391984359726
3.104594330400782
3.090909090909091
3.0762463343108504
3.0557184750733137
3.026392961876833
2.9872922776148583
2.9374389051808407
2.877810361681329
2.809384164222874
2.73802541544477
2.6637341153470184
2.590420332355816
2.525904203323558
2.4652981427174976
2.4027370478983383
2.347996089931574
2.304985337243402
2.272727272727273
2.2482893450635384
2.231671554252199
2.219941348973607
2.209188660801564
2.1974584555229715
2.185728250244379
2.1700879765395893
2.1515151515151514
2.132942326490713
2.113391984359726
2.090909090909091
2.064516129032258
2.035190615835777
2.004887585532747
1.9726295210166176
1.9403714565004888
1.90811339198436
1.8729227761485825
1.836754643206256
1.782991202346041
1.7194525904203324
1.672531769305963
1.6363636363636365
1.6050830889540566
1.573802541544477
1.542521994134897
1.5141739980449658
1.487781036168133
1.4643206256109482
1.4428152492668622
1.4193548387096775
1.3958944281524928
1.3763440860215057
1.3587487781036167
1.3372434017595307
1.313782991202346
1.2913000977517106
1.2727272727272727
1.2590420332355816
1.249266862170088
1.2404692082111437
1.2336265884652982
1.2267839687194526
1.219941348973607
1.217008797653959
1.2121212121212122
1.203323558162268
1.1925708699902249
1.181818181818182
1.1730205278592376
1.1652003910068427
1.1583577712609971
1.1485826001955035
1.1378299120234605
1.1280547409579669
1.1163245356793745
1.104594330400782
1.0957966764418376
1.0899315738025417
1.0840664711632453
1.078201368523949
1.0713587487781036
1.0654936461388074
1.0606060606060606
1.0586510263929618
1.0576735092864125
1.056695992179863
1.056695992179863
1.056695992179863
1.0576735092864125
1.0586510263929618
1.0576735092864125
1.0557184750733135
1.050830889540567
1.0439882697947214
1.0342130987292275
1.0263929618768328
1.0224828934506354
1.0254154447702837
1.0420332355816226
1.0811339198435972
1.152492668621701
1.238514173998045
1.3450635386119256
1.4916911045943304
1.6666666666666667
1.8563049853372435
2.047898338220919
2.231671554252199
2.39980449657869
2.548387096774193
2.678396871945259
2.788856304985337
2.8797653958944283
2.9423264907135875
2.9872922776148583
3.0332355816226784
3.074291300097752
3.110459433040078
3.139784946236559
3.160312805474096
3.1739980449657867
3.1808406647116323
3.1837732160312804
3.1818181818181817
3.176930596285435
3.1681329423264906
3.1515151515151514
3.129032258064516
3.102639296187683
3.065493646138808
3.0195503421309877
2.9657869012707723
2.903225806451613
2.832844574780059
2.757575757575758
2.681329423264907
2.606060606060606
2.532746823069404
2.469208211143695
2.41544477028348
2.3655913978494625
2.3225806451612905
2.286412512218964
2.2551319648093844
2.2277614858260018
2.2082111436950145
2.1925708699902247
2.177908113391984
2.161290322580645
2.142717497556207
2.1221896383186705
2.101661779081134
2.080156402737048
2.0557184750733137
2.0283479960899315
1.9990224828934504
1.9667644183773216
1.9305962854349952
1.8905180840664717
1.8523949169110456
1.8162267839687196
1.780058651026393
1.7429130009775171
1.710654936461388
1.6803519061583578
1.6480938416422288
1.6187683284457477
1.5923753665689149
1.5698924731182795
1.5493646138807429
1.5268817204301075
1.5024437927663734
1.47702834799609
1.452590420332356
1.4281524926686218
1.4027370478983383
1.383186705767351
1.3655913978494625
1.3440860215053765
1.3235581622678396
1.3040078201368523
1.2854349951124144
1.2697947214076246
1.2570869990224829
1.2482893450635386
1.2375366568914956
1.2258064516129032
1.217008797653959
1.2121212121212122
1.2101661779081134
1.206256109481916
1.1994134897360704
1.1896383186705768
1.176930596285435
1.1612903225806452
1.1436950146627567
1.126099706744868
1.1114369501466277
1.1006842619745845
1.0918866080156402
1.0850439882697946
1.0811339198435972
1.0791788856304985
1.0733137829912025
1.0664711632453567
1.06158357771261
1.0586510263929618
1.0576735092864125
1.056695992179863
1.056695992179863
1.056695992179863
1.056695992179863
1.056695992179863
1.0576735092864125
1.0586510263929618
1.0576735092864125
1.056695992179863
1.0547409579667644
1.050830889540567
1.0439882697947214
1.0342130987292275
1.0234604105571847
1.013685239491691
1.0068426197458455
1.007820136852395
1.0224828934506354
1.0498533724340176
1.099706744868035
1.1827956989247312
1.300097751710655
1.4506353861192571
1.6275659824046922
1.823069403714565
2.026392961876833
2.2267839687194524
2.41544477028348
2.582600195503421
2.7282502443792764
2.838709677419355
2.921798631476051
3.0
3.070381231671554
3.1300097751710654
3.179863147605083
3.2238514173998043
3.260997067448681
3.290322580645161
3.312805474095797
3.3304007820136854
3.3421309872922778
3.3421309872922778
3.3362658846529816
3.329423264907136
3.3196480938416424
3.3069403714565007
3.2883675464320627
3.260997067448681
3.2238514173998043
3.177908113391984
3.1192570869990224
3.050830889540567
2.9765395894428157
2.897360703812317
2.823069403714565
2.750733137829912
2.674486803519061
2.6021505376344085
2.536656891495601
2.4789833822091887
2.4330400782013686
2.398826979472141
2.372434017595308
2.3499511241446727
2.329423264907136
2.3098729227761488
2.291300097751711
2.269794721407625
2.2453567937438903
2.219941348973607
2.1955034213098727
2.1700879765395893
2.145650048875855
2.1192570869990224
2.088954056695992
2.0557184750733137
2.018572825024438
1.978494623655914
1.9364613880742916
1.8983382209188664
1.8641251221896384
1.8299120234604105
1.7956989247311828
1.761485826001955
1.7272727272727273
1.667644183773216
1.598240469208211
1.5503421309872922
1.5151515151515151
1.487781036168133
1.466275659824047
1.4506353861192571
1.435972629521017
1.418377321603128
1.3998044965786902
1.383186705767351
1.3655913978494625
1.346041055718475
1.3284457478005864
1.3118279569892473
1.295210166177908
1.281524926686217
1.2697947214076246
1.2590420332355816
1.2512218963831867
1.2443792766373412
1.2355816226783969
1.2258064516129032
1.217008797653959
1.2101661779081134
1.2013685239491692
1.1915933528836755
1.181818181818182
1.1710654936461389
1.163245356793744
1.1564027370478984
1.1534701857282503
1.1515151515151516
1.1485826001955035
1.1456500488758554
1.1436950146627567
1.142717497556207
1.1407624633431086
1.1378299120234605
1.133919843597263
1.1290322580645162
1.1241446725317692
1.121212121212121
1.1202346041055715
1.1192570869990224
1.1202346041055715
1.1192570869990224
1.1163245356793745
1.1124144672531768
1.104594330400782
1.0957966764418376
1.088954056695992
1.0840664711632453
1.0899315738025417
1.1143695014662756
1.1622678396871946
1.2228739002932552
1.3049853372434017
1.423264907135875
1.56891495601173
1.7341153470185728
1.90811339198436
2.0791788856304985
2.241446725317693
2.388074291300098
2.517106549364614
2.627565982404692
2.720430107526881
2.798631476050831
2.8533724340175954
2.89247311827957
2.932551319648094
2.967741935483871
2.99902248289345
3.0254154447702835
3.04594330400782
3.064516129032258
3.0791788856304985
3.088954056695992
3.0948191593352883
3.096774193548387
3.0879765395894427
3.072336265884653
3.053763440860215
3.0303030303030303
3.0
2.959921798631476
2.909090909090909
2.849462365591398
2.782013685239492
2.7067448680351904
2.6285434995112413
2.5513196480938416
2.47702834799609
2.412512218963832
2.3548387096774195
2.300097751710655
2.251221896383187
2.210166177908113
2.174975562072336
2.1436950146627565
2.115347018572825
2.088954056695992
2.064516129032258
2.042033235581622
2.021505376344086
2.0019550342130987
1.9824046920821117
1.959921798631476
1.932551319648094
1.9042033235581624
1.8758553274682308
1.8465298142717497
1.8162267839687196
1.782991202346041
1.7497556207233629
1.7165200391006843
1.6842619745845553
1.6500488758553276
1.616813294232649
1.587487781036168
1.5571847507331378
1.5278592375366569
1.499511241446725
1.4721407624633431
1.4457478005865103
1.4193548387096775
1.393939393939394
1.370478983382209
1.348973607038123
1.327468230694037
1.3098729227761483
1.2942326490713587
1.2766373411534702
1.2570869990224829
1.2375366568914956
1.219941348973607
1.203323558162268
1.187683284457478
1.1720430107526882
1.1573802541544478
1.144672531769306
1.133919843597263
1.1241446725317692
1.115347018572825
1.10752688172043
1.0977517106549364
1.0869990224828934
1.0791788856304985
1.0703812316715542
1.0606060606060606
1.0518084066471165
1.0420332355816226
1.0312805474095796
1.0205278592375366
1.0097751710654936
1.0039100684261977
0.9990224828934506
0.9931573802541545
0.989247311827957
0.9843597262952102
0.9794721407624634
0.9765395894428152
0.9726295210166178
0.967741935483871
0.9657869012707724
0.9648093841642228
0.9638318670576737
0.9657869012707724
0.9696969696969696
0.9687194525904204
0.9657869012707724
0.9618768328445748
0.9560117302052786
0.9501466275659824
0.9433040078201368
0.9345063538611924
0.9266862170087976
0.919843597262952
0.9149560117302052
0.9149560117302052
0.9227761485826002
0.9442815249266864
0.9843597262952102
1.0488758553274682
1.144672531769306
1.2697947214076246
1.4193548387096775
1.58455522971652
1.7575757575757576
1.9315738025415443
2.0977517106549364
2.249266862170088
2.366568914956012
2.4613880742913
2.552297165200391
2.63049853372434
2.696969696969697
2.7536656891495603
2.80058651026393
2.838709677419355
2.8699902248289346
2.8963831867057674
2.916911045943304
2.9315738025415445
2.940371456500489
2.9393939393939394
2.930596285434995
2.920821114369501
2.9100684261974585
2.89345063538612
2.870967741935484
2.8396871945259043
2.7996089931573804
2.7497556207233624
2.69208211143695
2.627565982404692
2.557184750733138
2.489736070381232
2.4252199413489737
2.3597262952101663
2.2961876832844577
2.236559139784946
2.1837732160312804
2.139784946236559
2.102639296187683
2.071358748778104
2.04594330400782
2.0283479960899315
2.0117302052785924
1.9931573802541545
1.9745845552297163
1.9560117302052784
1.9345063538611929
1.9090909090909087
1.881720430107527
1.855327468230694
1.828934506353861
1.8025415444770283
1.775171065493646
1.7458455522971652
1.7145650048875856
1.683284457478006
1.6559139784946235
1.6304985337243405
1.6001955034213098
1.5698924731182795
1.5395894428152492
1.5073313782991202
1.4750733137829912
1.4437927663734116
1.41544477028348
1.3890518084066472
1.364613880742913
1.3391984359726294
1.3147605083088951
1.3088954056695992
1.3128054740957966
1.305962854349951
1.2932551319648091
1.2805474095796676
1.2668621700879763
1.252199413489736
1.2375366568914956
1.2228739002932552
1.209188660801564
1.1945259042033236
1.1798631476050832
1.1691104594330402
1.160312805474096
1.1485826001955035
1.1378299120234605
1.1290322580645162
1.121212121212121
1.1143695014662756
1.10752688172043
1.1016617790811338
1.096774193548387
1.0918866080156402
1.0879765395894427
1.083088954056696
1.0811339198435972
1.0801564027370478
1.0762463343108504
1.0694037145650048
1.0635386119257086
1.0586510263929618
1.053763440860215
1.0488758553274682
1.0439882697947214
1.0410557184750733
1.040078201368524
1.0391006842619743
1.0410557184750733
1.0449657869012707
1.0449657869012707
1.043010752688172
1.0381231671554252
1.0312805474095796
1.0224828934506354
1.013685239491691
1.0048875855327468
0.9951124144672532
0.9882697947214076
0.9882697947214076
1.002932551319648
1.0312805474095796
1.0772238514173995
1.1495601173020529
1.2512218963831867
1.380254154447703
1.5288367546432062
1.6901270772238517
1.8543499511241448
2.0127077223851417
2.158357771260997
2.2873900293255134
2.3978494623655915
2.4780058651026398
2.5386119257087
2.5962854349951123
2.6480938416422286
2.6940371456500487
2.7341153470185726
2.766373411534702
2.791788856304985
2.812316715542522
2.8269794721407626
2.8377321603128056
2.844574780058651
2.8484848484848486
2.8455522971652005
2.8367546432062563
2.825024437927664
2.807429130009776
2.782991202346041
2.750733137829912
2.7096774193548385
2.658846529814272
2.601173020527859
2.5376344086021505
2.4701857282502444
2.40078201368524
2.340175953079179
2.2854349951124147
2.232649071358749
2.185728250244379
2.144672531769306
2.1094819159335287
2.080156402737048
2.0547409579667644
2.0332355816226784
2.01564027370479
1.9980449657869013
1.9794721407624636
1.9608993157380252
1.943304007820137
1.9257086999022484
1.906158357771261
1.884652981427175
1.86119257086999
1.836754643206256
1.8103616813294232
1.7810361681329423
1.750733137829912
1.721407624633431
1.6920821114369502
1.6627565982404693
1.6373411534701858
1.6138807429130009
1.5884652981427174
1.5610948191593352
1.5347018572825024
1.5083088954056696
1.479960899315738
1.4545454545454546
1.4301075268817205
1.4076246334310851
1.3870967741935485
1.3665689149560116
1.3470185728250244
1.3313782991202343
1.3176930596285434
1.3010752688172045
1.284457478005865
1.267839687194526
1.2502443792766371
1.2346041055718475
1.219941348973607
1.2052785923753666
1.1906158357771262
1.1759530791788857
1.1612903225806452
1.1505376344086022
1.141739980449658
1.130987292277615
1.1221896383186705
1.1143695014662756
1.10752688172043
1.1026392961876832
1.0977517106549364
1.0918866080156402
1.0840664711632453
1.0772238514173995
1.0713587487781036
1.0684261974584557
1.0664711632453567
1.0625610948191593
1.0557184750733135
1.0478983382209188
1.0410557184750733
1.0332355816226784
1.0273704789833822
1.021505376344086
1.0175953079178883
1.0156402737047898
1.0146627565982405
1.0146627565982405
1.0166177908113392
1.0175953079178883
1.0156402737047898
1.0127077223851415
1.0068426197458455
0.9990224828934506
0.9902248289345064
0.981427174975562
0.9775171065493646
0.9775171065493646
0.9872922776148584
1.013685239491691
1.0527859237536656
1.1094819159335287
1.195503421309873
1.3098729227761483
1.4467253176930597
1.6001955034213098
1.761485826001955
1.9227761485826005
2.078201368523949
2.220918866080156
2.347018572825025
2.4574780058651027
