ppg
1.0234604105571847
1.0195503421309873
1.0156402737047898
1.0127077223851415
1.0087976539589445
1.0068426197458455
1.0048875855327468
1.002932551319648
1.0048875855327468
1.007820136852395
1.0097751710654936
1.010752688172043
1.010752688172043
1.010752688172043
1.010752688172043
1.010752688172043
1.010752688172043
1.010752688172043
1.010752688172043
1.0117302052785924
1.0156402737047898
1.0205278592375366
1.0234604105571847
1.0263929618768328
1.0283479960899315
1.029325513196481
1.0303030303030305
1.032258064516129
1.0391006842619743
1.0557184750733135
1.0869990224828934
1.1397849462365592
1.219941348973607
1.310850439882698
1.418377321603128
1.5620723362658846
1.7311827956989247
1.913978494623656
2.099706744868035
2.2766373411534704
2.4379276637341154
2.578690127077224
2.695014662756598
2.7869012707722387
2.857282502443793
2.902248289345064
2.9286412512218964
2.951124144672532
2.9687194525904204
2.9804496578690127
2.989247311827957
2.9931573802541545
2.991202346041056
2.9824046920821115
2.9657869012707723
2.9423264907135875
2.9100684261974585
2.8670576735092865
2.819159335288368
2.764418377321604
2.697947214076246
2.622678396871945
2.539589442815249
2.453567937438905
2.366568914956012
2.281524926686217
2.2023460410557183
2.131964809384164
2.070381231671554
2.018572825024438
1.9775171065493649
1.943304007820137
1.9120234604105573
1.8826979472140764
1.8543499511241448
1.826001955034213
1.7976539589442817
1.7683284457478006
1.737047898338221
1.704789833822092
1.6715542521994136
1.6383186705767352
1.6041055718475072
1.573802541544477
1.5464320625610948
1.5161290322580645
1.4848484848484849
1.4545454545454546
1.4242424242424243
1.3949169110459434
1.3665689149560116
1.3391984359726294
1.3147605083088951
1.29227761485826
1.2717497556207231
1.2561094819159335
1.2443792766373412
1.2316715542521994
1.2179863147605083
1.2043010752688172
1.1915933528836755
1.1788856304985338
1.1681329423264908
1.1583577712609971
1.1485826001955035
1.1397849462365592
1.1319648093841643
1.1241446725317692
1.118279569892473
1.1143695014662756
1.1085043988269794
1.099706744868035
1.0909090909090908
1.0811339198435972
1.0733137829912025
1.0664711632453567
1.0586510263929618
1.0518084066471165
1.0449657869012707
1.0391006842619743
1.0361681329423265
1.035190615835777
1.032258064516129
1.0283479960899315
1.024437927663734
1.021505376344086
1.0195503421309873
1.018572825024438
1.0175953079178883
1.0166177908113392
1.0146627565982405
1.013685239491691
1.0127077223851415
1.013685239491691
1.0166177908113392
1.0175953079178883
1.018572825024438
1.018572825024438
1.0195503421309873
1.0205278592375366
1.0224828934506354
1.0234604105571847
1.0254154447702837
1.0273704789833822
1.029325513196481
1.0332355816226784
1.0371456500488758
1.040078201368524
1.0420332355816226
1.0478983382209188
1.0606060606060606
1.0850439882697946
1.1300097751710656
1.2013685239491692
1.3020527859237536
1.4330400782013686
1.590420332355816
1.7673509286412512
1.9286412512218964
2.0791788856304985
2.242424242424242
2.40078201368524
2.5434995112414467
2.665689149560117
2.7653958944281527
2.8426197458455524
2.8993157380254155
2.9393939393939394
2.967741935483871
2.9872922776148583
2.9931573802541545
2.992179863147605
2.9902248289345064
2.986314760508309
2.9765395894428157
2.961876832844575
2.940371456500489
2.9100684261974585
2.8699902248289346
2.820136852394917
2.760508308895406
2.6911045943304006
2.6129032258064515
2.536656891495601
2.4604105571847508
2.376344086021505
2.291300097751711
2.209188660801564
2.131964809384164
2.0625610948191597
2.0009775171065494
1.946236559139785
1.8983382209188664
1.8563049853372435
1.818181818181818
1.7849462365591398
1.75366568914956
1.7204301075268815
1.686217008797654
1.651026392961877
1.616813294232649
1.5835777126099706
1.5513196480938416
1.521016617790811
1.4916911045943304
1.4633431085043989
1.436950146627566
1.412512218963832
1.393939393939394
1.3792766373411536
1.3626588465298142
1.3470185728250244
1.332355816226784
1.3196480938416422
1.3088954056695992
1.2991202346041055
1.2913000977517106
1.284457478005865
1.2795698924731185
1.2746823069403714
1.2727272727272727
1.270772238514174
1.267839687194526
1.262952101661779
1.2551319648093842
1.24633431085044
1.2355816226783969
1.2228739002932552
1.2082111436950147
1.1925708699902249
1.1749755620723363
1.1564027370478984
1.1407624633431086
1.126099706744868
1.10752688172043
1.0869990224828934
1.067448680351906
1.0478983382209188
1.0303030303030305
1.0127077223851415
0.9960899315738024
0.9804496578690128
0.9667644183773216
0.9550342130987292
0.9452590420332356
0.9403714565004888
0.9393939393939394
0.93841642228739
0.93841642228739
0.9403714565004888
0.946236559139785
0.9550342130987292
0.967741935483871
0.9824046920821116
0.9990224828934506
1.0166177908113392
1.035190615835777
1.053763440860215
1.072336265884653
1.0899315738025417
1.1065493646138806
1.1221896383186705
1.1368523949169111
1.1495601173020529
1.160312805474096
1.1691104594330402
1.1749755620723363
1.1779081133919844
1.176930596285435
1.1749755620723363
1.1749755620723363
1.1798631476050832
1.1915933528836755
1.217008797653959
1.2649071358748778
1.3401759530791788
1.4467253176930597
1.581622678396872
1.7409579667644184
1.9159335288367547
2.096774193548387
2.274682306940372
2.419354838709677
2.5376344086021505
2.6529814271749754
2.7546432062561097
2.8377321603128056
2.902248289345064
2.949169110459433
2.9824046920821115
3.004887585532747
3.0195503421309877
3.026392961876833
3.027370478983382
3.021505376344086
3.006842619745845
2.986314760508309
2.961876832844575
2.930596285434995
2.8914956011730206
2.8426197458455524
2.7839687194525906
2.7155425219941347
2.638318670576735
2.5562072336265884
2.4711632453567938
2.3870967741935485
2.313782991202346
2.2482893450635384
2.1847507331378297
2.126099706744868
2.075268817204301
2.03128054740958
1.994134897360704
1.962854349951124
1.9345063538611929
1.90811339198436
1.8807429130009776
1.8523949169110456
1.822091886608016
1.7947214076246334
1.7673509286412512
1.7360703812316716
1.7028347996089932
1.6695992179863148
1.6363636363636365
1.6021505376344083
1.5679374389051808
1.533724340175953
1.501466275659824
1.469208211143695
1.4379276637341154
1.4134897360703813
1.392961876832845
1.370478983382209
1.348973607038123
1.3284457478005864
1.3098729227761483
1.29227761485826
1.2766373411534702
1.262952101661779
1.2502443792766371
1.2375366568914956
1.2258064516129032
1.2140762463343109
1.206256109481916
1.2013685239491692
1.195503421309873
1.1886608015640274
1.1808406647116323
1.1720430107526882
1.1652003910068427
1.1593352883675463
1.1534701857282503
1.147605083088954
1.141739980449658
1.1358748778103618
1.133919843597263
1.1348973607038124
1.1348973607038124
1.1329423264907137
1.1290322580645162
1.1251221896383188
1.121212121212121
1.115347018572825
1.1085043988269794
1.1016617790811338
1.0957966764418376
1.0909090909090908
1.0869990224828934
1.086021505376344
1.0869990224828934
1.0879765395894427
1.0879765395894427
1.088954056695992
1.088954056695992
1.088954056695992
1.0899315738025417
1.0909090909090908
1.093841642228739
1.1016617790811338
1.121212121212121
1.1505376344086022
1.1945259042033236
1.2649071358748778
1.3626588465298142
1.487781036168133
1.6363636363636365
1.801564027370479
1.9736070381231672
2.1436950146627565
2.302052785923754
2.442815249266862
2.563049853372434
2.6608015640273703
2.727272727272727
2.7722385141739982
2.8103616813294234
2.8396871945259043
2.860215053763441
2.873900293255132
2.881720430107527
2.8836754643206257
2.881720430107527
2.874877810361681
2.863147605083089
2.844574780058651
2.819159335288368
2.7859237536656893
2.744868035190616
2.695014662756598
2.635386119257087
2.5669599217986314
2.490713587487781
2.410557184750733
2.3274682306940373
2.24633431085044
2.16911045943304
2.096774193548387
2.032258064516129
1.9804496578690127
1.9393939393939397
1.9012707722385145
1.868035190615836
1.8387096774193548
1.812316715542522
1.7878787878787878
1.7634408602150538
1.7390029325513197
1.7126099706744868
1.683284457478006
1.653958944281525
1.6275659824046922
1.6021505376344083
1.573802541544477
1.543499511241447
1.512218963831867
1.4809384164222874
1.4516129032258065
1.423264907135875
1.3958944281524928
1.3695014662756595
1.3440860215053765
1.3206256109481915
1.303030303030303
1.289345063538612
1.273704789833822
1.2580645161290325
1.2434017595307918
1.2287390029325511
1.2150537634408602
1.2023460410557183
1.1906158357771262
1.1798631476050832
1.1691104594330402
1.1593352883675463
1.1505376344086022
1.144672531769306
1.1407624633431086
1.133919843597263
1.1270772238514175
1.1192570869990224
1.110459433040078
1.1016617790811338
1.0928641251221896
1.0840664711632453
1.0762463343108504
1.0684261974584557
1.0606060606060606
1.0557184750733135
1.0527859237536656
1.0478983382209188
1.043010752688172
1.040078201368524
1.0371456500488758
1.035190615835777
1.0332355816226784
1.0312805474095796
1.029325513196481
1.0273704789833822
1.0263929618768328
1.0254154447702837
1.0263929618768328
1.029325513196481
1.0312805474095796
1.032258064516129
1.0332355816226784
1.0342130987292275
1.035190615835777
1.0371456500488758
1.0381231671554252
1.0391006842619743
1.0391006842619743
1.040078201368524
1.043010752688172
1.0469208211143697
1.0488758553274682
1.0498533724340176
1.0498533724340176
1.0498533724340176
1.050830889540567
1.0518084066471165
1.053763440860215
1.0557184750733135
1.0586510263929618
1.06158357771261
1.064516129032258
1.0694037145650048
1.075268817204301
1.0801564027370478
1.0840664711632453
1.0899315738025417
1.099706744868035
1.1173020527859236
1.1505376344086022
1.2052785923753666
1.2883675464320623
1.4027370478983383
1.547409579667644
1.6911045943304008
1.8387096774193548
2.0146627565982405
2.20039100684262
2.380254154447703
2.5454545454545454
2.6881720430107525
2.806451612903226
2.9012707722385143
2.973607038123167
3.027370478983382
3.067448680351906
3.0957966764418376
3.1094819159335287
3.113391984359726
3.117302052785924
3.120234604105572
3.1192570869990224
3.112414467253177
3.0987292277614857
3.0664711632453567
3.03128054740958
3.0
2.9550342130987293
2.8993157380254155
2.8396871945259043
2.774193548387097
2.6989247311827955
2.616813294232649
2.5317693059628543
2.4457478005865103
2.361681329423265
2.2825024437927666
2.2111436950146626
2.139784946236559
2.0821114369501466
2.0439882697947214
2.0087976539589443
1.9726295210166176
1.943304007820137
1.921798631476051
1.8973607038123168
1.870967741935484
1.8269794721407624
1.7732160312805474
1.7311827956989247
1.6852394916911049
1.64613880742913
1.6187683284457477
1.5894428152492668
1.555229716520039
1.5268817204301075
1.5053763440860215
1.479960899315738
1.4535679374389052
1.426197458455523
1.3949169110459434
1.3685239491691104
1.3450635386119256
1.324535679374389
1.305962854349951
1.289345063538612
1.2776148582600195
1.2649071358748778
1.252199413489736
1.2394916911045943
1.2267839687194526
1.2150537634408602
1.206256109481916
1.1964809384164223
1.1837732160312806
1.1730205278592376
1.164222873900293
1.1564027370478984
1.1515151515151516
1.1485826001955035
1.142717497556207
1.1348973607038124
1.1270772238514175
1.121212121212121
1.1133919843597262
1.1036168132942326
1.0948191593352885
1.0869990224828934
1.0791788856304985
1.0713587487781036
1.0654936461388074
1.0625610948191593
1.06158357771261
1.0596285434995112
1.0576735092864125
1.056695992179863
1.0557184750733135
1.0557184750733135
1.0557184750733135
1.0557184750733135
1.0547409579667644
1.053763440860215
1.0527859237536656
1.0547409579667644
1.0576735092864125
1.0596285434995112
1.0606060606060606
1.0606060606060606
1.0606060606060606
1.06158357771261
1.0625610948191593
1.064516129032258
1.067448680351906
1.0703812316715542
1.0733137829912025
1.075268817204301
1.0791788856304985
1.083088954056696
1.086021505376344
1.0909090909090908
1.1026392961876832
1.1270772238514175
1.1700879765395895
1.2355816226783969
1.327468230694037
1.444770283479961
1.58455522971652
1.7409579667644184
1.881720430107527
2.0117302052785924
2.1544477028347995
2.29227761485826
2.41544477028348
2.520039100684262
2.606060606060606
2.6725317693059627
2.7223851417399803
2.757575757575758
2.7810361681329425
2.7966764418377323
2.8054740957966766
2.8044965786901277
2.7976539589442817
2.789833822091887
2.779081133919844
2.7624633431085046
2.739980449657869
2.7096774193548385
2.6715542521994133
2.624633431085044
2.567937438905181
2.5024437927663734
2.43108504398827
2.3626588465298144
2.2961876832844577
2.2248289345063537
2.15347018572825
2.0869990224828934
2.027370478983382
1.975562072336266
1.9305962854349952
1.8934506353861196
1.86119257086999
1.833822091886608
1.8093841642228736
1.7888563049853372
1.76930596285435
1.7468230694037146
1.7223851417399805
1.6959921798631477
1.667644183773216
1.6373411534701858
1.606060606060606
1.5757575757575757
1.5454545454545454
1.5151515151515151
1.4858260019550342
1.456500488758553
1.4320625610948192
1.4115347018572826
1.388074291300098
1.364613880742913
1.3421309872922775
1.321603128054741
1.303030303030303
1.2854349951124144
1.2697947214076246
1.2561094819159335
1.2424242424242424
1.2287390029325511
1.2189638318670577
1.2111436950146628
1.2023460410557183
1.1935483870967742
1.1857282502443791
1.1779081133919844
1.1700879765395895
1.163245356793744
1.1564027370478984
1.1485826001955035
1.1407624633431086
1.1319648093841643
1.1231671554252198
1.1173020527859236
1.1133919843597262
1.10752688172043
1.1016617790811338
1.0957966764418376
1.0909090909090908
1.086021505376344
1.0811339198435972
1.0772238514173995
1.072336265884653
1.0684261974584557
1.064516129032258
1.064516129032258
1.0654936461388074
1.0635386119257086
1.06158357771261
1.0606060606060606
1.0606060606060606
1.0606060606060606
1.0606060606060606
1.0606060606060606
1.0606060606060606
1.0606060606060606
1.0606060606060606
1.0606060606060606
1.0635386119257086
1.067448680351906
1.0703812316715542
1.072336265884653
1.0742913000977516
1.075268817204301
1.0772238514173995
1.0791788856304985
1.0801564027370478
1.0811339198435972
1.0821114369501466
1.0869990224828934
1.0977517106549364
1.1173020527859236
1.1534701857282503
1.2111436950146628
1.295210166177908
1.4056695992179864
1.542521994134897
1.6979472140762464
1.8641251221896384
2.032258064516129
2.193548387096774
2.340175953079179
2.4682306940371457
2.5620723362658846
2.6295210166177907
2.6901270772238512
2.739980449657869
2.7781036168132944
2.8054740957966766
2.8240469208211145
2.835777126099707
2.843597262952102
2.84652981427175
2.8455522971652005
2.838709677419355
2.8240469208211145
2.803519061583578
2.777126099706745
2.742913000977517
2.699902248289345
2.6480938416422286
2.5884652981427174
2.520039100684262
2.44672531769306
2.3704789833822093
2.2932551319648096
2.217986314760508
2.147605083088954
2.088954056695992
2.038123167155425
1.991202346041056
1.948191593352884
1.9120234604105573
1.8807429130009776
1.8523949169110456
1.826001955034213
1.8005865102639296
1.775171065493646
1.7487781036168133
1.7204301075268815
1.6950146627565983
1.6705767350928642
1.6422287390029326
1.6129032258064515
1.5826001955034212
1.5513196480938416
1.521016617790811
1.4916911045943304
1.4633431085043989
1.4349951124144673
1.4076246334310851
1.3812316715542523
1.3509286412512218
1.3235581622678396
1.303030303030303
1.281524926686217
1.2609970674486803
1.2424242424242424
1.2258064516129032
1.2101661779081134
1.1964809384164223
1.1837732160312806
1.1710654936461389
1.160312805474096
1.1495601173020529
1.141739980449658
1.1358748778103618
1.1280547409579669
1.1202346041055715
1.1124144672531768
1.1036168132942326
1.093841642228739
1.0840664711632453
1.0742913000977516
1.0654936461388074
1.0576735092864125
1.0498533724340176
1.043010752688172
1.0391006842619743
1.0371456500488758
1.0332355816226784
1.0283479960899315
1.0234604105571847
1.018572825024438
1.0146627565982405
1.010752688172043
1.007820136852395
1.0048875855327468
1.002932551319648
1.0009775171065494
1.0019550342130987
1.0039100684261977
1.0039100684261977
1.0039100684261977
1.0039100684261977
1.0039100684261977
1.0039100684261977
1.002932551319648
1.0019550342130987
1.0019550342130987
1.0019550342130987
1.002932551319648
1.0048875855327468
1.0097751710654936
1.0156402737047898
1.0195503421309873
1.0224828934506354
1.024437927663734
1.0263929618768328
1.0303030303030305
1.040078201368524
1.0606060606060606
1.099706744868035
1.1622678396871946
1.2531769305962854
1.35386119257087
1.469208211143695
1.6207233626588464
1.7947214076246334
1.9794721407624636
2.163245356793744
2.3362658846529816
2.490713587487781
2.622678396871945
2.7311827956989245
2.817204301075269
2.881720430107527
2.9286412512218964
2.9550342130987293
2.967741935483871
2.978494623655914
2.986314760508309
2.991202346041056
2.991202346041056
2.986314760508309
2.975562072336266
2.9579667644183774
2.932551319648094
2.898338220918866
2.8533724340175954
2.8025415444770285
2.745845552297165
2.678396871945259
2.6021505376344085
2.5190615835777126
2.432062561094819
2.3440860215053765
2.259042033235582
2.1788856304985336
2.10752688172043
2.04594330400782
1.9931573802541545
1.9521016617790807
1.9178885630498532
1.8866080156402736
1.857282502443793
1.828934506353861
1.801564027370479
1.7732160312805474
1.7438905180840665
1.7126099706744868
1.6803519061583578
1.64613880742913
1.6109481915933528
1.576735092864125
1.547409579667644
1.520039100684262
1.4887585532746823
1.456500488758553
1.4242424242424243
1.392961876832845
1.3636363636363635
1.335288367546432
1.3088954056695992
1.2834799608993157
1.260019550342131
1.2394916911045943
1.224828934506354
1.2130987292277615
1.2003910068426198
1.187683284457478
1.1749755620723363
1.163245356793744
1.1515151515151516
1.13880742913001
1.1280547409579669
1.118279569892473
1.1085043988269794
1.1006842619745845
1.0918866080156402
1.086021505376344
1.0811339198435972
1.0742913000977516
1.0664711632453567
1.0586510263929618
1.050830889540567
1.043010752688172
1.035190615835777
1.0283479960899315
1.0224828934506354
1.0166177908113392
1.0117302052785924
1.010752688172043
1.010752688172043
1.0087976539589445
1.0068426197458455
1.0039100684261977
1.0009775171065494
0.997067448680352
0.9941348973607038
0.9912023460410556
0.9882697947214076
0.9872922776148584
0.9863147605083088
0.9863147605083088
0.9882697947214076
0.9921798631476052
0.9941348973607038
0.9951124144672532
0.9951124144672532
0.9960899315738024
0.997067448680352
0.9980449657869012
0.9990224828934506
1.0
1.0019550342130987
1.0048875855327468
1.0087976539589445
1.013685239491691
1.0166177908113392
1.0205278592375366
1.0283479960899315
1.043010752688172
1.0713587487781036
1.1202346041055715
1.195503421309873
1.300097751710655
1.434017595307918
1.5943304007820136
1.7732160312805474
1.9364613880742916
2.0869990224828934
2.251221896383187
2.410557184750733
2.5532746823069403
2.674486803519061
2.7722385141739982
2.8484848484848486
2.905180840664712
2.9472140762463344
2.9765395894428157
2.9960899315738025
3.002932551319648
3.0019550342130987
3.0009775171065494
2.997067448680352
2.989247311827957
2.975562072336266
2.9550342130987293
2.9257086999022484
2.887585532746823
2.838709677419355
2.780058651026393
2.710654936461388
2.633431085043988
2.557184750733138
2.4819159335288368
2.398826979472141
2.313782991202346
2.231671554252199
2.156402737047898
2.089931573802541
2.03128054740958
1.9824046920821117
1.9403714565004888
1.905180840664712
1.873900293255132
1.847507331378299
1.8240469208211143
1.7986314760508308
1.7712609970674489
1.7409579667644184
1.7096774193548387
1.6764418377321604
1.643206256109482
1.608993157380254
1.5747800586510263
1.5405669599217986
1.5063538611925709
1.4731182795698925
1.4457478005865103
1.4213098729227762
1.393939393939394
1.3665689149560116
1.3411534701857282
1.316715542521994
1.2932551319648091
1.270772238514174
1.2502443792766371
1.23069403714565
1.2140762463343109
1.198435972629521
1.187683284457478
1.1788856304985338
1.1691104594330402
1.1593352883675463
1.1485826001955035
1.1378299120234605
1.130987292277615
1.126099706744868
1.118279569892473
1.1094819159335287
1.1006842619745845
1.0918866080156402
1.083088954056696
1.0791788856304985
1.0772238514173995
1.072336265884653
1.0664711632453567
1.0596285434995112
1.0518084066471165
1.0439882697947214
1.0371456500488758
1.0312805474095796
1.0263929618768328
1.0234604105571847
1.0224828934506354
1.0234604105571847
1.0254154447702837
1.0254154447702837
1.024437927663734
1.0224828934506354
1.0195503421309873
1.0175953079178883
1.0166177908113392
1.0166177908113392
1.0166177908113392
1.0166177908113392
1.0166177908113392
1.0166177908113392
1.018572825024438
1.0224828934506354
1.024437927663734
1.0263929618768328
1.0283479960899315
1.0303030303030305
1.0312805474095796
1.0332355816226784
1.0361681329423265
1.0449657869012707
1.064516129032258
1.1006842619745845
1.1485826001955035
1.2140762463343109
1.3118279569892473
1.439882697947214
1.5943304007820136
1.7673509286412512
1.9501466275659824
2.1309872922776147
2.3010752688172045
2.4545454545454546
2.5855327468230693
2.69208211143695
2.766373411534702
2.817204301075269
2.8611925708699903
2.897360703812317
2.9237536656891496
2.943304007820137
2.956011730205278
2.963831867057673
2.967741935483871
2.9667644183773216
2.9589442815249267
2.943304007820137
2.919843597262952
2.8885630498533725
2.8484848484848486
2.80058651026393
2.742913000977517
2.675464320625611
2.5992179863147604
2.5161290322580645
2.4301075268817205
2.343108504398827
2.259042033235582
2.179863147605083
2.10850439882698
2.050830889540567
2.002932551319648
1.9579667644183771
1.9188660801564028
1.8836754643206255
1.8523949169110456
1.823069403714565
1.793743890518084
1.7644183773216031
1.7350928641251222
1.7057673509286413
1.6744868035190617
1.6422287390029326
1.6138807429130009
1.5865102639296187
1.5562072336265884
1.5249266862170088
1.4926686217008798
1.4594330400782014
1.4271749755620724
1.396871945259042
1.3685239491691104
1.3411534701857282
1.3147605083088951
1.2913000977517106
1.2727272727272727
1.2570869990224829
1.2404692082111437
1.2238514173998043
1.2082111436950147
1.1935483870967742
1.1798631476050832
1.1671554252199414
1.1544477028347997
1.142717497556207
1.1319648093841643
1.121212121212121
1.1094819159335287
1.1016617790811338
1.0957966764418376
1.088954056695992
1.0811339198435972
1.0733137829912025
1.064516129032258
1.056695992179863
1.0488758553274682
1.0410557184750733
1.0332355816226784
1.0263929618768328
1.0195503421309873
1.0156402737047898
1.013685239491691
1.0097751710654936
1.0048875855327468
1.0
0.9960899315738024
0.9921798631476052
0.989247311827957
0.9853372434017597
0.9824046920821116
0.9794721407624634
0.9775171065493646
0.9765395894428152
0.978494623655914
0.9824046920821116
0.9833822091886608
0.9833822091886608
0.9824046920821116
0.9804496578690128
0.9794721407624634
0.9794721407624634
0.9794721407624634
0.9794721407624634
0.9794721407624634
0.9794721407624634
0.981427174975562
0.9853372434017597
0.9872922776148584
0.989247311827957
0.9921798631476052
0.9951124144672532
0.9990224828934506
1.0019550342130987
1.0058651026392962
1.0127077223851415
1.0254154447702837
1.0498533724340176
1.0928641251221896
1.147605083088954
1.2209188660801564
1.3294232649071358
1.4701857282502444
1.6363636363636365
1.8201368523949168
2.0117302052785924
2.198435972629521
