ppg
0.9863147605083088
0.9843597262952102
0.9872922776148584
1.0
1.0224828934506354
1.0576735092864125
1.1143695014662756
1.1974584555229717
1.3069403714565004
1.439882697947214
1.5913978494623655
1.7526881720430108
1.916911045943304
2.074291300097752
2.2355816226783967
2.388074291300098
2.4946236559139785
2.56891495601173
2.631476050830889
2.679374389051808
2.713587487781036
2.736070381231672
2.748778103616813
2.7546432062561097
2.7546432062561097
2.750733137829912
2.740957966764418
2.7253176930596283
2.7038123167155423
2.67644183773216
2.643206256109482
2.601173020527859
2.5513196480938416
2.496578690127077
2.4379276637341154
2.377321603128055
2.317693059628544
2.26197458455523
2.212121212121212
2.16911045943304
2.133919843597263
2.1065493646138806
2.086021505376344
2.070381231671554
2.059628543499511
2.050830889540567
2.0439882697947214
2.0361681329423265
2.027370478983382
2.01564027370479
1.9990224828934504
1.978494623655914
1.9560117302052784
1.9335288367546437
1.9090909090909087
1.8807429130009776
1.8484848484848484
1.81524926686217
1.782991202346041
1.7497556207233629
1.715542521994135
1.6823069403714566
1.6490713587487782
1.616813294232649
1.585532746823069
1.5542521994134897
1.5288367546432062
1.5063538611925709
1.479960899315738
1.452590420332356
1.426197458455523
1.401759530791789
1.3792766373411536
1.3577712609970674
1.3372434017595307
1.316715542521994
1.2961876832844574
1.2756598240469208
1.2609970674486803
1.2482893450635386
1.2316715542521994
1.2150537634408602
1.198435972629521
1.181818181818182
1.1652003910068427
1.1495601173020529
1.1348973607038124
1.1221896383186705
1.1094819159335287
1.096774193548387
1.0850439882697946
1.0772238514173995
1.072336265884653
1.064516129032258
1.056695992179863
1.0498533724340176
1.043010752688172
1.0371456500488758
1.0312805474095796
1.0273704789833822
1.0234604105571847
1.021505376344086
1.0224828934506354
1.0273704789833822
1.0371456500488758
1.053763440860215
1.0821114369501466
1.1290322580645162
1.1974584555229717
1.289345063538612
1.4076246334310851
1.5483870967741935
1.704789833822092
1.8699902248289344
2.035190615835777
2.1925708699902247
2.3196480938416424
2.423264907135875
2.5239491691104594
2.611925708699902
2.6852394916911044
2.7419354838709675
2.78494623655914
2.8152492668621703
2.833822091886608
2.843597262952102
2.84652981427175
2.841642228739003
2.827956989247312
2.807429130009776
2.780058651026393
2.744868035190616
2.701857282502444
2.6510263929618767
2.592375366568915
2.5268817204301075
2.4574780058651027
2.389051808406647
2.324535679374389
2.2658846529814274
2.2140762463343107
2.174975562072336
2.145650048875855
2.1221896383186705
2.103616813294233
2.090909090909091
2.0821114369501466
2.075268817204301
2.067448680351906
2.059628543499511
2.050830889540567
2.0391006842619745
2.024437927663734
2.0087976539589443
1.991202346041056
1.970674486803519
1.9472140762463344
1.920821114369501
1.89247311827957
1.8641251221896384
1.8347996089931573
1.804496578690127
1.7732160312805474
1.739980449657869
1.7057673509286413
1.6705767350928642
1.640273704789834
1.6148582600195502
1.587487781036168
1.5591397849462365
1.5327468230694037
1.5073313782991202
1.4819159335288368
1.455522971652004
1.4291300097751711
1.4037145650048877
1.380254154447703
1.3577712609970674
1.3401759530791788
1.3264907135874875
1.310850439882698
1.2942326490713587
1.2766373411534702
1.2590420332355816
1.2443792766373412
1.23069403714565
1.2179863147605083
1.2043010752688172
1.1906158357771262
1.1759530791788857
1.1622678396871946
1.155425219941349
1.1505376344086022
1.144672531769306
1.1397849462365592
1.1358748778103618
1.1319648093841643
1.1280547409579669
1.126099706744868
1.1241446725317692
1.1221896383186705
1.1221896383186705
1.1231671554252198
1.1280547409579669
1.133919843597263
1.1397849462365592
1.1485826001955035
1.166177908113392
1.1994134897360704
1.252199413489736
1.3304007820136852
1.436950146627566
1.56891495601173
1.7223851417399805
1.8914956011730208
2.0664711632453567
2.2170087976539588
2.347996089931574
2.4819159335288368
2.6041055718475072
2.708699902248289
2.792766373411535
2.857282502443793
2.906158357771261
2.941348973607038
2.964809384164223
2.9804496578690127
2.9902248289345064
2.991202346041056
2.9872922776148583
2.983382209188661
2.9745845552297165
2.9579667644183774
2.932551319648094
2.897360703812317
2.854349951124145
2.801564027370479
2.740957966764418
2.67644183773216
2.610948191593353
2.5464320625610948
2.489736070381232
2.4408602150537635
2.3949169110459434
2.355816226783969
2.3225806451612905
2.2952101661779083
2.2737047898338223
2.2561094819159337
2.241446725317693
2.2277614858260018
2.21505376344086
2.201368523949169
2.1867057673509285
2.172043010752688
2.156402737047898
2.139784946236559
2.1221896383186705
2.101661779081134
2.078201368523949
2.0547409579667644
2.0303030303030303
2.003910068426197
1.978494623655914
1.9530791788856303
1.927663734115347
1.905180840664712
1.8856304985337244
1.865102639296188
1.842619745845552
1.8162267839687196
1.7888563049853372
1.7653958944281525
1.7429130009775171
1.721407624633431
1.699902248289345
1.6793743890518085
1.6598240469208212
1.6441837732160314
1.6285434995112416
1.6080156402737047
1.5865102639296187
1.5650048875855327
1.544477028347996
1.52297165200391
1.5024437927663734
1.482893450635386
1.4633431085043989
1.4437927663734116
1.4252199413489737
1.4105571847507332
1.3988269794721409
1.3851417399804498
1.370478983382209
1.3548387096774193
1.3372434017595307
1.3186705767350928
1.300097751710655
1.281524926686217
1.2639296187683284
1.2482893450635386
1.2346041055718475
1.2209188660801564
1.2101661779081134
1.2013685239491692
1.1906158357771262
1.1808406647116323
1.1720430107526882
1.1681329423264908
1.1730205278592376
1.1945259042033236
1.2355816226783969
1.3020527859237536
1.3958944281524928
1.5161290322580645
1.6373411534701858
1.761485826001955
1.9090909090909087
2.0664711632453567
2.220918866080156
2.3626588465298144
2.486803519061584
2.589442815249267
2.668621700879765
2.727272727272727
2.768328445747801
2.795698924731183
2.8132942326490715
2.820136852394917
2.820136852394917
2.820136852394917
2.817204301075269
2.8103616813294234
2.798631476050831
2.7810361681329425
2.755620723362659
2.7223851417399803
2.681329423264907
2.63049853372434
2.572825024437928
2.5161290322580645
2.4594330400782014
2.39980449657869
2.3421309872922778
2.2883675464320627
2.2404692082111435
2.19941348973607
2.1652003910068425
2.139784946236559
2.1192570869990224
2.101661779081134
2.085043988269794
2.069403714565005
2.0547409579667644
2.0391006842619745
2.0205278592375366
1.9980449657869013
1.970674486803519
1.9403714565004888
1.9071358748778104
1.871945259042033
1.8347996089931573
1.796676441837732
1.758553274682307
1.7204301075268815
1.689149560117302
1.6627565982404693
1.6344086021505375
1.6050830889540566
1.5747800586510263
1.544477028347996
1.5131964809384164
1.482893450635386
1.4516129032258065
1.4222873900293256
1.3958944281524928
1.3714565004887584
1.348973607038123
1.3313782991202343
1.316715542521994
1.2991202346041055
1.2825024437927663
1.2658846529814272
1.2482893450635386
1.23069403714565
1.2121212121212122
1.1915933528836755
1.1710654936461389
1.1495601173020529
1.1290322580645162
1.115347018572825
1.1065493646138806
1.0948191593352885
1.0811339198435972
1.067448680351906
1.0547409579667644
1.0420332355816226
1.0303030303030305
1.018572825024438
1.0087976539589445
1.0
0.9931573802541545
0.9882697947214076
0.9882697947214076
0.9902248289345064
0.989247311827957
0.9872922776148584
0.9853372434017597
0.9824046920821116
0.981427174975562
0.9833822091886608
0.9921798631476052
1.0127077223851415
1.050830889540567
1.1124144672531768
1.1857282502443791
1.2766373411534702
1.3988269794721409
1.5454545454545454
1.70772238514174
1.8758553274682308
2.042033235581622
2.196480938416422
2.333333333333333
2.4486803519061584
2.5425219941348973
2.6148582600195502
2.667644183773216
2.6989247311827955
2.716520039100684
2.729227761485826
2.736070381231672
2.7390029325513194
2.73802541544477
2.732160312805474
2.720430107526881
2.702834799608993
2.675464320625611
2.6402737047898337
2.5962854349951123
2.548387096774193
2.4975562072336266
2.4379276637341154
2.3743890518084068
2.3118279569892475
2.2521994134897363
2.19941348973607
2.155425219941349
2.121212121212121
2.0948191593352883
2.074291300097752
2.059628543499511
2.0498533724340176
2.042033235581622
2.034213098729228
2.026392961876833
2.0175953079178885
2.006842619745845
1.994134897360704
1.978494623655914
1.9608993157380252
1.9403714565004888
1.9149560117302051
1.8875855327468232
1.857282502443793
1.828934506353861
1.801564027370479
1.7702834799608993
1.7350928641251222
1.699902248289345
1.6656891495601174
1.6304985337243405
1.5972629521016617
1.5650048875855327
1.533724340175953
1.504398826979472
1.478005865102639
1.452590420332356
1.4330400782013686
1.41544477028348
1.3949169110459434
1.3743890518084063
1.3528836754643203
1.332355816226784
1.310850439882698
1.289345063538612
1.267839687194526
1.2473118279569892
1.2267839687194526
1.2082111436950147
1.195503421309873
1.1837732160312806
1.1700879765395895
1.155425219941349
1.1407624633431086
1.126099706744868
1.110459433040078
1.0957966764418376
1.083088954056696
1.0703812316715542
1.0586510263929618
1.0488758553274682
1.0410557184750733
1.0381231671554252
1.0371456500488758
1.0342130987292275
1.0303030303030305
1.0273704789833822
1.024437927663734
1.021505376344086
1.0195503421309873
1.0195503421309873
1.0224828934506354
1.0332355816226784
1.056695992179863
1.0909090909090908
1.141739980449658
1.219941348973607
1.3255131964809383
1.455522971652004
1.606060606060606
1.76930596285435
1.9374389051808407
2.102639296187683
2.257086999022483
2.393939393939394
2.548387096774193
2.6901270772238512
2.780058651026393
2.8475073313782997
2.8963831867057674
2.930596285434995
2.9530791788856305
2.9667644183773216
2.972629521016618
2.9716520039100685
2.964809384164223
2.9501466275659824
2.927663734115347
2.895405669599218
2.857282502443793
2.812316715542522
2.7565982404692084
2.69208211143695
2.624633431085044
2.555229716520039
2.487781036168133
2.426197458455523
2.372434017595308
2.3274682306940373
2.291300097751711
2.2639296187683287
2.244379276637341
2.2297165200391005
2.2170087976539588
2.206256109481916
2.1955034213098727
2.1847507331378297
2.172043010752688
2.156402737047898
2.1388074291300097
2.118279569892473
2.0948191593352883
2.069403714565005
2.042033235581622
2.016617790811339
1.991202346041056
1.9618768328445748
1.9305962854349952
1.8983382209188664
1.8670576735092863
1.836754643206256
1.8084066471163245
1.7820136852394917
1.7565982404692082
1.732160312805474
1.7067448680351909
1.6852394916911049
1.6656891495601174
1.643206256109482
1.616813294232649
1.5894428152492668
1.563049853372434
1.5386119257087
1.5151515151515151
1.4926686217008798
1.4711632453567938
1.4506353861192571
1.4320625610948192
1.414467253176931
1.401759530791789
1.3919843597262953
1.3782991202346042
1.3636363636363635
1.3499511241446724
1.33822091886608
1.327468230694037
1.316715542521994
1.305962854349951
1.295210166177908
1.2864125122189638
1.2795698924731185
1.2756598240469208
1.273704789833822
1.2697947214076246
1.2649071358748778
1.2609970674486803
1.2580645161290325
1.2561094819159335
1.2541544477028348
1.252199413489736
1.2502443792766371
1.249266862170088
1.2502443792766371
1.2590420332355816
1.2756598240469208
1.3020527859237536
1.3470185728250244
1.41544477028348
1.5102639296187683
1.6344086021505375
1.7869012707722385
1.959921798631476
2.146627565982405
2.335288367546432
2.5161290322580645
2.6823069403714563
2.8103616813294234
2.90811339198436
2.9980449657869013
3.071358748778104
3.1280547409579667
3.1700879765395893
3.201368523949169
3.2238514173998043
3.241446725317693
3.2521994134897363
3.257086999022483
3.2551319648093844
3.24633431085044
3.2277614858260018
3.198435972629521
3.161290322580645
3.114369501466276
3.0576735092864125
2.992179863147605
2.918866080156403
2.8426197458455524
2.766373411534702
2.6930596285435
2.625610948191593
2.565982404692082
2.5161290322580645
2.4750733137829912
2.4389051808406648
2.4086021505376345
2.383186705767351
2.361681329423265
2.3421309872922778
2.32355816226784
2.303030303030303
2.281524926686217
2.259042033235582
2.236559139784946
2.212121212121212
2.187683284457478
2.1622678396871944
2.133919843597263
2.102639296187683
2.0684261974584555
2.0332355816226784
1.9980449657869013
1.9618768328445748
1.9237536656891496
1.8866080156402736
1.8523949169110456
1.8191593352883677
1.790811339198436
1.7653958944281525
1.7380254154447703
1.7096774193548387
1.6813294232649072
1.653958944281525
1.6275659824046922
1.6021505376344083
1.576735092864125
1.5532746823069403
1.5317693059628543
1.5112414467253177
1.4916911045943304
1.4760508308895406
1.4623655913978495
1.4457478005865103
1.426197458455523
1.4056695992179864
1.3841642228739004
1.3626588465298142
1.3421309872922775
1.321603128054741
1.3020527859237536
1.2825024437927663
1.262952101661779
1.249266862170088
1.238514173998045
1.224828934506354
1.2101661779081134
1.1945259042033236
1.1779081133919844
1.1622678396871946
1.1466275659824048
1.1319648093841643
1.118279569892473
1.1055718475073313
1.093841642228739
1.0850439882697946
1.0811339198435972
1.0821114369501466
1.0850439882697946
1.0977517106549364
1.1251221896383188
1.1730205278592376
1.2453567937438903
1.346041055718475
1.4760508308895406
1.629521016617791
1.8005865102639296
1.978494623655914
2.133919843597263
2.270772238514174
2.409579667644184
2.536656891495601
2.644183773216031
2.729227761485826
2.793743890518084
2.8406647116324537
2.8729227761485827
2.89247311827957
2.903225806451613
2.9071358748778104
2.903225806451613
2.895405669599218
2.8856304985337244
2.8719452590420333
2.8514173998044967
2.822091886608016
2.78494623655914
2.7390029325513194
2.6832844574780057
2.622678396871945
2.558162267839687
1.0518084066471165
1.0586510263929618
1.0713587487781036
1.0948191593352885
1.133919843597263
1.1945259042033236
1.2805474095796676
1.391006842619746
1.52297165200391
1.6695992179863148
1.825024437927664
1.9618768328445748
2.083088954056696
2.207233626588465
2.321603128054741
2.419354838709677
2.498533724340176
2.5610948191593352
2.6080156402737047
2.6422287390029324
2.6666666666666665
2.6852394916911044
2.7008797653958942
2.7096774193548385
2.7126099706744866
2.713587487781036
2.7116324535679373
2.7038123167155423
2.6881720430107525
2.664711632453568
2.633431085043988
2.5943304007820136
2.548387096774193
2.4975562072336266
2.4457478005865103
2.3958944281524928
2.35386119257087
2.317693059628544
2.286412512218964
2.2629521016617797
2.24633431085044
2.2355816226783967
2.2297165200391005
2.225806451612903
2.222873900293255
2.220918866080156
2.217986314760508
2.21505376344086
2.209188660801564
2.20039100684262
2.188660801564027
2.1730205278592374
2.1544477028347995
2.1309872922776147
2.104594330400782
2.0772238514174
2.093841642228739
2.131964809384164
2.132942326490713
2.1163245356793743
2.089931573802541
2.064516129032258
2.0410557184750733
2.013685239491691
1.9843597262952104
1.95405669599218
1.924731182795699
1.8944281524926687
1.866080156402737
1.8387096774193548
1.8113391984359728
1.7839687194525904
1.7575757575757576
1.7360703812316716
1.718475073313783
1.6989247311827955
1.678396871945259
1.6578690127077225
1.6373411534701858
1.6187683284457477
1.6001955034213098
1.5826001955034212
1.5650048875855327
1.5483870967741935
1.5317693059628543
1.5151515151515151
1.504398826979472
1.4965786901270772
1.4858260019550342
1.4731182795698925
1.4604105571847508
1.4467253176930597
1.4330400782013686
1.4222873900293256
1.4134897360703813
1.4056695992179864
1.3988269794721409
1.3949169110459434
1.3949169110459434
1.3978494623655917
1.4007820136852396
1.4056695992179864
1.412512218963832
1.4193548387096775
1.4291300097751711
1.4457478005865103
1.4750733137829912
1.521994134897361
1.5923753665689149
1.6901270772238517
1.81524926686217
1.9413489736070384
2.0733137829912023
2.233626588465298
2.4056695992179864
2.576735092864125
2.735092864125122
2.874877810361681
2.9931573802541545
3.088954056695992
3.164222873900293
3.2238514173998043
3.269794721407625
3.300097751710655
3.320625610948192
3.3440860215053765
3.3655913978494625
3.383186705767351
3.3949169110459434
3.398826979472141
3.3919843597262958
3.3734115347018574
3.340175953079179
3.294232649071359
3.2385141739980448
3.172043010752688
3.1055718475073317
3.0391006842619745
2.9687194525904204
2.8993157380254155
2.834799608993157
2.776148582600196
2.7253176930596283
2.684261974584555
2.650048875855328
2.622678396871945
2.601173020527859
2.581622678396872
2.5620723362658846
2.5425219941348973
2.5219941348973607
2.4995112414467253
2.474095796676442
2.4457478005865103
2.41544477028348
2.3841642228739004
2.3519061583577714
2.318670576735093
2.2844574780058653
2.249266862170088
2.212121212121212
2.1788856304985336
2.1495601173020527
2.1163245356793743
2.081133919843597
2.0439882697947214
2.005865102639296
1.9687194525904204
1.932551319648094
1.8973607038123168
1.8621700879765395
1.828934506353861
1.796676441837732
1.7702834799608993
1.7458455522971652
1.715542521994135
1.683284457478006
1.6500488758553276
1.6177908113391983
1.5865102639296187
1.5562072336265884
1.5268817204301075
1.499511241446725
1.4711632453567938
1.4428152492668622
1.41544477028348
1.3958944281524928
1.380254154447703
1.3577712609970674
1.332355816226784
1.3069403714565004
1.2805474095796676
1.2561094819159335
1.2336265884652982
1.2121212121212122
1.1915933528836755
1.1730205278592376
1.1544477028347997
1.142717497556207
1.1348973607038124
1.1241446725317692
1.1124144672531768
1.1016617790811338
1.0909090909090908
1.0801564027370478
1.0703812316715542
1.0625610948191593
1.0586510263929618
1.0596285434995112
1.0684261974584557
1.093841642228739
1.1319648093841643
1.1857282502443791
1.2658846529814272
1.3743890518084063
1.5102639296187683
1.667644183773216
1.8377321603128052
2.0117302052785924
2.179863147605083
2.3362658846529816
2.4750733137829912
2.591397849462365
2.675464320625611
2.735092864125122
2.7859237536656893
2.8260019550342133
2.857282502443793
2.881720430107527
2.8993157380254155
2.9120234604105573
2.921798631476051
2.9286412512218964
2.9286412512218964
2.921798631476051
2.9071358748778104
2.884652981427175
2.855327468230694
2.8181818181818183
2.773216031280548
2.7233626588465296
2.6725317693059627
2.624633431085044
2.5806451612903225
2.5405669599217986
2.50733137829912
2.4819159335288368
2.463343108504399
2.449657869012708
2.439882697947214
2.434017595307918
2.4271749755620724
2.418377321603128
2.4086021505376345
2.396871945259042
2.3812316715542523
2.361681329423265
2.3362658846529816
2.3069403714565007
2.2737047898338223
2.242424242424242
2.2111436950146626
2.1739980449657867
2.134897360703812
2.093841642228739
2.0498533724340176
2.004887585532747
1.9579667644183771
1.9100684261974583
1.86119257086999
1.8132942326490715
1.7673509286412512
1.7223851417399805
1.6871945259042034
1.6588465298142718
1.629521016617791
1.6011730205278591
1.5718475073313782
1.542521994134897
1.5141739980449658
1.4848484848484849
1.4535679374389052
1.4213098729227762
1.3890518084066472
1.3577712609970674
1.3343108504398826
1.3157380254154447
1.2942326490713587
1.2717497556207231
1.2502443792766371
1.2287390029325511
1.2082111436950147
1.1857282502443791
1.164222873900293
1.1436950146627567
1.1241446725317692
1.1055718475073313
1.0879765395894427
1.0772238514173995
1.072336265884653
1.0664711632453567
1.0596285434995112
1.0527859237536656
1.0469208211143697
1.043010752688172
1.0410557184750733
1.0410557184750733
1.043010752688172
1.0449657869012707
1.04594330400782
1.050830889540567
1.0586510263929618
1.0547409579667644
1.0498533724340176
1.0635386119257086
1.096774193548387
1.1534701857282503
1.2336265884652982
1.33822091886608
1.4623655913978495
1.6041055718475072
1.7546432062561097
1.906158357771261
2.035190615835777
2.145650048875855
2.254154447702835
2.3519061583577714
2.4349951124144678
2.5004887585532747
2.549364613880743
2.5855327468230693
2.613880742913001
2.635386119257087
2.652003910068426
2.664711632453568
2.670576735092864
2.6715542521994133
2.6725317693059627
2.668621700879765
2.6578690127077222
2.6392961876832843
2.611925708699902
2.576735092864125
2.535679374389052
2.490713587487781
2.443792766373412
2.398826979472141
2.356793743890518
2.3225806451612905
2.2932551319648096
2.267839687194526
2.247311827956989
2.231671554252199
2.220918866080156
2.2140762463343107
2.206256109481916
2.1974584555229715
2.188660801564027
2.179863147605083
2.1681329423264906
2.15347018572825
2.134897360703812
2.112414467253177
2.0869990224828934
2.058651026392962
2.027370478983382
1.994134897360704
1.9589442815249267
1.9237536656891496
1.889540566959922
1.8563049853372435
1.823069403714565
1.7888563049853372
1.7595307917888563
1.7341153470185728
1.7057673509286413
1.6764418377321604
1.64613880742913
1.6148582600195502
1.585532746823069
1.5571847507331378
1.5288367546432062
1.5024437927663734
1.47702834799609
1.452590420332356
1.4330400782013686
1.4164222873900294
1.396871945259042
1.375366568914956
1.3519061583577712
1.3294232649071358
1.3069403714565004
1.284457478005865
1.262952101661779
1.241446725317693
1.2218963831867058
1.203323558162268
1.18475073313783
1.1720430107526882
1.163245356793744
1.152492668621701
1.141739980449658
1.1300097751710656
1.1192570869990224
1.1094819159335287
1.099706744868035
1.0918866080156402
1.0869990224828934
1.0840664711632453
1.083088954056696
1.0869990224828934
1.0928641251221896
1.0977517106549364
1.1016617790811338
1.1055718475073313
1.1114369501466277
1.121212121212121
1.1407624633431086
1.1730205278592376
1.2238514173998043
1.2971652003910068
1.396871945259042
1.521994134897361
1.64613880742913
1.772238514173998
1.919843597262952
2.075268817204301
2.225806451612903
2.3655913978494625
2.4887585532746823
2.592375366568915
2.675464320625611
2.739980449657869
2.788856304985337
2.825024437927664
2.8455522971652005
2.855327468230694
2.865102639296188
2.873900293255132
2.881720430107527
2.886608015640274
2.889540566959922
2.887585532746823
2.877810361681329
2.8582600195503423
2.827956989247312
2.788856304985337
2.7419354838709675
2.6930596285435
2.6451612903225805
2.595307917888563
2.547409579667644
2.505376344086021
2.469208211143695
2.4389051808406648
2.4164222873900294
2.39980449657869
2.3870967741935485
2.375366568914956
2.3655913978494625
2.355816226783969
2.3440860215053765
2.3304007820136854
2.317693059628544
2.303030303030303
2.2873900293255134
2.270772238514174
2.2521994134897363
2.231671554252199
2.210166177908113
2.1867057673509285
2.161290322580645
2.1388074291300097
2.117302052785924
2.0948191593352883
2.072336265884653
2.0498533724340176
2.026392961876833
2.0009775171065494
1.9765395894428155
1.9521016617790807
1.927663734115347
1.9042033235581624
1.881720430107527
1.8621700879765395
1.8465298142717497
1.8328445747800584
1.818181818181818
1.8025415444770283
1.7849462365591398
1.7683284457478006
1.7517106549364614
1.7350928641251222
1.7174975562072337
1.699902248289345
1.6823069403714566
1.6666666666666667
1.653958944281525
1.643206256109482
1.6304985337243405
