ppg
0.9217986314760508
0.9110459433040078
0.9012707722385142
0.895405669599218
0.8924731182795699
0.8875855327468231
0.8826979472140762
0.8797653958944281
0.8826979472140762
0.895405669599218
0.9227761485826002
0.9687194525904204
1.0381231671554252
1.130987292277615
1.2473118279569892
1.3851417399804498
1.517106549364614
1.6480938416422288
1.7996089931573802
1.956989247311828
2.1114369501466275
2.254154447702835
2.3822091886608017
2.49266862170088
2.5855327468230693
2.6608015640273703
2.720430107526881
2.766373411534702
2.793743890518084
2.809384164222874
2.822091886608016
2.831867057673509
2.838709677419355
2.8396871945259043
2.833822091886608
2.820136852394917
2.7976539589442817
2.7653958944281527
2.7223851417399803
2.667644183773216
2.6099706744868034
2.547409579667644
2.4750733137829912
2.398826979472141
2.320625610948192
2.243401759530792
2.1710654936461387
2.104594330400782
2.0449657869012707
1.994134897360704
1.9501466275659824
1.9120234604105573
1.878787878787879
1.8523949169110456
1.8435972629521016
1.8416422287390029
1.8299120234604105
1.8132942326490715
1.7927663734115349
1.7683284457478006
1.7409579667644184
1.710654936461388
1.6793743890518085
1.6471163245356797
1.6129032258064515
1.5835777126099706
1.5571847507331378
1.5278592375366569
1.498533724340176
1.4682306940371457
1.439882697947214
1.412512218963832
1.3861192570869991
1.3607038123167154
1.3372434017595307
1.3147605083088951
1.2932551319648091
1.273704789833822
1.2609970674486803
1.252199413489736
1.2424242424242424
1.2326490713587488
1.2228739002932552
1.2130987292277615
1.2043010752688172
1.1964809384164223
1.1906158357771262
1.1857282502443791
1.1808406647116323
1.176930596285435
1.1749755620723363
1.1749755620723363
1.1730205278592376
1.1691104594330402
1.1652003910068427
1.1612903225806452
1.1583577712609971
1.1544477028347997
1.1505376344086022
1.1466275659824048
1.142717497556207
1.13880742913001
1.133919843597263
1.130987292277615
1.1290322580645162
1.126099706744868
1.1221896383186705
1.1192570869990224
1.1163245356793745
1.1143695014662756
1.1124144672531768
1.110459433040078
1.10752688172043
1.1055718475073313
1.1036168132942326
1.104594330400782
1.1085043988269794
1.110459433040078
1.1114369501466277
1.1114369501466277
1.1114369501466277
1.1124144672531768
1.1143695014662756
1.1163245356793745
1.1192570869990224
1.1270772238514175
1.144672531769306
1.1749755620723363
1.2140762463343109
1.2649071358748778
1.3391984359726294
1.435972629521017
1.5532746823069403
1.6881720430107527
1.8347996089931573
1.9872922776148585
2.1388074291300097
2.2844574780058653
2.419354838709677
2.539589442815249
2.63049853372434
2.699902248289345
2.766373411534702
2.825024437927664
2.873900293255132
2.913000977517106
2.9442815249266863
2.9696969696969697
2.989247311827957
3.003910068426197
3.0127077223851417
3.013685239491691
3.005865102639296
2.9872922776148583
2.959921798631476
2.9227761485826003
2.875855327468231
2.820136852394917
2.7536656891495603
2.6803519061583576
2.6021505376344085
2.5210166177908118
2.4389051808406648
2.360703812316716
2.2873900293255134
2.2248289345063537
2.1730205278592374
2.124144672531769
2.081133919843597
2.043010752688172
2.0097751710654936
1.9804496578690127
1.9530791788856303
1.9257086999022484
1.8983382209188664
1.870967741935484
1.842619745845552
1.8132942326490715
1.7859237536656891
1.7605083088954057
1.7311827956989247
1.699902248289345
1.667644183773216
1.6344086021505375
1.6001955034213098
1.5669599217986314
1.533724340175953
1.501466275659824
1.469208211143695
1.436950146627566
1.4115347018572826
1.3890518084066472
1.3655913978494625
1.3421309872922775
1.3206256109481915
1.3010752688172045
1.2834799608993157
1.2668621700879763
1.2512218963831867
1.2375366568914956
1.2258064516129032
1.2140762463343109
1.2043010752688172
1.1974584555229717
1.1925708699902249
1.1867057673509287
1.1808406647116323
1.1759530791788857
1.1700879765395895
1.164222873900293
1.1583577712609971
1.1534701857282503
1.147605083088954
1.141739980449658
1.1368523949169111
1.1348973607038124
1.1348973607038124
1.1319648093841643
1.1290322580645162
1.126099706744868
1.1221896383186705
1.118279569892473
1.115347018572825
1.1124144672531768
1.110459433040078
1.10752688172043
1.1055718475073313
1.1036168132942326
1.1036168132942326
1.1065493646138806
1.1085043988269794
1.110459433040078
1.1124144672531768
1.1143695014662756
1.1163245356793745
1.118279569892473
1.1202346041055715
1.1221896383186705
1.1231671554252198
1.1231671554252198
1.1241446725317692
1.1270772238514175
1.1300097751710656
1.1368523949169111
1.1505376344086022
1.173998044965787
1.2121212121212122
1.2688172043010753
1.3470185728250244
1.4457478005865103
1.563049853372434
1.6950146627565983
1.8377321603128052
1.964809384164223
2.080156402737048
2.204301075268817
2.3255131964809386
2.4379276637341154
2.535679374389052
2.6177908113391983
2.6852394916911044
2.7390029325513194
2.782991202346041
2.817204301075269
2.8426197458455524
2.855327468230694
2.859237536656892
2.86217008797654
2.860215053763441
2.8514173998044967
2.834799608993157
2.8084066471163247
2.7722385141739982
2.7262952101661777
2.670576735092864
2.6070381231671558
2.5386119257087
2.4731182795698925
2.4086021505376345
2.3391984359726297
2.270772238514174
2.206256109481916
2.147605083088954
2.0957966764418376
2.050830889540567
2.0117302052785924
1.9794721407624636
1.951124144672532
1.9257086999022484
1.9012707722385145
1.8797653958944285
1.8592375366568916
1.836754643206256
1.812316715542522
1.7849462365591398
1.7556207233626588
1.7243401759530792
1.6911045943304008
1.656891495601173
1.6226783968719452
1.587487781036168
1.5532746823069403
1.5249266862170088
1.499511241446725
1.4711632453567938
1.4418377321603129
1.4134897360703813
1.3861192570869991
1.3607038123167154
1.3372434017595307
1.29227761485826
1.238514173998045
1.203323558162268
1.1779081133919844
1.1593352883675463
1.147605083088954
1.1397849462365592
1.1300097751710656
1.1202346041055715
1.1094819159335287
1.1016617790811338
1.0948191593352885
1.0899315738025417
1.0850439882697946
1.0801564027370478
1.075268817204301
1.0713587487781036
1.0703812316715542
1.0703812316715542
1.0694037145650048
1.0664711632453567
1.0635386119257086
1.0596285434995112
1.0557184750733135
1.050830889540567
1.0469208211143697
1.043010752688172
1.0391006842619743
1.0361681329423265
1.0332355816226784
1.032258064516129
1.0332355816226784
1.0332355816226784
1.0312805474095796
1.0303030303030305
1.029325513196481
1.029325513196481
1.029325513196481
1.029325513196481
1.0283479960899315
1.0273704789833822
1.0273704789833822
1.029325513196481
1.032258064516129
1.0312805474095796
1.029325513196481
1.0283479960899315
1.0283479960899315
1.0303030303030305
1.0391006842619743
1.0586510263929618
1.093841642228739
1.147605083088954
1.2228739002932552
1.3206256109481915
1.4203323558162269
1.5268817204301075
1.6588465298142718
1.8064516129032255
1.9608993157380252
2.112414467253177
2.2561094819159337
2.386119257086999
2.4995112414467253
2.5962854349951123
2.67644183773216
2.7419354838709675
2.78494623655914
2.812316715542522
2.838709677419355
2.8611925708699903
2.87683284457478
2.887585532746823
2.89247311827957
2.8905180840664717
2.8807429130009776
2.86217008797654
2.832844574780059
2.792766373411535
2.740957966764418
2.6852394916911044
2.6236559139784945
2.552297165200391
2.4731182795698925
2.3919843597262958
2.3118279569892475
2.2355816226783967
2.166177908113392
2.1055718475073317
2.053763440860215
2.0087976539589443
1.9696969696969695
1.9374389051808407
1.9100684261974583
1.8826979472140764
1.855327468230694
1.8269794721407624
1.7986314760508308
1.7702834799608993
1.7409579667644184
1.7116324535679377
1.6813294232649072
1.6490713587487782
1.6158357771260996
1.5826001955034212
1.5532746823069403
1.5249266862170088
1.4926686217008798
1.4594330400782014
1.426197458455523
1.393939393939394
1.3626588465298142
1.332355816226784
1.3040078201368523
1.2776148582600195
1.2531769305962854
1.2316715542521994
1.2160312805474096
1.203323558162268
1.1886608015640274
1.1730205278592376
1.1593352883675463
1.1466275659824048
1.1348973607038124
1.1241446725317692
1.1143695014662756
1.1065493646138806
1.099706744868035
1.0928641251221896
1.086021505376344
1.0821114369501466
1.0801564027370478
1.0742913000977516
1.0684261974584557
1.0635386119257086
1.0586510263929618
1.053763440860215
1.0488758553274682
1.0439882697947214
1.040078201368524
1.035190615835777
1.0312805474095796
1.0303030303030305
1.0312805474095796
1.0303030303030305
1.029325513196481
1.0273704789833822
1.0263929618768328
1.0254154447702837
1.0234604105571847
1.021505376344086
1.0195503421309873
1.018572825024438
1.0175953079178883
1.0175953079178883
1.0195503421309873
1.0234604105571847
1.0254154447702837
1.0263929618768328
1.0263929618768328
1.0263929618768328
1.0263929618768328
1.0263929618768328
1.0263929618768328
1.0263929618768328
1.0273704789833822
1.0312805474095796
1.040078201368524
1.056695992179863
1.0850439882697946
1.1290322580645162
1.1935483870967742
1.2795698924731185
1.3870967741935485
1.5151515151515151
1.6578690127077225
1.8103616813294232
1.9667644183773216
2.1192570869990224
2.244379276637341
2.350928641251222
2.4574780058651027
2.5542521994134897
2.638318670576735
2.70772238514174
2.764418377321604
2.809384164222874
2.843597262952102
2.8699902248289346
2.889540566959922
2.903225806451613
2.9100684261974585
2.905180840664712
2.89247311827957
2.874877810361681
2.849462365591398
2.8132942326490715
2.7653958944281527
2.70772238514174
2.641251221896383
2.56891495601173
2.4916911045943304
2.412512218963832
2.334310850439883
2.2668621700879767
2.207233626588465
2.147605083088954
2.0928641251221896
2.0439882697947214
2.0019550342130987
1.964809384164223
1.9315738025415443
1.902248289345064
1.873900293255132
1.844574780058651
1.8162267839687196
1.7869012707722385
1.7595307917888563
1.732160312805474
1.7008797653958945
1.6666666666666667
1.632453567937439
1.5972629521016617
1.5610948191593352
1.525904203323558
1.490713587487781
1.456500488758553
1.4222873900293256
1.3890518084066472
1.3616813294232648
1.33822091886608
1.3128054740957966
1.2873900293255132
1.262952101661779
1.2404692082111437
1.2179863147605083
1.1974584555229717
1.1788856304985338
1.1622678396871946
1.1466275659824048
1.133919843597263
1.1221896383186705
1.1133919843597262
1.10752688172043
1.099706744868035
1.0918866080156402
1.0850439882697946
1.078201368523949
1.0703812316715542
1.0635386119257086
1.056695992179863
1.050830889540567
1.0449657869012707
1.040078201368524
1.0381231671554252
1.0381231671554252
1.032258064516129
1.0234604105571847
1.0175953079178883
1.0117302052785924
1.0068426197458455
1.002932551319648
0.9990224828934506
0.9960899315738024
0.9931573802541545
0.9902248289345064
0.9882697947214076
0.9902248289345064
0.9941348973607038
0.9960899315738024
0.9980449657869012
0.9990224828934506
1.0
1.0009775171065494
1.002932551319648
1.0048875855327468
1.0068426197458455
1.0087976539589445
1.010752688172043
1.0127077223851415
1.0156402737047898
1.0175953079178883
1.018572825024438
1.0205278592375366
1.0283479960899315
1.0469208211143697
1.0811339198435972
1.133919843597263
1.209188660801564
1.3088954056695992
1.4320625610948192
1.573802541544477
1.7067448680351909
1.836754643206256
1.9853372434017595
2.1388074291300097
2.2873900293255134
2.4242424242424243
2.5454545454545454
2.650048875855328
2.7370478983382207
2.806451612903226
2.8611925708699903
2.9042033235581624
2.930596285434995
2.945259042033236
2.960899315738025
2.972629521016618
2.979472140762464
2.978494623655914
2.9696969696969697
2.951124144672532
2.921798631476051
2.8807429130009776
2.827956989247312
2.764418377321604
2.6911045943304006
2.618768328445748
2.544477028347996
2.463343108504399
2.3812316715542523
2.302052785923754
2.2277614858260018
2.160312805474096
2.102639296187683
2.053763440860215
2.0117302052785924
1.975562072336266
1.943304007820137
1.9149560117302051
1.8885630498533723
1.8602150537634408
1.83088954056696
1.7996089931573802
1.7663734115347018
1.732160312805474
1.696969696969697
1.6608015640273706
1.624633431085044
1.5894428152492668
1.5542521994134897
1.517106549364614
1.4858260019550342
1.457478005865103
1.4252199413489737
1.3919843597262953
1.3607038123167154
1.3304007820136852
1.3010752688172045
1.273704789833822
1.2482893450635386
1.224828934506354
1.203323558162268
1.1837732160312806
1.1700879765395895
1.1593352883675463
1.1466275659824048
1.1348973607038124
1.1231671554252198
1.1114369501466277
1.1006842619745845
1.0909090909090908
1.0821114369501466
1.072336265884653
1.064516129032258
1.056695992179863
1.0498533724340176
1.04594330400782
1.0439882697947214
1.040078201368524
1.035190615835777
1.0303030303030305
1.024437927663734
1.0195503421309873
1.0156402737047898
1.0117302052785924
1.0087976539589445
1.0068426197458455
1.0039100684261977
1.0048875855327468
1.007820136852395
1.007820136852395
1.0068426197458455
1.0058651026392962
1.0039100684261977
1.0019550342130987
1.0
0.9980449657869012
0.9980449657869012
0.9990224828934506
1.0
1.0019550342130987
1.0058651026392962
1.010752688172043
1.0127077223851415
1.013685239491691
1.013685239491691
1.0127077223851415
1.0117302052785924
1.0117302052785924
1.013685239491691
1.021505376344086
1.0410557184750733
1.0762463343108504
1.121212121212121
1.1808406647116323
1.267839687194526
1.3792766373411536
1.5131964809384164
1.6637341153470186
1.825024437927664
1.9902248289345064
2.15347018572825
2.3069403714565007
2.44672531769306
2.5698924731182795
2.66177908113392
2.7311827956989245
2.7966764418377323
2.854349951124145
2.902248289345064
2.941348973607038
2.973607038123167
2.99902248289345
3.016617790811339
3.0283479960899315
3.0332355816226784
3.029325513196481
3.016617790811339
2.9931573802541545
2.959921798631476
2.9159335288367547
2.860215053763441
2.7947214076246336
2.720430107526881
2.6392961876832843
2.5562072336265884
2.4731182795698925
2.393939393939394
2.3196480938416424
2.2521994134897363
2.196480938416422
2.150537634408602
2.10850439882698
2.071358748778104
2.0391006842619745
2.010752688172043
1.9843597262952104
1.9608993157380252
1.9374389051808407
1.9130009775171064
1.8866080156402736
1.858260019550342
1.8269794721407624
1.7976539589442817
1.7683284457478006
1.7350928641251222
1.6989247311827955
1.6598240469208212
1.6207233626588464
1.5826001955034212
1.5464320625610948
1.512218963831867
1.4809384164222874
1.452590420332356
1.426197458455523
1.404692082111437
1.388074291300098
1.3695014662756595
1.3499511241446724
1.3304007820136852
1.310850439882698
1.2913000977517106
1.270772238514174
1.2502443792766371
1.2287390029325511
1.2072336265884651
1.18475073313783
1.1612903225806452
1.142717497556207
1.126099706744868
1.10752688172043
1.088954056695992
1.0703812316715542
1.0527859237536656
1.0381231671554252
1.0263929618768328
1.018572825024438
1.0146627565982405
1.0127077223851415
1.0127077223851415
1.0146627565982405
1.018572825024438
1.0224828934506354
1.0263929618768328
1.029325513196481
1.0312805474095796
1.032258064516129
1.0332355816226784
1.032258064516129
1.029325513196481
1.0254154447702837
1.0205278592375366
1.0146627565982405
1.0117302052785924
1.0097751710654936
1.0048875855327468
0.9960899315738024
0.9833822091886608
0.9696969696969696
0.9550342130987292
0.9403714565004888
0.9472140762463344
0.9638318670576737
0.9657869012707724
0.9608993157380256
0.9579667644183774
0.9579667644183774
0.9589442815249268
0.967741935483871
0.989247311827957
1.0283479960899315
1.0879765395894427
1.1720430107526882
1.2805474095796676
1.4115347018572826
1.5581622678396871
1.7135874877810362
1.8729227761485825
2.0087976539589443
2.1270772238514173
2.249266862170088
2.363636363636364
2.464320625610948
2.549364613880743
2.619745845552297
2.674486803519061
2.716520039100684
2.748778103616813
2.771260997067449
2.78494623655914
2.787878787878788
2.782991202346041
2.7751710654936463
2.7614858260019552
2.739980449657869
2.7096774193548385
2.670576735092864
2.6207233626588464
2.5620723362658846
2.4946236559139785
2.421309872922776
2.346041055718475
2.270772238514174
2.204301075268817
2.145650048875855
2.0879765395894427
2.0361681329423265
1.992179863147605
1.9550342130987293
1.9237536656891496
1.8973607038123168
1.873900293255132
1.8533724340175952
1.833822091886608
1.8132942326490715
1.793743890518084
1.7741935483870968
1.750733137829912
1.7233626588465298
1.694037145650049
1.6627565982404693
1.6314760508308896
1.5992179863147604
1.5669599217986314
1.5347018572825024
1.5024437927663734
1.469208211143695
1.4349951124144673
1.4056695992179864
1.380254154447703
1.3519061583577712
1.3235581622678396
1.2961876832844574
1.2688172043010753
1.2424242424242424
1.2189638318670577
1.1974584555229717
1.1779081133919844
1.1612903225806452
1.147605083088954
1.1378299120234605
1.130987292277615
1.1221896383186705
1.1133919843597262
1.104594330400782
1.096774193548387
1.0899315738025417
1.083088954056696
1.078201368523949
1.0742913000977516
1.0713587487781036
1.0684261974584557
1.0654936461388074
1.0654936461388074
1.067448680351906
1.0684261974584557
1.0703812316715542
1.0713587487781036
1.072336265884653
1.0733137829912025
1.0742913000977516
1.0762463343108504
1.078201368523949
1.0801564027370478
1.0821114369501466
1.0840664711632453
1.0869990224828934
1.0869990224828934
1.0869990224828934
1.0869990224828934
1.0869990224828934
1.0869990224828934
1.0879765395894427
1.0879765395894427
1.0879765395894427
1.0879765395894427
1.0879765395894427
1.0879765395894427
1.0899315738025417
1.093841642228739
1.0957966764418376
1.096774193548387
1.099706744868035
1.1065493646138806
1.1202346041055715
1.1456500488758554
1.1867057673509287
1.2482893450635386
1.332355816226784
1.4389051808406648
1.5464320625610948
1.6588465298142718
1.796676441837732
1.948191593352884
2.103616813294233
2.254154447702835
2.393939393939394
2.520039100684262
2.63049853372434
2.724340175953079
2.8025415444770285
2.8670576735092865
2.909090909090909
2.93841642228739
2.9667644183773216
2.992179863147605
3.0117302052785924
3.024437927663734
3.0303030303030303
3.0283479960899315
3.0175953079178885
2.997067448680352
2.9667644183773216
2.9257086999022484
2.874877810361681
2.819159335288368
2.7565982404692084
2.684261974584555
2.6050830889540566
2.5219941348973607
2.439882697947214
2.360703812316716
2.2873900293255134
2.219941348973607
2.160312805474096
2.10850439882698
2.0635386119257086
2.0254154447702835
1.994134897360704
1.964809384164223
1.9374389051808407
1.9120234604105573
1.8856304985337244
1.858260019550342
1.8299120234604105
1.7996089931573802
1.7673509286412512
1.732160312805474
1.6950146627565983
1.6578690127077225
1.6256109481915937
1.5962854349951123
1.564027370478983
1.530791788856305
1.4975562072336266
1.4652981427174976
1.434017595307918
1.4037145650048877
1.375366568914956
1.348973607038123
1.324535679374389
1.3020527859237536
1.2854349951124144
1.2727272727272727
1.2580645161290325
1.2434017595307918
1.2297165200391007
1.2179863147605083
1.206256109481916
1.1945259042033236
1.1837732160312806
1.1730205278592376
1.164222873900293
1.1583577712609971
1.152492668621701
1.1505376344086022
1.1495601173020529
1.144672531769306
1.1397849462365592
1.133919843597263
1.1270772238514175
1.1221896383186705
1.1173020527859236
1.1124144672531768
1.10752688172043
1.1036168132942326
1.0987292277614855
1.096774193548387
1.0957966764418376
1.0928641251221896
1.0879765395894427
1.0840664711632453
1.0811339198435972
1.078201368523949
1.0762463343108504
1.0762463343108504
1.0772238514173995
1.078201368523949
1.078201368523949
1.078201368523949
1.0801564027370478
1.0840664711632453
1.086021505376344
1.0869990224828934
1.0879765395894427
1.0879765395894427
1.0879765395894427
1.0879765395894427
1.0879765395894427
1.088954056695992
1.0909090909090908
1.0987292277614855
1.1133919843597262
1.1378299120234605
1.1759530791788857
1.2336265884652982
1.3118279569892473
1.4105571847507332
1.530791788856305
1.6686217008797657
1.818181818181818
1.9716520039100685
2.12316715542522
2.2668621700879767
2.3978494623655915
2.4975562072336266
2.576735092864125
2.64613880742913
2.701857282502444
2.7497556207233624
2.787878787878788
2.8181818181818183
2.841642228739003
2.8582600195503423
2.868035190615836
2.8719452590420333
2.8690127077223853
2.8563049853372435
2.834799608993157
2.807429130009776
2.771260997067449
2.724340175953079
2.668621700879765
2.6041055718475072
2.533724340175953
2.4604105571847508
2.386119257086999
2.313782991202346
2.24633431085044
2.185728250244379
2.136852394916911
2.096774193548387
2.060606060606061
2.0283479960899315
1.9990224828934504
1.9726295210166176
1.948191593352884
1.924731182795699
1.9012707722385145
1.87683284457478
1.8514173998044965
1.8240469208211143
1.7986314760508308
1.772238514173998
1.7419354838709675
1.7086999022482894
1.6744868035190617
1.640273704789834
1.606060606060606
1.5728250244379276
1.5395894428152492
1.5063538611925709
1.4750733137829912
1.444770283479961
1.4164222873900294
1.393939393939394
1.375366568914956
1.3558162267839686
1.335288367546432
1.3157380254154447
1.2971652003910068
1.2795698924731185
1.2639296187683284
1.2502443792766371
1.238514173998045
1.227761485826002
1.217008797653959
1.209188660801564
1.2043010752688172
1.1974584555229717
1.1915933528836755
1.1857282502443791
1.1808406647116323
1.1759530791788857
1.1710654936461389
1.1671554252199414
1.1622678396871946
1.1573802541544478
1.152492668621701
1.1485826001955035
1.1466275659824048
1.1456500488758554
1.142717497556207
1.13880742913001
1.1358748778103618
1.1329423264907137
1.130987292277615
1.1280547409579669
1.126099706744868
1.1241446725317692
1.1221896383186705
1.1202346041055715
1.1202346041055715
1.1221896383186705
1.1241446725317692
1.126099706744868
1.1280547409579669
1.1300097751710656
1.1300097751710656
1.1300097751710656
1.130987292277615
1.130987292277615
1.130987292277615
1.130987292277615
1.1329423264907137
1.1368523949169111
1.1436950146627567
1.155425219941349
1.176930596285435
1.2111436950146628
1.262952101661779
1.3343108504398826
1.4271749755620724
1.5395894428152492
1.6686217008797657
1.8084066471163245
1.95405669599218
2.080156402737048
2.1925708699902247
2.310850439882698
2.423264907135875
2.52297165200391
2.6080156402737047
2.678396871945259
2.7341153470185726
2.779081133919844
2.812316715542522
2.8377321603128056
2.8563049853372435
2.863147605083089
2.86217008797654
2.859237536656892
2.850439882697948
2.834799608993157
2.809384164222874
2.774193548387097
2.7282502443792764
2.6725317693059627
2.608993157380254
2.539589442815249
2.4672531769305963
2.393939393939394
2.3284457478005867
2.2688172043010755
2.209188660801564
2.15347018572825
2.104594330400782
2.06158357771261
2.0254154447702835
1.994134897360704
1.9667644183773216
1.9423264907135875
1.9178885630498532
1.8944281524926687
1.873900293255132
1.8543499511241448
1.83088954056696
1.8035190615835777
1.7741935483870968
1.7429130009775171
1.7096774193548387
1.675464320625611
1.6412512218963833
1.606060606060606
1.5728250244379276
1.5405669599217986
1.5083088954056696
1.4819159335288368
1.4594330400782014
1.434017595307918
1.409579667644184
1.3861192570869991
1.3626588465298142
1.3391984359726294
1.3186705767350928
1.300097751710655
1.2825024437927663
1.2688172043010753
1.2561094819159335
