ppg
2.8044965786901277
2.8484848484848486
2.8836754643206257
2.911045943304008
2.9315738025415445
2.946236559139785
2.9550342130987293
2.956011730205278
2.948191593352884
2.930596285434995
2.905180840664712
2.8719452590420333
2.83088954056696
2.779081133919844
2.7145650048875853
2.6402737047898337
2.557184750733138
2.469208211143695
2.3792766373411536
2.290322580645161
2.206256109481916
2.134897360703812
2.075268817204301
2.018572825024438
1.967741935483871
1.9227761485826005
1.8836754643206255
1.8484848484848484
1.81524926686217
1.7839687194525904
1.7526881720430108
1.721407624633431
1.6901270772238517
1.6578690127077225
1.6285434995112416
1.6021505376344083
1.5728250244379276
1.542521994134897
1.5112414467253177
1.4809384164222874
1.4506353861192571
1.4222873900293256
1.393939393939394
1.3665689149560116
1.3401759530791788
1.3157380254154447
1.2971652003910068
1.2825024437927663
1.2649071358748778
1.2473118279569892
1.2316715542521994
1.217008797653959
1.203323558162268
1.1896383186705768
1.176930596285435
1.1652003910068427
1.1534701857282503
1.141739980449658
1.130987292277615
1.1231671554252198
1.1173020527859236
1.110459433040078
1.1026392961876832
1.093841642228739
1.0850439882697946
1.0762463343108504
1.067448680351906
1.0596285434995112
1.053763440860215
1.0488758553274682
1.0439882697947214
1.043010752688172
1.043010752688172
1.0410557184750733
1.0381231671554252
1.035190615835777
1.0312805474095796
1.0273704789833822
1.024437927663734
1.0234604105571847
1.0224828934506354
1.0224828934506354
1.0224828934506354
1.0224828934506354
1.024437927663734
1.0283479960899315
1.0303030303030305
1.0312805474095796
1.032258064516129
1.0332355816226784
1.035190615835777
1.0371456500488758
1.0381231671554252
1.0391006842619743
1.0391006842619743
1.0391006842619743
1.0420332355816226
1.04594330400782
1.0488758553274682
1.0518084066471165
1.0576735092864125
1.072336265884653
1.0987292277614855
1.142717497556207
1.2082111436950147
1.2991202346041055
1.41544477028348
1.555229716520039
1.7126099706744868
1.857282502443793
1.994134897360704
2.145650048875855
2.2961876832844577
2.4349951124144678
2.5562072336265884
2.6578690127077222
2.740957966764418
2.806451612903226
2.857282502443793
2.895405669599218
2.9257086999022484
2.9423264907135875
2.9501466275659824
2.9589442815249267
2.963831867057673
2.963831867057673
2.956011730205278
2.9393939393939394
2.913978494623656
2.877810361681329
2.83088954056696
2.773216031280548
2.705767350928641
2.6295210166177907
2.5542521994134897
2.4789833822091887
2.3958944281524928
2.310850439882698
2.228739002932551
2.150537634408602
2.080156402737048
2.018572825024438
1.964809384164223
1.9188660801564028
1.8797653958944285
1.8435972629521016
1.8132942326490715
1.7849462365591398
1.7556207233626588
1.7253176930596286
1.694037145650049
1.66177908113392
1.629521016617791
1.5972629521016617
1.564027370478983
1.530791788856305
1.498533724340176
1.466275659824047
1.4349951124144673
1.4105571847507332
1.388074291300098
1.3636363636363635
1.3391984359726294
1.3157380254154447
1.2932551319648091
1.2727272727272727
1.2531769305962854
1.2355816226783969
1.219941348973607
1.2052785923753666
1.1915933528836755
1.181818181818182
1.173998044965787
1.164222873900293
1.1534701857282503
1.142717497556207
1.133919843597263
1.1270772238514175
1.1192570869990224
1.110459433040078
1.1016617790811338
1.093841642228739
1.086021505376344
1.078201368523949
1.0733137829912025
1.0703812316715542
1.0654936461388074
1.0596285434995112
1.0527859237536656
1.04594330400782
1.0391006842619743
1.0332355816226784
1.0283479960899315
1.024437927663734
1.0205278592375366
1.0166177908113392
1.0166177908113392
1.0195503421309873
1.0205278592375366
1.0205278592375366
1.0205278592375366
1.0195503421309873
1.018572825024438
1.0175953079178883
1.0166177908113392
1.0166177908113392
1.0166177908113392
1.0166177908113392
1.0195503421309873
1.0234604105571847
1.0263929618768328
1.0303030303030305
1.0332355816226784
1.035190615835777
1.0371456500488758
1.0381231671554252
1.0391006842619743
1.040078201368524
1.043010752688172
1.0498533724340176
1.0635386119257086
1.0850439882697946
1.118279569892473
1.1720430107526882
1.2502443792766371
1.3558162267839686
1.4868035190615836
1.6392961876832846
1.8064516129032255
1.9794721407624636
2.1495601173020527
2.3098729227761488
2.4545454545454546
2.5650048875855327
2.649071358748778
2.727272727272727
2.793743890518084
2.8475073313782997
2.889540566959922
2.921798631476051
2.9472140762463344
2.9667644183773216
2.981427174975562
2.989247311827957
2.9902248289345064
2.9824046920821115
2.963831867057673
2.936461388074292
2.9012707722385143
2.857282502443793
2.8025415444770285
2.73802541544477
2.664711632453568
2.5835777126099706
2.4975562072336266
2.4086021505376345
2.320625610948192
2.236559139784946
2.1652003910068425
2.103616813294233
2.0439882697947214
1.989247311827957
1.9403714565004888
1.8983382209188664
1.8602150537634408
1.826001955034213
1.793743890518084
1.7624633431085044
1.7311827956989247
1.6989247311827955
1.6656891495601174
1.6363636363636365
1.6080156402737047
1.5757575757575757
1.542521994134897
1.5102639296187683
1.478005865102639
1.447702834799609
1.418377321603128
1.391006842619746
1.3665689149560116
1.343108504398827
1.321603128054741
1.3049853372434017
1.2903225806451613
1.273704789833822
1.2570869990224829
1.241446725317693
1.2267839687194526
1.2130987292277615
1.1994134897360704
1.1867057673509287
1.1749755620723363
1.163245356793744
1.152492668621701
1.141739980449658
1.1358748778103618
1.1319648093841643
1.126099706744868
1.1192570869990224
1.1114369501466277
1.1036168132942326
1.0948191593352885
1.0850439882697946
1.0762463343108504
1.067448680351906
1.0596285434995112
1.053763440860215
1.0518084066471165
1.0518084066471165
1.0498533724340176
1.0469208211143697
1.043010752688172
1.040078201368524
1.0391006842619743
1.0381231671554252
1.0381231671554252
1.0381231671554252
1.0381231671554252
1.0381231671554252
1.0381231671554252
1.040078201368524
1.0439882697947214
1.04594330400782
1.0469208211143697
1.0478983382209188
1.0488758553274682
1.050830889540567
1.0527859237536656
1.0547409579667644
1.0576735092864125
1.0606060606060606
1.0625610948191593
1.0654936461388074
1.0684261974584557
1.0694037145650048
1.0703812316715542
1.072336265884653
1.078201368523949
1.0928641251221896
1.121212121212121
1.1681329423264908
1.238514173998045
1.335288367546432
1.457478005865103
1.6021505376344083
1.739980449657869
1.8758553274682308
2.032258064516129
2.193548387096774
2.347996089931574
2.487781036168133
2.608993157380254
2.7096774193548385
2.790811339198436
2.855327468230694
2.905180840664712
2.9442815249266863
2.967741935483871
2.979472140762464
2.991202346041056
2.99902248289345
3.0009775171065494
2.997067448680352
2.986314760508309
2.9667644183773216
2.9374389051808407
2.897360703812317
2.8475073313782997
2.7869012707722387
2.717497556207233
2.6471163245356792
2.5747800586510263
2.493646138807429
2.407624633431085
2.321603128054741
2.239491691104594
2.164222873900293
2.096774193548387
2.0391006842619745
1.991202346041056
1.9530791788856303
1.9227761485826005
1.8993157380254155
1.8797653958944285
1.86119257086999
1.842619745845552
1.822091886608016
1.7986314760508308
1.7712609970674489
1.739980449657869
1.704789833822092
1.6666666666666667
1.6275659824046922
1.587487781036168
1.5483870967741935
1.5151515151515151
1.4848484848484849
1.4516129032258065
1.418377321603128
1.3870967741935485
1.356793743890518
1.327468230694037
1.3010752688172045
1.2776148582600195
1.2570869990224829
1.2375366568914956
1.219941348973607
1.2072336265884651
1.1974584555229717
1.1867057673509287
1.1749755620723363
1.163245356793744
1.1515151515151516
1.1397849462365592
1.1290322580645162
1.1192570869990224
1.110459433040078
1.1016617790811338
1.0928641251221896
1.083088954056696
1.0772238514173995
1.072336265884653
1.0654936461388074
1.0586510263929618
1.050830889540567
1.0439882697947214
1.0381231671554252
1.0332355816226784
1.0283479960899315
1.0224828934506354
1.0175953079178883
1.010752688172043
1.0058651026392962
1.0039100684261977
1.0009775171065494
0.9980449657869012
0.9960899315738024
0.9951124144672532
0.9951124144672532
0.9941348973607038
0.9931573802541545
0.9931573802541545
0.9931573802541545
0.9931573802541545
0.9951124144672532
0.9990224828934506
1.0009775171065494
1.0019550342130987
1.0019550342130987
1.0019550342130987
1.002932551319648
1.0039100684261977
1.0048875855327468
1.0068426197458455
1.0097751710654936
1.013685239491691
1.0205278592375366
1.032258064516129
1.0518084066471165
1.0840664711632453
1.1358748778103618
1.2121212121212122
1.3157380254154447
1.444770283479961
1.5962854349951123
1.7634408602150538
1.9393939393939397
2.113391984359726
2.2795698924731185
2.4115347018572826
2.5190615835777126
2.624633431085044
2.718475073313783
2.7976539589442817
2.86217008797654
2.9159335288367547
2.960899315738025
2.99902248289345
3.03128054740958
3.056695992179863
3.075268817204301
3.085043988269794
3.0821114369501466
3.067448680351906
3.04594330400782
3.0127077223851417
2.964809384164223
2.903225806451613
2.827956989247312
2.739980449657869
2.643206256109482
2.541544477028348
2.4389051808406648
2.3382209188660803
2.2521994134897363
2.177908113391984
2.1055718475073317
2.0391006842619745
1.9794721407624636
1.9257086999022484
1.878787878787879
1.836754643206256
1.7976539589442817
1.7595307917888563
1.7223851417399805
1.6852394916911049
1.6500488758553276
1.6217008797653958
1.5962854349951123
1.5698924731182795
1.5454545454545454
1.52297165200391
1.5034213098729228
1.487781036168133
1.4750733137829912
1.4643206256109482
1.455522971652004
1.4486803519061584
1.444770283479961
1.4428152492668622
1.4418377321603129
1.439882697947214
1.4379276637341154
1.435972629521017
1.4330400782013686
1.4281524926686218
1.4213098729227762
1.412512218963832
1.401759530791789
1.3870967741935485
1.370478983382209
1.3499511241446724
1.3304007820136852
1.310850439882698
1.2834799608993157
1.252199413489736
1.2179863147605083
1.1837732160312806
1.1495601173020529
1.118279569892473
1.0899315738025417
1.0664711632453567
1.0478983382209188
1.0332355816226784
1.0254154447702837
1.0234604105571847
1.024437927663734
1.0283479960899315
1.0361681329423265
1.0478983382209188
1.06158357771261
1.0772238514173995
1.093841642228739
1.1094819159335287
1.1241446725317692
1.1348973607038124
1.141739980449658
1.1466275659824048
1.1485826001955035
1.1436950146627567
1.1329423264907137
1.118279569892473
1.099706744868035
1.078201368523949
1.0557184750733135
1.032258064516129
1.0097751710654936
0.989247311827957
0.9726295210166178
0.9628543499511242
0.959921798631476
0.9579667644183774
0.9589442815249268
0.9638318670576737
0.9726295210166178
0.9863147605083088
1.0058651026392962
1.0342130987292275
1.075268817204301
1.1348973607038124
1.217008797653959
1.3255131964809383
1.4389051808406648
1.564027370478983
1.7223851417399805
1.903225806451613
2.0948191593352883
2.2854349951124147
2.4652981427174976
2.627565982404692
2.7673509286412514
2.8826979472140764
2.972629521016618
3.0391006842619745
3.078201368523949
3.0977517106549364
3.112414467253177
3.1192570869990224
3.118279569892473
3.110459433040078
3.0957966764418376
3.0733137829912023
3.043010752688172
3.002932551319648
2.95405669599218
2.895405669599218
2.827956989247312
2.758553274682307
2.6852394916911044
2.6021505376344085
2.5131964809384164
2.423264907135875
2.334310850439883
2.251221896383187
2.176930596285435
2.112414467253177
2.0576735092864125
2.0127077223851417
1.9765395894428155
1.948191593352884
1.9257086999022484
1.9042033235581624
1.8836754643206255
1.8641251221896384
1.8435972629521016
1.822091886608016
1.7996089931573802
1.7761485826001957
1.750733137829912
1.7253176930596286
1.6989247311827955
1.6715542521994136
1.64613880742913
1.6226783968719452
1.5962854349951123
1.56891495601173
1.5405669599217986
1.512218963831867
1.4838709677419355
1.457478005865103
1.43108504398827
1.4056695992179864
1.3812316715542523
1.3577712609970674
1.3391984359726294
1.321603128054741
1.3010752688172045
1.278592375366569
1.2570869990224829
1.2355816226783969
1.2150537634408602
1.1964809384164223
1.1808406647116323
1.1671554252199414
1.1544477028347997
1.141739980449658
1.1329423264907137
1.0195503421309873
1.0175953079178883
1.0127077223851415
1.0068426197458455
1.0009775171065494
1.007820136852395
1.0224828934506354
1.029325513196481
1.0312805474095796
1.0312805474095796
1.032258064516129
1.035190615835777
1.0439882697947214
1.06158357771261
1.0928641251221896
1.1436950146627567
1.2179863147605083
1.3186705767350928
1.4428152492668622
1.587487781036168
1.7458455522971652
1.9090909090909087
2.0684261974584555
2.2170087976539588
2.333333333333333
2.426197458455523
2.515151515151515
2.5943304007820136
2.66177908113392
2.716520039100684
2.760508308895406
2.795698924731183
2.823069403714565
2.843597262952102
2.8582600195503423
2.8670576735092865
2.870967741935484
2.865102639296188
2.850439882697948
2.831867057673509
2.806451612903226
2.773216031280548
2.729227761485826
2.67644183773216
2.6148582600195502
2.5454545454545454
2.4682306940371457
2.388074291300098
2.3059628543499517
2.231671554252199
2.163245356793744
2.093841642228739
2.027370478983382
1.9667644183773216
1.9130009775171064
1.866080156402737
1.826001955034213
1.790811339198436
1.758553274682307
1.7282502443792769
1.699902248289345
1.6705767350928642
1.6451612903225807
1.6226783968719452
1.5972629521016617
1.56891495601173
1.5395894428152492
1.509286412512219
1.478005865102639
1.447702834799609
1.418377321603128
1.3900293255131966
1.3636363636363635
1.3391984359726294
1.3206256109481915
1.3049853372434017
1.2883675464320623
1.2717497556207231
1.2551319648093842
1.238514173998045
1.2228739002932552
1.2082111436950147
1.1935483870967742
1.1788856304985338
1.166177908113392
1.155425219941349
1.144672531769306
1.1378299120234605
1.1329423264907137
1.1251221896383188
1.1163245356793745
1.10752688172043
1.099706744868035
1.0909090909090908
1.083088954056696
1.075268817204301
1.067448680351906
1.0596285434995112
1.0527859237536656
1.0488758553274682
1.0469208211143697
1.0439882697947214
1.0410557184750733
1.0381231671554252
1.035190615835777
1.032258064516129
1.029325513196481
1.0263929618768328
1.0234604105571847
1.021505376344086
1.0195503421309873
1.0175953079178883
1.018572825024438
1.0224828934506354
1.0254154447702837
1.0273704789833822
1.029325513196481
1.0312805474095796
1.0342130987292275
1.0371456500488758
1.0391006842619743
1.040078201368524
1.0410557184750733
1.043010752688172
1.04594330400782
1.050830889540567
1.053763440860215
1.0557184750733135
1.0576735092864125
1.0625610948191593
1.0733137829912025
1.0948191593352885
1.130987292277615
1.1886608015640274
1.2697947214076246
1.375366568914956
1.5034213098729228
1.6275659824046922
1.7517106549364614
1.895405669599218
2.0449657869012707
2.188660801564027
2.320625610948192
2.436950146627566
2.5347018572825024
2.6148582600195502
2.679374389051808
2.730205278592375
2.7702834799608995
2.795698924731183
2.8103616813294234
2.825024437927664
2.8377321603128056
2.84652981427175
2.849462365591398
2.8455522971652005
2.834799608993157
2.81622678396872
2.787878787878788
2.7497556207233624
2.701857282502444
2.6422287390029324
2.579667644183773
2.5131964809384164
2.436950146627566
2.3548387096774195
2.269794721407625
2.185728250244379
2.1055718475073317
2.0332355816226784
1.9696969696969695
1.9149560117302051
1.869012707722385
1.83088954056696
1.8005865102639296
1.775171065493646
1.7497556207233629
1.7233626588465298
1.6959921798631477
1.667644183773216
1.6392961876832846
1.6099706744868034
1.5806451612903225
1.5513196480938416
1.521016617790811
1.490713587487781
1.4604105571847508
1.4349951124144673
1.412512218963832
1.3870967741935485
1.3616813294232648
1.3372434017595307
1.3157380254154447
1.2961876832844574
1.2776148582600195
1.260019550342131
1.2434017595307918
1.2287390029325511
1.2150537634408602
1.2052785923753666
1.198435972629521
1.1896383186705768
1.1798631476050832
1.1691104594330402
1.1593352883675463
1.1505376344086022
1.141739980449658
1.1329423264907137
1.1241446725317692
1.1143695014662756
1.1055718475073313
1.1006842619745845
1.0977517106549364
1.0928641251221896
1.0879765395894427
1.083088954056696
1.078201368523949
1.0742913000977516
1.0703812316715542
1.0664711632453567
1.0635386119257086
1.0596285434995112
1.056695992179863
1.0557184750733135
1.0576735092864125
1.0606060606060606
1.0625610948191593
1.0635386119257086
1.0635386119257086
1.0635386119257086
1.0635386119257086
1.0635386119257086
1.0635386119257086
1.0635386119257086
1.064516129032258
1.0664711632453567
1.0703812316715542
1.075268817204301
1.0791788856304985
1.0821114369501466
1.0840664711632453
1.0850439882697946
1.086021505376344
1.0869990224828934
1.088954056695992
1.0918866080156402
1.0948191593352885
1.1006842619745845
1.1143695014662756
1.133919843597263
1.1652003910068427
1.2160312805474096
1.2903225806451613
1.3890518084066472
1.5112414467253177
1.6520039100684265
1.8054740957966764
1.964809384164223
2.120234604105572
2.2668621700879767
2.398826979472141
2.5249266862170088
2.641251221896383
2.736070381231672
2.811339198435973
2.8699902248289346
2.9159335288367547
2.9501466275659824
2.9765395894428157
2.995112414467253
3.007820136852395
3.0146627565982405
3.013685239491691
3.005865102639296
2.989247311827957
2.963831867057673
2.9315738025415445
2.8905180840664717
2.8396871945259043
2.7781036168132944
2.7067448680351904
2.6265884652981426
2.5405669599217986
2.4516129032258065
2.3626588465298144
2.27761485826002
2.2052785923753664
2.1417399804496577
2.080156402737048
2.0234604105571847
1.9736070381231672
1.9305962854349952
1.89247311827957
1.857282502443793
1.8240469208211143
1.7917888563049853
1.758553274682307
1.726295210166178
1.6930596285434996
1.6637341153470186
1.6373411534701858
1.6080156402737047
1.5777126099706744
1.5464320625610948
1.5151515151515151
1.4848484848484849
1.455522971652004
1.4281524926686218
1.401759530791789
1.375366568914956
1.3509286412512218
1.3313782991202343
1.3157380254154447
1.2981427174975562
1.281524926686217
1.2658846529814272
1.2512218963831867
1.2365591397849462
1.2228739002932552
1.2101661779081134
1.198435972629521
1.1867057673509287
1.1749755620723363
1.164222873900293
1.1564027370478984
1.1505376344086022
1.142717497556207
1.133919843597263
1.126099706744868
1.118279569892473
1.1094819159335287
1.1016617790811338
1.093841642228739
1.086021505376344
1.078201368523949
1.0713587487781036
1.067448680351906
1.0664711632453567
1.0635386119257086
1.0606060606060606
1.0576735092864125
1.0557184750733135
1.0547409579667644
1.053763440860215
1.053763440860215
1.0527859237536656
1.0518084066471165
1.0518084066471165
1.0518084066471165
1.053763440860215
1.0576735092864125
1.0596285434995112
1.0596285434995112
1.0586510263929618
1.0576735092864125
1.056695992179863
1.0557184750733135
1.0557184750733135
1.0557184750733135
1.056695992179863
1.0576735092864125
1.0606060606060606
1.064516129032258
1.067448680351906
1.0713587487781036
1.0772238514173995
1.088954056695992
1.1114369501466277
1.1495601173020529
1.209188660801564
1.295210166177908
1.4076246334310851
1.542521994134897
1.696969696969697
1.8406647116324533
1.9775171065493649
2.1309872922776147
2.2844574780058653
2.4281524926686218
2.5562072336265884
2.664711632453568
2.7546432062561097
2.8269794721407626
2.8836754643206257
2.927663734115347
2.961876832844575
2.9804496578690127
2.9902248289345064
3.0009775171065494
3.0087976539589443
3.0117302052785924
3.0097751710654936
3.0
2.9804496578690127
2.952101661779081
2.9120234604105573
2.860215053763441
2.798631476050831
2.7262952101661777
2.6529814271749754
2.5777126099706744
2.49266862170088
2.403714565004888
2.315738025415445
2.231671554252199
2.1544477028347995
2.086021505376344
2.026392961876833
1.9745845552297163
1.9296187683284456
1.889540566959922
1.8563049853372435
1.8269794721407624
1.7976539589442817
1.7663734115347018
1.7341153470185728
1.7028347996089932
1.6715542521994136
1.6392961876832846
1.607038123167155
1.5757575757575757
1.544477028347996
1.512218963831867
1.4838709677419355
1.458455522971652
1.43108504398827
1.401759530791789
1.3734115347018572
1.3479960899315735
1.3235581622678396
1.3010752688172045
1.2805474095796676
1.262952101661779
1.24633431085044
1.2316715542521994
1.2179863147605083
1.2082111436950147
1.2013685239491692
1.1915933528836755
1.1808406647116323
1.1691104594330402
1.1583577712609971
1.147605083088954
1.1378299120234605
1.1280547409579669
1.118279569892473
1.1085043988269794
1.0987292277614855
1.0928641251221896
1.088954056695992
1.0840664711632453
1.078201368523949
1.072336265884653
1.067448680351906
1.0625610948191593
1.056695992179863
1.0518084066471165
1.0478983382209188
1.0439882697947214
1.0410557184750733
1.0391006842619743
1.0410557184750733
1.0439882697947214
1.04594330400782
1.0469208211143697
1.0469208211143697
1.0469208211143697
1.0469208211143697
1.0469208211143697
1.0469208211143697
1.0469208211143697
1.0469208211143697
1.0469208211143697
1.0498533724340176
1.053763440860215
1.0557184750733135
1.0586510263929618
1.06158357771261
1.0654936461388074
1.0684261974584557
1.0713587487781036
1.0733137829912025
1.0762463343108504
1.0811339198435972
1.0928641251221896
1.1163245356793745
1.1485826001955035
1.1964809384164223
1.2697947214076246
1.3714565004887584
1.498533724340176
1.6471163245356797
1.8113391984359728
1.9824046920821117
2.1515151515151514
2.310850439882698
2.455522971652004
2.5806451612903225
2.6725317693059627
2.739980449657869
2.803519061583578
2.8582600195503423
2.902248289345064
2.936461388074292
2.963831867057673
2.98435972629521
2.99902248289345
3.007820136852395
3.010752688172043
3.005865102639296
2.992179863147605
2.9696969696969697
2.93841642228739
2.897360703812317
2.8455522971652005
2.78494623655914
2.7145650048875853
2.6295210166177907
2.535679374389052
2.442815249266862
2.3519061583577714
2.264907135874878
2.1837732160312804
2.1163245356793743
2.058651026392962
2.003910068426197
1.9550342130987293
1.9120234604105573
1.873900293255132
1.8387096774193548
1.8054740957966764
1.7732160312805474
1.7409579667644184
1.7086999022482894
1.675464320625611
1.6422287390029326
1.6129032258064515
1.585532746823069
1.555229716520039
1.52297165200391
1.4916911045943304
1.4604105571847508
1.4301075268817205
1.4007820136852396
1.3724340175953078
1.346041055718475
1.3206256109481915
1.2971652003910068
1.2795698924731185
1.2649071358748778
1.2482893450635386
1.2316715542521994
1.2160312805474096
1.2013685239491692
1.187683284457478
1.1749755620723363
1.163245356793744
1.1515151515151516
1.1397849462365592
1.1280547409579669
1.1173020527859236
1.110459433040078
1.1055718475073313
1.0987292277614855
1.0899315738025417
1.0811339198435972
1.0713587487781036
1.0625610948191593
1.053763440860215
1.04594330400782
1.0391006842619743
1.0332355816226784
1.0273704789833822
1.0254154447702837
1.0254154447702837
1.0234604105571847
1.021505376344086
1.0195503421309873
1.018572825024438
1.0175953079178883
1.0166177908113392
1.0156402737047898
1.013685239491691
1.0117302052785924
1.010752688172043
1.010752688172043
1.0127077223851415
1.0166177908113392
1.0195503421309873
1.0224828934506354
1.024437927663734
1.0254154447702837
