ppg
0.9442815249266864
0.9433040078201368
0.9423264907135877
0.9413489736070382
0.9393939393939394
0.93841642228739
0.9374389051808406
0.9364613880742912
0.935483870967742
0.9345063538611924
0.935483870967742
0.93841642228739
0.9403714565004888
0.9403714565004888
0.9403714565004888
0.9403714565004888
0.9423264907135877
0.9491691104594332
0.9648093841642228
0.9941348973607038
1.043010752688172
1.1133919843597262
1.1915933528836755
1.281524926686217
1.3998044965786902
1.5376344086021505
1.6842619745845553
1.8318670576735088
1.9726295210166176
2.1006842619745845
2.212121212121212
2.3059628543499517
2.383186705767351
2.4457478005865103
2.495601173020528
2.527859237536657
2.549364613880743
2.570869990224829
2.590420332355816
2.606060606060606
2.616813294232649
2.622678396871945
2.622678396871945
2.6158357771261
2.6021505376344085
2.5806451612903225
2.550342130987292
2.5141739980449658
2.4711632453567938
2.419354838709677
2.360703812316716
2.2961876832844577
2.2277614858260018
2.158357771260997
2.09188660801564
2.029325513196481
1.9726295210166176
1.9227761485826005
1.878787878787879
1.8416422287390029
1.8113391984359728
1.7849462365591398
1.7595307917888563
1.7341153470185728
1.7096774193548387
1.6842619745845553
1.6578690127077225
1.6314760508308896
1.6041055718475072
1.5747800586510263
1.544477028347996
1.5141739980449658
1.4868035190615836
1.4623655913978495
1.434017595307918
1.4056695992179864
1.3773216031280548
1.3499511241446724
1.324535679374389
1.300097751710655
1.2766373411534702
1.2551319648093842
1.2346041055718475
1.2160312805474096
1.1994134897360704
1.1867057673509287
1.176930596285435
1.166177908113392
1.155425219941349
1.144672531769306
1.1348973607038124
1.126099706744868
1.118279569892473
1.110459433040078
1.1026392961876832
1.0957966764418376
1.088954056695992
1.0850439882697946
1.0821114369501466
1.0772238514173995
1.0713587487781036
1.064516129032258
1.0576735092864125
1.0498533724340176
1.043010752688172
1.035190615835777
1.0283479960899315
1.0224828934506354
1.0166177908113392
1.0117302052785924
1.0097751710654936
1.0087976539589445
1.0058651026392962
1.002932551319648
1.0
0.997067448680352
0.9951124144672532
0.9941348973607038
0.9931573802541545
0.9912023460410556
0.9902248289345064
0.989247311827957
0.9902248289345064
0.9921798631476052
0.9931573802541545
0.9951124144672532
0.9960899315738024
0.997067448680352
0.9990224828934506
1.0009775171065494
1.002932551319648
1.0058651026392962
1.0087976539589445
1.0127077223851415
1.0175953079178883
1.0234604105571847
1.0303030303030305
1.0361681329423265
1.0420332355816226
1.050830889540567
1.0654936461388074
1.0909090909090908
1.1329423264907137
1.1935483870967742
1.2776148582600195
1.3841642228739004
1.5102639296187683
1.629521016617791
1.7468230694037146
1.8807429130009776
2.01564027370479
2.1436950146627565
2.257086999022483
2.3548387096774195
2.4349951124144678
2.4995112414467253
2.5513196480938416
2.591397849462365
2.622678396871945
2.6471163245356792
2.659824046920821
2.665689149560117
2.6715542521994133
2.675464320625611
2.674486803519061
2.667644183773216
2.653958944281525
2.633431085043988
2.6050830889540566
2.567937438905181
2.5219941348973607
2.4682306940371457
2.4134897360703813
2.356793743890518
2.2932551319648096
2.225806451612903
2.158357771260997
2.0948191593352883
2.037145650048876
1.9853372434017595
1.9393939393939397
1.900293255131965
1.866080156402737
1.835777126099707
1.8084066471163245
1.7839687194525904
1.761485826001955
1.737047898338221
1.7116324535679377
1.6852394916911049
1.656891495601173
1.6275659824046922
1.598240469208211
1.56891495601173
1.5395894428152492
1.5102639296187683
1.52297165200391
1.5620723362658846
1.5718475073313782
1.563049853372434
1.5454545454545454
1.5249266862170088
1.5034213098729228
1.4819159335288368
1.4613880742913
1.4428152492668622
1.4252199413489737
1.409579667644184
1.3949169110459434
1.3841642228739004
1.375366568914956
1.364613880742913
1.35386119257087
1.343108504398827
1.3333333333333333
1.3225806451612905
1.3118279569892473
1.3020527859237536
1.29227761485826
1.2825024437927663
1.2727272727272727
1.2639296187683284
1.2570869990224829
1.2531769305962854
1.24633431085044
1.2375366568914956
1.2287390029325511
1.2189638318670577
1.2101661779081134
1.2023460410557183
1.195503421309873
1.1886608015640274
1.181818181818182
1.1759530791788857
1.173998044965787
1.1730205278592376
1.1700879765395895
1.166177908113392
1.1622678396871946
1.1593352883675463
1.1564027370478984
1.1534701857282503
1.1505376344086022
1.1485826001955035
1.1466275659824048
1.144672531769306
1.1436950146627567
1.144672531769306
1.147605083088954
1.1495601173020529
1.1505376344086022
1.1505376344086022
1.1505376344086022
1.1505376344086022
1.1515151515151516
1.1534701857282503
1.155425219941349
1.1573802541544478
1.1593352883675463
1.1622678396871946
1.1671554252199414
1.1749755620723363
1.1896383186705768
1.217008797653959
1.262952101661779
1.332355816226784
1.4281524926686218
1.5493646138807429
1.6911045943304008
1.8494623655913975
2.013685239491691
2.174975562072336
2.30791788856305
2.418377321603128
2.5268817204301075
2.6236559139784945
2.705767350928641
2.773216031280548
2.8269794721407626
2.8699902248289346
2.903225806451613
2.9286412512218964
2.948191593352884
2.960899315738025
2.962854349951124
2.9579667644183774
2.951124144672532
2.9393939393939394
2.919843597262952
2.89247311827957
2.8563049853372435
2.8103616813294234
2.7546432062561097
2.6901270772238512
2.618768328445748
2.5434995112414467
2.4672531769305963
2.3978494623655915
2.334310850439883
2.269794721407625
2.209188660801564
2.1544477028347995
2.1065493646138806
2.064516129032258
2.027370478983382
1.994134897360704
1.963831867057673
1.9335288367546437
1.903225806451613
1.8758553274682308
1.8494623655913975
1.8191593352883677
1.7878787878787878
1.7546432062561097
1.721407624633431
1.6871945259042034
1.653958944281525
1.6217008797653958
1.5894428152492668
1.5581622678396871
1.5288367546432062
1.501466275659824
1.478983382209189
1.4594330400782014
1.4379276637341154
1.4173998044965788
1.3978494623655917
1.380254154447703
1.3636363636363635
1.3479960899315735
1.3343108504398826
1.3206256109481915
1.3069403714565004
1.295210166177908
1.2873900293255132
1.281524926686217
1.273704789833822
1.2639296187683284
1.2541544477028348
1.2453567937438903
1.2355816226783969
1.2258064516129032
1.2160312805474096
1.2072336265884651
1.198435972629521
1.1896383186705768
1.1808406647116323
1.1749755620723363
1.1710654936461389
1.1652003910068427
1.1593352883675463
1.1534701857282503
1.1485826001955035
1.144672531769306
1.1407624633431086
1.1378299120234605
1.1348973607038124
1.1319648093841643
1.1290322580645162
1.1290322580645162
1.1300097751710656
1.1290322580645162
1.1270772238514175
1.1251221896383188
1.1231671554252198
1.1221896383186705
1.1221896383186705
1.1221896383186705
1.1221896383186705
1.1221896383186705
1.1221896383186705
1.1221896383186705
1.1251221896383188
1.1300097751710656
1.133919843597263
1.1368523949169111
1.1397849462365592
1.142717497556207
1.1456500488758554
1.1485826001955035
1.1515151515151516
1.1544477028347997
1.160312805474096
1.1710654936461389
1.187683284457478
1.2150537634408602
1.2609970674486803
1.3304007820136852
1.4252199413489737
1.5464320625610948
1.6911045943304008
1.8514173998044965
2.0195503421309877
2.185728250244379
2.3421309872922778
2.4819159335288368
2.6021505376344085
2.6901270772238512
2.7546432062561097
2.814271749755621
2.866080156402737
2.90811339198436
2.9423264907135875
2.9696969696969697
2.991202346041056
3.006842619745845
3.016617790811339
3.0205278592375366
3.0175953079178885
3.005865102639296
2.9853372434017595
2.9589442815249267
2.924731182795699
2.8807429130009776
2.8269794721407626
2.764418377321604
2.6930596285435
2.616813294232649
2.5386119257087
2.4604105571847508
2.3851417399804498
2.320625610948192
2.2639296187683287
2.210166177908113
2.160312805474096
2.1163245356793743
2.078201368523949
2.0439882697947214
2.0127077223851417
1.9833822091886608
1.95405669599218
1.924731182795699
1.8944281524926687
1.8641251221896384
1.835777126099707
1.8084066471163245
1.7771260997067448
1.7448680351906158
1.7116324535679377
1.678396871945259
1.6451612903225807
1.6138807429130009
1.5835777126099706
1.5542521994134897
1.5268817204301075
1.500488758553275
1.479960899315738
1.4623655913978495
1.4437927663734116
1.4252199413489737
1.4076246334310851
1.391006842619746
1.348973607038123
1.2942326490713587
1.260019550342131
1.2355816226783969
1.2179863147605083
1.203323558162268
1.1906158357771262
1.181818181818182
1.1749755620723363
1.1671554252199414
1.1573802541544478
1.1466275659824048
1.1348973607038124
1.1231671554252198
1.1124144672531768
1.1016617790811338
1.0909090909090908
1.0811339198435972
1.0733137829912025
1.0684261974584557
1.0654936461388074
1.0606060606060606
1.0547409579667644
1.0488758553274682
1.0439882697947214
1.040078201368524
1.0371456500488758
1.0342130987292275
1.0303030303030305
1.0263929618768328
1.0234604105571847
1.0195503421309873
1.018572825024438
1.0195503421309873
1.018572825024438
1.0166177908113392
1.013685239491691
1.0117302052785924
1.0097751710654936
1.0068426197458455
1.0048875855327468
1.0039100684261977
1.0039100684261977
1.0039100684261977
1.007820136852395
1.013685239491691
1.0175953079178883
1.021505376344086
1.0254154447702837
1.0283479960899315
1.0312805474095796
1.035190615835777
1.0420332355816226
1.056695992179863
1.0840664711632453
1.1319648093841643
1.2043010752688172
1.2873900293255132
1.3861192570869991
1.517106549364614
1.6715542521994136
1.839687194525904
2.0117302052785924
2.176930596285435
2.3284457478005867
2.462365591397849
2.5747800586510263
2.667644183773216
2.7419354838709675
2.790811339198436
2.823069403714565
2.8533724340175954
2.8807429130009776
2.903225806451613
2.920821114369501
2.9315738025415445
2.9374389051808407
2.935483870967742
2.9257086999022484
2.90811339198436
2.8807429130009776
2.8426197458455524
2.7976539589442817
2.7468230694037143
2.686217008797654
2.616813294232649
2.541544477028348
2.462365591397849
2.3812316715542523
2.303030303030303
2.228739002932551
2.1622678396871944
2.102639296187683
2.050830889540567
2.0087976539589443
1.9736070381231672
1.9403714565004888
1.90811339198436
1.87683284457478
1.8455522971652003
1.8142717497556209
1.7820136852394917
1.7487781036168133
1.7145650048875856
1.6793743890518085
1.6441837732160314
1.608993157380254
1.5777126099706744
1.5493646138807429
1.5190615835777126
1.4887585532746823
1.457478005865103
1.4281524926686218
1.4007820136852396
1.3743890518084063
1.348973607038123
1.3264907135874875
1.3049853372434017
1.2854349951124144
1.2717497556207231
1.260019550342131
1.2473118279569892
1.2336265884652982
1.2209188660801564
1.2082111436950147
1.1964809384164223
1.1857282502443791
1.1749755620723363
1.164222873900293
1.1534701857282503
1.142717497556207
1.1329423264907137
1.126099706744868
1.1221896383186705
1.1143695014662756
1.1055718475073313
1.0957966764418376
1.086021505376344
1.0772238514173995
1.0684261974584557
1.0606060606060606
1.0527859237536656
1.04594330400782
1.040078201368524
1.0371456500488758
1.0371456500488758
1.035190615835777
1.0312805474095796
1.0273704789833822
1.024437927663734
1.0224828934506354
1.0205278592375366
1.0195503421309873
1.018572825024438
1.0175953079178883
1.0166177908113392
1.0156402737047898
1.0175953079178883
1.0205278592375366
1.021505376344086
1.0224828934506354
1.0224828934506354
1.0224828934506354
1.0224828934506354
1.0234604105571847
1.024437927663734
1.0263929618768328
1.029325513196481
1.032258064516129
1.0371456500488758
1.0439882697947214
1.0498533724340176
1.0547409579667644
1.0596285434995112
1.0664711632453567
1.0762463343108504
1.093841642228739
1.1251221896383188
1.1759530791788857
1.2512218963831867
1.35386119257087
1.482893450635386
1.611925708699902
1.7448680351906158
1.903225806451613
2.071358748778104
2.2375366568914954
2.391006842619746
2.525904203323558
2.6402737047898337
2.7331378299120237
2.807429130009776
2.865102639296188
2.9100684261974585
2.93841642228739
2.9550342130987293
2.970674486803519
2.98435972629521
2.994134897360704
2.9980449657869013
2.995112414467253
2.98435972629521
2.9657869012707723
2.9374389051808407
2.8993157380254155
2.852394916911046
2.7996089931573804
2.740957966764418
2.6725317693059627
2.5972629521016617
2.5180840664711632
2.4379276637341154
2.3597262952101663
2.286412512218964
2.220918866080156
2.1622678396871944
2.1114369501466275
2.0664711632453567
2.027370478983382
1.994134897360704
1.964809384164223
1.935483870967742
1.906158357771261
1.8758553274682308
1.844574780058651
1.8113391984359728
1.7781036168132942
1.7438905180840665
1.7086999022482894
1.672531769305963
1.6363636363636365
1.606060606060606
1.5786901270772238
1.5483870967741935
1.5180840664711632
1.4887585532746823
1.4613880742913
1.4349951124144673
1.4105571847507332
1.388074291300098
1.367546432062561
1.348973607038123
1.332355816226784
1.316715542521994
1.3049853372434017
1.295210166177908
1.2825024437927663
1.2697947214076246
1.2580645161290325
1.2473118279569892
1.2355816226783969
1.224828934506354
1.2140762463343109
1.203323558162268
1.1925708699902249
1.181818181818182
1.173998044965787
1.1671554252199414
1.1593352883675463
1.1505376344086022
1.1407624633431086
1.1319648093841643
1.1241446725317692
1.1163245356793745
1.10752688172043
1.0987292277614855
1.0909090909090908
1.0840664711632453
1.0772238514173995
1.0742913000977516
1.0733137829912025
1.0703812316715542
1.0664711632453567
1.0625610948191593
1.0586510263929618
1.0557184750733135
1.0527859237536656
1.0498533724340176
1.0469208211143697
1.0439882697947214
1.040078201368524
1.040078201368524
1.040078201368524
1.0391006842619743
1.0381231671554252
1.0381231671554252
1.0381231671554252
1.0381231671554252
1.0391006842619743
1.040078201368524
1.0410557184750733
1.0420332355816226
1.043010752688172
1.0449657869012707
1.0488758553274682
1.053763440860215
1.056695992179863
1.0596285434995112
1.0664711632453567
1.0821114369501466
1.110459433040078
1.1583577712609971
1.23069403714565
1.3294232649071358
1.455522971652004
1.603128054740958
1.7429130009775171
1.878787878787879
2.0332355816226784
2.187683284457478
2.332355816226784
2.4613880742913
2.570869990224829
2.6608015640273703
2.732160312805474
2.788856304985337
2.832844574780059
2.8670576735092865
2.89247311827957
2.905180840664712
2.9100684261974585
2.913978494623656
2.9149560117302054
2.9100684261974585
2.897360703812317
2.875855327468231
2.8455522971652005
2.8044965786901277
2.7536656891495603
2.6930596285435
2.6236559139784945
2.555229716520039
2.486803519061584
2.4115347018572826
2.334310850439883
2.260019550342131
2.190615835777126
2.1280547409579667
2.072336265884653
2.024437927663734
1.9824046920821117
1.945259042033236
1.9120234604105573
1.881720430107527
1.8543499511241448
1.828934506353861
1.8005865102639296
1.7702834799608993
1.7390029325513197
1.7067448680351909
1.672531769305963
1.6363636363636365
1.6001955034213098
1.5650048875855327
1.530791788856305
1.4975562072336266
1.4701857282502444
1.4457478005865103
1.4193548387096775
1.392961876832845
1.3665689149560116
1.3421309872922775
1.3196480938416422
1.2991202346041055
1.2805474095796676
1.262952101661779
1.24633431085044
1.23069403714565
1.2160312805474096
1.206256109481916
1.198435972629521
1.1896383186705768
1.1798631476050832
1.1700879765395895
1.160312805474096
1.1505376344086022
1.1407624633431086
1.130987292277615
1.1221896383186705
1.1124144672531768
1.1016617790811338
1.093841642228739
1.088954056695992
1.0811339198435972
1.0733137829912025
1.0654936461388074
1.0576735092864125
1.0498533724340176
1.043010752688172
1.0361681329423265
1.0303030303030305
1.0254154447702837
1.0205278592375366
1.0166177908113392
1.0166177908113392
1.0175953079178883
1.0156402737047898
1.0127077223851415
1.0097751710654936
1.0068426197458455
1.002932551319648
0.9990224828934506
0.9960899315738024
0.9951124144672532
0.9951124144672532
0.9951124144672532
0.997067448680352
1.0009775171065494
1.002932551319648
1.0039100684261977
1.0048875855327468
1.0058651026392962
1.0068426197458455
1.0087976539589445
1.0117302052785924
1.0156402737047898
1.018572825024438
1.021505376344086
1.0263929618768328
1.032258064516129
1.0371456500488758
1.04594330400782
1.0625610948191593
1.093841642228739
1.144672531769306
1.2218963831867058
1.3264907135874875
1.457478005865103
1.6109481915933528
1.7790811339198436
1.95405669599218
2.104594330400782
2.2355816226783967
2.36950146627566
2.493646138807429
2.601173020527859
2.6911045943304006
2.763440860215054
2.822091886608016
2.868035190615836
2.9042033235581624
2.932551319648094
2.95405669599218
2.963831867057673
2.964809384164223
2.964809384164223
2.961876832844575
2.952101661779081
2.9335288367546437
2.906158357771261
2.868035190615836
2.8211143695014664
2.764418377321604
2.697947214076246
2.624633431085044
2.5454545454545454
2.472140762463343
2.4027370478983383
2.3304007820136854
2.260019550342131
2.1955034213098727
2.1378299120234603
2.0879765395894427
2.0439882697947214
2.005865102639296
1.970674486803519
1.9374389051808407
1.906158357771261
1.8778103616813293
1.8514173998044965
1.822091886608016
1.790811339198436
1.758553274682307
1.7253176930596286
1.6920821114369502
1.6588465298142718
1.6256109481915937
1.5913978494623655
1.5591397849462365
1.5278592375366569
1.4975562072336266
1.4731182795698925
1.452590420332356
1.4301075268817205
1.4086021505376345
1.388074291300098
1.3685239491691104
1.3509286412512218
1.3343108504398826
1.3186705767350928
1.3049853372434017
1.29227761485826
1.2795698924731185
1.270772238514174
1.2639296187683284
1.2561094819159335
1.2473118279569892
1.2394916911045943
1.23069403714565
1.2218963831867058
1.2130987292277615
1.2043010752688172
1.1945259042033236
1.18475073313783
1.1749755620723363
1.1652003910068427
1.1583577712609971
1.1534701857282503
1.1456500488758554
1.1378299120234605
1.1290322580645162
1.1202346041055715
1.1133919843597262
1.1085043988269794
1.1026392961876832
1.0977517106549364
1.0928641251221896
1.0879765395894427
1.0869990224828934
1.0869990224828934
1.0850439882697946
1.0821114369501466
1.078201368523949
1.0742913000977516
1.0703812316715542
1.0664711632453567
1.0635386119257086
1.06158357771261
1.0596285434995112
1.0586510263929618
1.0586510263929618
1.06158357771261
1.0654936461388074
1.0684261974584557
1.0713587487781036
1.0762463343108504
1.0821114369501466
1.0899315738025417
1.0987292277614855
1.1094819159335287
1.121212121212121
1.133919843597263
1.147605083088954
1.1612903225806452
1.1759530791788857
1.1925708699902249
1.2130987292277615
1.2394916911045943
1.2776148582600195
1.3333333333333333
1.4105571847507332
1.5141739980449658
1.643206256109482
1.796676441837732
1.9687194525904204
2.150537634408602
2.3098729227761488
2.452590420332356
2.6041055718475072
2.748778103616813
2.877810361681329
2.9872922776148583
3.0762463343108504
3.146627565982405
3.19941348973607
3.2385141739980448
3.2658846529814274
3.2825024437927666
3.2854349951124147
3.278592375366569
3.269794721407625
3.257086999022483
3.239491691104594
3.21505376344086
3.182795698924731
3.142717497556207
3.0928641251221896
3.0009775171065494
2.929618768328446
2.8514173998044967
2.735092864125122
2.66177908113392
2.5835777126099706
2.50733137829912
2.436950146627566
2.3743890518084068
2.320625610948192
2.2766373411534704
2.239491691104594
2.2082111436950145
2.179863147605083
2.1524926686217007
2.126099706744868
2.099706744868035
2.0684261974584555
2.03128054740958
1.9902248289345064
1.945259042033236
1.8963831867057677
1.844574780058651
1.790811339198436
1.7360703812316716
1.6823069403714566
1.629521016617791
1.576735092864125
1.5317693059628543
1.4916911045943304
1.4486803519061584
1.3812316715542523
1.33822091886608
1.295210166177908
1.2336265884652982
1.1945259042033236
1.1583577712609971
1.1241446725317692
1.0928641251221896
1.0703812316715542
1.0527859237536656
1.0332355816226784
1.0146627565982405
0.9980449657869012
0.9833822091886608
0.9716520039100685
0.9589442815249268
0.9530791788856304
0.9481915933528836
0.9433040078201368
0.9413489736070382
0.9433040078201368
0.9472140762463344
0.9491691104594332
0.9501466275659824
0.9501466275659824
0.9511241446725318
0.95405669599218
0.956989247311828
0.9589442815249268
0.9608993157380256
0.9618768328445748
0.9648093841642228
0.967741935483871
0.9687194525904204
0.967741935483871
0.9657869012707724
0.9628543499511242
0.9589442815249268
0.9560117302052786
0.9530791788856304
0.9501466275659824
0.9472140762463344
0.9442815249266864
0.9433040078201368
0.9433040078201368
0.9403714565004888
0.9374389051808406
0.9335288367546432
0.9305962854349952
0.9286412512218964
0.927663734115347
0.927663734115347
0.9286412512218964
0.9305962854349952
0.9345063538611924
0.9403714565004888
0.9521016617790812
0.9696969696969696
0.9990224828934506
1.04594330400782
1.1163245356793745
1.2130987292277615
1.3372434017595307
1.4848484848484849
1.6500488758553276
1.825024437927664
1.9990224828934504
2.164222873900293
2.2961876832844577
2.4027370478983383
2.506353861192571
2.5972629521016617
2.673509286412512
2.735092864125122
2.7839687194525906
2.823069403714565
2.8533724340175954
2.875855327468231
2.89247311827957
2.902248289345064
2.906158357771261
2.900293255131965
2.886608015640274
2.8690127077223853
2.844574780058651
2.811339198435973
2.76930596285435
2.716520039100684
2.653958944281525
2.582600195503421
2.505376344086021
2.4252199413489737
2.3440860215053765
2.272727272727273
2.2082111436950145
2.144672531769306
2.085043988269794
2.032258064516129
1.986314760508309
1.946236559139785
1.911045943304008
1.878787878787879
1.847507331378299
1.8172043010752688
1.7869012707722385
1.7556207233626588
1.7272727272727273
1.7008797653958945
1.6695992179863148
1.635386119257087
1.6001955034213098
1.564027370478983
1.5268817204301075
1.490713587487781
1.455522971652004
1.4213098729227762
1.3890518084066472
1.359726295210166
1.3362658846529814
1.316715542521994
1.295210166177908
1.273704789833822
1.252199413489736
1.2326490713587488
1.2150537634408602
1.1994134897360704
1.1857282502443791
1.173998044965787
1.1622678396871946
1.1505376344086022
1.1397849462365592
1.1319648093841643
1.126099706744868
1.118279569892473
1.1094819159335287
1.1016617790811338
1.093841642228739
1.086021505376344
1.0791788856304985
1.0713587487781036
1.0625610948191593
1.0527859237536656
1.043010752688172
1.0381231671554252
1.035190615835777
1.029325513196481
1.021505376344086
1.013685239491691
1.0058651026392962
0.9990224828934506
0.9921798631476052
0.9863147605083088
0.981427174975562
0.9765395894428152
0.9726295210166178
0.9696969696969696
0.9863147605083088
1.0127077223851415
1.0254154447702837
1.0312805474095796
1.0342130987292275
1.0361681329423265
1.0371456500488758
1.0391006842619743
1.040078201368524
1.0410557184750733
1.043010752688172
1.0449657869012707
1.0498533724340176
1.0557184750733135
1.0606060606060606
1.0654936461388074
1.0703812316715542
1.0742913000977516
1.0791788856304985
1.0840664711632453
1.088954056695992
1.093841642228739
1.099706744868035
1.110459433040078
1.1300097751710656
1.1564027370478984
1.195503421309873
1.2551319648093842
1.33822091886608
1.444770283479961
1.5708699902248289
1.710654936461388
1.857282502443793
2.0019550342130987
