ppg
1.1749755620723363
1.1671554252199414
1.1583577712609971
1.1495601173020529
1.1407624633431086
1.1319648093841643
1.121212121212121
1.1094819159335287
1.1026392961876832
1.099706744868035
1.0928641251221896
1.0840664711632453
1.0742913000977516
1.0654936461388074
1.056695992179863
1.050830889540567
1.04594330400782
1.0391006842619743
1.032258064516129
1.024437927663734
1.0156402737047898
1.0097751710654936
1.0087976539589445
1.010752688172043
1.0254154447702837
1.06158357771261
1.1280547409579669
1.2267839687194526
1.3558162267839686
1.509286412512219
1.6656891495601174
1.8172043010752688
1.9687194525904204
2.0928641251221896
2.193548387096774
2.2883675464320627
2.367546432062561
2.4301075268817205
2.47702834799609
2.509286412512219
2.530791788856305
2.544477028347996
2.5562072336265884
2.5669599217986314
2.579667644183773
2.5884652981427174
2.598240469208211
2.619745845552297
2.6480938416422286
2.681329423264907
2.718475073313783
2.757575757575758
2.793743890518084
2.825024437927664
2.849462365591398
2.8641251221896384
2.865102639296188
2.852394916911046
2.827956989247312
2.7947214076246336
2.7546432062561097
2.7096774193548385
2.6637341153470184
2.619745845552297
2.5806451612903225
2.549364613880743
2.525904203323558
2.5112414467253177
2.505376344086021
2.504398826979472
2.501466275659824
2.498533724340176
2.496578690127077
2.490713587487781
2.479960899315738
2.4604105571847508
2.432062561094819
2.3958944281524928
2.3548387096774195
2.3088954056695994
2.2629521016617797
2.2160312805474094
2.16911045943304
2.126099706744868
2.0840664711632453
2.035190615835777
1.9794721407624636
1.916911045943304
1.8494623655913975
1.7790811339198436
1.704789833822092
1.629521016617791
1.5532746823069403
1.478983382209189
1.4037145650048877
1.33822091886608
1.278592375366569
1.2082111436950147
1.1348973607038124
1.0586510263929618
0.9824046920821116
0.9081133919843596
0.8367546432062561
0.7693059628543499
0.70772238514174
0.6510263929618768
0.6021505376344086
0.5601173020527859
0.5327468230694037
0.512218963831867
0.4877810361681329
0.4623655913978494
0.4340175953079179
0.4027370478983382
0.3665689149560117
0.3264907135874877
0.2844574780058651
0.2394916911045943
0.1915933528836754
0.1417399804496578
0.1055718475073313
0.0772238514173998
0.0449657869012707
0.0224828934506353
0.010752688172043
0.010752688172043
0.0351906158357771
0.0948191593352883
0.1886608015640273
0.3108504398826979
0.4565004887585532
0.6158357771260997
0.7761485826001955
0.9159335288367546
1.035190615835777
1.1456500488758554
1.2394916911045943
1.313782991202346
1.3695014662756595
1.409579667644184
1.4379276637341154
1.4594330400782014
1.47702834799609
1.4926686217008798
1.5053763440860215
1.5131964809384164
1.5180840664711632
1.520039100684262
1.5180840664711632
1.5112414467253177
1.498533724340176
1.478983382209189
1.4516129032258065
1.4173998044965788
1.3743890518084063
1.3225806451612905
1.262952101661779
1.1964809384164223
1.1358748778103618
1.078201368523949
1.0097751710654936
0.9374389051808406
0.8660801564027371
0.7986314760508308
0.7370478983382209
0.6842619745845552
0.6422287390029325
0.6109481915933529
0.5894428152492669
0.5777126099706745
0.5777126099706745
0.5835777126099707
0.5884652981427175
0.592375366568915
0.5962854349951124
0.6001955034213099
0.6021505376344086
0.6011730205278593
0.5992179863147605
0.5962854349951124
0.592375366568915
0.5874877810361682
0.581622678396872
0.5796676441837733
0.5796676441837733
0.5738025415444771
0.5620723362658846
0.5464320625610948
0.5268817204301075
0.5043988269794721
0.479960899315738
0.4545454545454545
0.4291300097751711
0.4027370478983382
0.3773216031280547
0.3607038123167155
0.3489736070381232
0.3313782991202346
0.3108504398826979
0.2893450635386119
0.2678396871945259
0.2473118279569892
0.2287390029325513
0.2111436950146627
0.1974584555229716
0.1857282502443792
0.176930596285435
0.1710654936461388
0.1720430107526881
0.1779081133919843
0.1788856304985337
0.176930596285435
0.1749755620723362
0.1749755620723362
0.1779081133919843
0.1847507331378299
0.1994134897360703
0.219941348973607
0.2443792766373411
0.2717497556207233
0.3010752688172043
0.3313782991202346
0.3616813294232649
0.3939393939393939
0.4310850439882698
0.4809384164222874
0.552297165200391
0.6529814271749755
0.7898338220918866
0.9628543499511242
1.1691104594330402
1.3978494623655917
1.6373411534701858
1.8465298142717497
2.0332355816226784
2.23069403714565
2.4222873900293256
2.6021505376344085
2.7702834799608995
2.9257086999022484
3.0684261974584555
3.19941348973607
3.318670576735093
3.426197458455523
3.520039100684262
3.58455522971652
3.63049853372434
3.6774193548387095
3.719452590420332
3.7517106549364616
3.774193548387097
3.78494623655914
3.7810361681329434
3.7624633431085046
3.729227761485826
3.678396871945259
3.610948191593353
3.5288367546432062
3.4408602150537635
3.347018572825025
3.2404692082111435
3.1270772238514173
3.0146627565982405
2.909090909090909
2.817204301075269
2.740957966764418
2.684261974584555
2.6471163245356792
2.6285434995112413
2.6265884652981426
2.63049853372434
2.6402737047898337
2.66177908113392
2.686217008797654
2.710654936461388
2.732160312805474
2.745845552297165
2.7517106549364616
2.750733137829912
2.7419354838709675
2.7262952101661777
2.7067448680351904
2.6832844574780057
2.6559139784946235
2.627565982404692
2.5992179863147604
2.52297165200391
2.4252199413489737
2.367546432062561
2.3304007820136854
2.304007820136853
2.2825024437927666
2.2629521016617797
2.244379276637341
2.225806451612903
2.2082111436950145
2.1925708699902247
2.176930596285435
2.160312805474096
2.142717497556207
2.1251221896383186
2.10850439882698
2.09188660801564
2.0762463343108504
2.060606060606061
2.04594330400782
2.0332355816226784
2.021505376344086
2.010752688172043
2.0
1.989247311827957
1.9794721407624636
1.9696969696969695
1.959921798631476
1.949169110459433
1.93841642228739
1.927663734115347
1.9178885630498532
1.90811339198436
1.8983382209188664
1.889540566959922
1.8807429130009776
1.871945259042033
1.8621700879765395
1.8523949169110456
1.842619745845552
1.8347996089931573
1.83088954056696
1.8347996089931573
1.8504398826979471
1.881720430107527
1.9286412512218964
1.9804496578690127
2.038123167155425
2.112414467253177
2.1945259042033234
2.2766373411534704
2.3528836754643208
2.419354838709677
2.474095796676442
2.5180840664711632
2.550342130987292
2.572825024437928
2.5865102639296187
2.592375366568915
2.590420332355816
2.582600195503421
2.5718475073313782
2.558162267839687
2.5434995112414467
2.5268817204301075
2.5083088954056696
2.486803519061584
2.464320625610948
2.4389051808406648
2.410557184750733
2.378299120234604
2.347018572825025
2.313782991202346
2.275659824046921
2.232649071358749
2.185728250244379
2.1378299120234603
2.090909090909091
2.04594330400782
2.004887585532747
1.967741935483871
1.9364613880742916
1.9100684261974583
1.8885630498533723
1.873900293255132
1.8641251221896384
1.8563049853372435
1.8504398826979471
1.8465298142717497
1.8435972629521016
1.839687194525904
1.8347996089931573
1.828934506353861
1.823069403714565
1.8172043010752688
1.8103616813294232
1.804496578690127
1.7996089931573802
1.7927663734115349
1.7839687194525904
1.7732160312805474
1.7624633431085044
1.7526881720430108
1.7419354838709675
1.7311827956989247
1.7194525904203324
1.7067448680351909
1.694037145650049
1.6813294232649072
1.6715542521994136
1.6637341153470186
1.653958944281525
1.643206256109482
1.632453567937439
1.6236559139784943
1.616813294232649
1.6099706744868034
1.603128054740958
1.598240469208211
1.5943304007820136
1.5913978494623655
1.590420332355816
1.590420332355816
1.5894428152492668
1.5884652981427174
1.5865102639296187
1.58455522971652
1.5835777126099706
1.58455522971652
1.5865102639296187
1.5894428152492668
1.5923753665689149
1.5962854349951123
1.6011730205278591
1.607038123167155
1.6129032258064515
1.6177908113391983
1.6217008797653958
1.624633431085044
1.6265884652981428
1.6285434995112416
1.6314760508308896
1.6392961876832846
1.6549364613880744
1.6813294232649072
1.7223851417399805
1.76930596285435
1.825024437927664
1.8993157380254155
1.986314760508309
2.080156402737048
2.1730205278592374
2.260019550342131
2.3382209188660803
2.404692082111437
2.458455522971652
2.498533724340176
2.5268817204301075
2.5454545454545454
2.552297165200391
2.552297165200391
2.548387096774193
2.5405669599217986
2.529814271749756
2.517106549364614
2.5024437927663734
2.4858260019550342
2.4682306940371457
2.450635386119257
2.434017595307918
2.4164222873900294
2.3978494623655915
2.376344086021505
2.350928641251222
2.320625610948192
2.2854349951124147
2.244379276637341
2.20039100684262
2.1544477028347995
2.10850439882698
2.0635386119257086
2.021505376344086
1.9833822091886608
1.9501466275659824
1.924731182795699
1.9042033235581624
1.8866080156402736
1.8729227761485825
1.8631476050830889
1.8563049853372435
1.8514173998044965
1.8484848484848484
1.8465298142717497
1.844574780058651
1.8416422287390029
1.836754643206256
1.83088954056696
1.8240469208211143
1.81524926686217
1.8054740957966764
1.7947214076246334
1.7839687194525904
1.772238514173998
1.761485826001955
1.7497556207233629
1.7390029325513197
1.7282502443792769
1.7165200391006843
1.70772238514174
1.699902248289345
1.6901270772238517
1.6803519061583578
1.6715542521994136
1.6637341153470186
1.6559139784946235
1.6480938416422288
1.640273704789834
1.632453567937439
1.6256109481915937
1.619745845552297
1.6148582600195502
1.6129032258064515
1.611925708699902
1.6109481915933528
1.608993157380254
1.607038123167155
1.606060606060606
1.6050830889540566
1.603128054740958
1.6011730205278591
1.5992179863147604
1.5972629521016617
1.595307917888563
1.595307917888563
1.5962854349951123
1.5962854349951123
1.595307917888563
1.5943304007820136
1.5923753665689149
1.590420332355816
1.5884652981427174
1.5865102639296187
1.585532746823069
1.5865102639296187
1.5933528836754642
1.6099706744868034
1.632453567937439
1.6656891495601174
1.7165200391006843
1.7839687194525904
1.8641251221896384
1.9530791788856303
2.0439882697947214
2.1309872922776147
2.210166177908113
2.2795698924731185
2.3929618768328447
2.529814271749756
2.6129032258064515
2.662756598240469
2.699902248289345
2.724340175953079
2.73802541544477
2.742913000977517
2.740957966764418
2.732160312805474
2.716520039100684
2.6959921798631474
2.6715542521994133
2.6422287390029324
2.6080156402737047
2.5718475073313782
2.532746823069404
2.486803519061584
2.4330400782013686
2.372434017595308
2.304985337243402
2.231671554252199
2.1515151515151514
2.0664711632453567
1.9765395894428155
1.8856304985337244
1.7986314760508308
1.726295210166178
1.6627565982404693
1.6001955034213098
1.543499511241447
1.4946236559139785
1.4545454545454546
1.4242424242424243
1.4007820136852396
1.383186705767351
1.3714565004887584
1.364613880742913
1.3616813294232648
1.359726295210166
1.3587487781036167
1.356793743890518
1.3519061583577712
1.343108504398827
1.332355816226784
1.3206256109481915
1.3098729227761483
1.2981427174975562
1.2864125122189638
1.273704789833822
1.2590420332355816
1.2434017595307918
1.2316715542521994
1.2218963831867058
1.2121212121212122
1.203323558162268
1.1974584555229717
1.1945259042033236
1.1925708699902249
1.1915933528836755
1.1925708699902249
1.195503421309873
1.2003910068426198
1.2043010752688172
1.2082111436950147
1.2130987292277615
1.219941348973607
1.227761485826002
1.2355816226783969
1.2434017595307918
1.2531769305962854
1.2649071358748778
1.278592375366569
1.2932551319648091
1.305962854349951
1.316715542521994
1.3255131964809383
1.3343108504398826
1.3411534701857282
1.346041055718475
1.3479960899315735
1.348973607038123
1.3499511241446724
1.3479960899315735
1.343108504398827
1.3372434017595307
1.3313782991202343
1.327468230694037
1.3294232649071358
1.3450635386119256
1.3734115347018572
1.4203323558162269
1.500488758553275
1.6138807429130009
1.758553274682307
1.9257086999022484
2.1065493646138806
2.290322580645161
2.464320625610948
2.621700879765396
2.755620723362659
2.866080156402737
2.940371456500489
2.988269794721408
3.027370478983382
3.0557184750733137
3.072336265884653
3.0772238514174
3.075268817204301
3.0664711632453567
3.0518084066471163
3.0332355816226784
3.0127077223851417
2.988269794721408
2.960899315738025
2.929618768328446
2.895405669599218
2.8563049853372435
2.8132942326490715
2.764418377321604
2.708699902248289
2.6451612903225805
2.575757575757576
2.4995112414467253
2.4164222873900294
2.3284457478005867
2.236559139784946
2.1544477028347995
2.0791788856304985
2.0019550342130987
1.927663734115347
1.8602150537634408
1.801564027370479
1.7517106549364614
1.7126099706744868
1.683284457478006
1.6608015640273706
1.643206256109482
1.6304985337243405
1.6207233626588464
1.611925708699902
1.6011730205278591
1.5884652981427174
1.5757575757575757
1.564027370478983
1.5513196480938416
1.5366568914956011
1.521994134897361
1.5063538611925709
1.4897360703812317
1.4721407624633431
1.4545454545454546
1.4408602150537635
1.4291300097751711
1.41544477028348
1.3998044965786902
1.3822091886608017
1.364613880742913
1.3479960899315735
1.3313782991202343
1.316715542521994
1.3020527859237536
1.2864125122189638
1.2727272727272727
1.260019550342131
1.2512218963831867
1.2434017595307918
1.2336265884652982
1.2228739002932552
1.2130987292277615
1.2043010752688172
1.1964809384164223
1.1896383186705768
1.1837732160312806
1.1788856304985338
1.1730205278592376
1.1671554252199414
1.164222873900293
1.1622678396871946
1.1583577712609971
1.1544477028347997
1.1515151515151516
1.1495601173020529
1.1485826001955035
1.1485826001955035
1.1466275659824048
1.141739980449658
1.1348973607038124
1.130987292277615
1.133919843597263
1.1456500488758554
1.1720430107526882
1.2218963831867058
1.3020527859237536
1.4134897360703813
1.5562072336265884
1.7204301075268815
1.8973607038123168
2.0762463343108504
2.247311827956989
2.401759530791789
2.533724340175953
2.6295210166177907
2.697947214076246
2.7565982404692084
2.803519061583578
2.8367546432062563
2.857282502443793
2.8670576735092865
2.8670576735092865
2.859237536656892
2.844574780058651
2.825024437927664
2.8044965786901277
2.780058651026393
2.7536656891495603
2.7262952101661777
2.696969696969697
2.6637341153470184
2.624633431085044
2.578690127077224
2.5239491691104594
2.4613880742913
2.3919843597262958
2.3167155425219943
2.2355816226783967
2.1495601173020527
2.072336265884653
1.9980449657869013
1.9178885630498532
1.8387096774193548
1.7624633431085044
1.6950146627565983
1.6392961876832846
1.5943304007820136
1.5581622678396871
1.5298142717497556
1.5073313782991202
1.490713587487781
1.478005865102639
1.4682306940371457
1.457478005865103
1.444770283479961
1.43108504398827
1.41544477028348
1.396871945259042
1.375366568914956
1.35386119257087
1.335288367546432
1.3186705767350928
1.3010752688172045
1.2825024437927663
1.2668621700879763
1.2531769305962854
1.2365591397849462
1.219941348973607
1.1730205278592376
1.110459433040078
1.0713587487781036
1.0439882697947214
1.021505376344086
0.9990224828934506
0.978494623655914
0.959921798631476
0.946236559139785
0.935483870967742
0.9217986314760508
0.9071358748778104
0.8914956011730205
0.8758553274682307
0.8621700879765396
0.8504398826979472
0.8406647116324536
0.8318670576735093
0.8240469208211144
0.8172043010752689
0.8093841642228738
0.8054740957966764
0.8035190615835777
0.7986314760508308
0.7947214076246334
0.7917888563049853
0.7888563049853372
0.7878787878787878
0.7869012707722385
0.7869012707722385
0.7869012707722385
0.7869012707722385
0.7869012707722385
0.7898338220918866
0.793743890518084
0.7956989247311828
0.7986314760508308
0.8084066471163245
0.8299120234604106
0.8729227761485826
0.9442815249266864
1.0478983382209188
1.181818181818182
1.3411534701857282
1.5151515151515151
1.6930596285434996
1.844574780058651
1.975562072336266
2.104594330400782
2.219941348973607
2.314760508308896
2.386119257086999
2.4379276637341154
2.4731182795698925
2.49266862170088
2.4995112414467253
2.496578690127077
2.4858260019550342
2.4672531769305963
2.443792766373412
2.4173998044965788
2.3870967741935485
2.35386119257087
2.317693059628544
2.2766373411534704
2.231671554252199
2.1818181818181817
2.1251221896383186
2.06158357771261
1.992179863147605
1.9178885630498532
1.8494623655913975
1.7820136852394917
1.7067448680351909
1.6285434995112416
1.5513196480938416
1.478005865102639
1.412512218963832
1.356793743890518
1.3128054740957966
1.278592375366569
1.2531769305962854
1.2355816226783969
1.224828934506354
1.219941348973607
1.217008797653959
1.2160312805474096
1.2150537634408602
1.2130987292277615
1.209188660801564
1.2052785923753666
1.2013685239491692
1.1974584555229717
1.1935483870967742
1.1896383186705768
1.1857282502443791
1.1837732160312806
1.1827956989247312
1.1798631476050832
1.176930596285435
1.1730205278592376
1.1691104594330402
1.166177908113392
1.166177908113392
1.1681329423264908
1.1710654936461389
1.173998044965787
1.1779081133919844
1.1827956989247312
1.187683284457478
1.1925708699902249
1.1964809384164223
1.1994134897360704
1.2013685239491692
1.2023460410557183
1.2023460410557183
1.2023460410557183
1.2023460410557183
1.2023460410557183
1.2023460410557183
1.2023460410557183
1.203323558162268
1.2043010752688172
1.203323558162268
1.2023460410557183
1.1994134897360704
1.1964809384164223
1.1925708699902249
1.1886608015640274
1.18475073313783
1.1808406647116323
1.176930596285435
1.1720430107526882
1.1681329423264908
1.1622678396871946
1.1534701857282503
1.144672531769306
1.1378299120234605
1.1397849462365592
1.1573802541544478
1.1974584555229717
1.267839687194526
1.3714565004887584
1.5073313782991202
1.6686217008797657
1.8465298142717497
2.003910068426197
2.144672531769306
2.294232649071359
2.4359726295210167
2.558162267839687
2.6578690127077222
2.735092864125122
2.791788856304985
2.83088954056696
2.8563049853372435
2.8690127077223853
2.8719452590420333
2.8641251221896384
2.850439882697948
2.8367546432062563
2.822091886608016
2.8054740957966766
2.7869012707722387
2.763440860215054
2.7341153470185726
2.697947214076246
2.6578690127077222
2.610948191593353
2.555229716520039
2.4975562072336266
2.4349951124144678
2.360703812316716
2.2766373411534704
2.1867057673509285
2.0948191593352883
2.0019550342130987
1.9120234604105573
1.8269794721407624
1.7497556207233629
1.6823069403714566
1.6265884652981428
1.5806451612903225
1.5464320625610948
1.521016617790811
1.498533724340176
1.478983382209189
1.4623655913978495
1.4496578690127078
1.4379276637341154
1.426197458455523
1.414467253176931
1.4027370478983383
1.391006842619746
1.3782991202346042
1.3655913978494625
1.3528836754643203
1.3362658846529814
1.316715542521994
1.295210166177908
1.273704789833822
1.2531769305962854
1.2336265884652982
1.217008797653959
1.2023460410557183
1.187683284457478
1.1730205278592376
1.1573802541544478
1.144672531769306
1.133919843597263
1.1202346041055715
1.1036168132942326
1.088954056695992
1.0762463343108504
1.0664711632453567
1.0576735092864125
1.0498533724340176
1.0449657869012707
1.0420332355816226
1.0381231671554252
1.0371456500488758
1.0381231671554252
1.0361681329423265
1.032258064516129
1.0283479960899315
1.024437927663734
1.0205278592375366
1.018572825024438
1.0175953079178883
1.0166177908113392
1.0166177908113392
1.0166177908113392
1.0166177908113392
1.018572825024438
1.021505376344086
1.0234604105571847
1.0234604105571847
1.0205278592375366
1.018572825024438
1.018572825024438
1.0263929618768328
1.0498533724340176
1.0987292277614855
1.1798631476050832
1.2932551319648091
1.4115347018572826
1.541544477028348
1.704789833822092
1.8826979472140764
2.058651026392962
2.220918866080156
2.3626588465298144
2.4809384164222874
2.575757575757576
2.649071358748778
2.7038123167155423
2.7722385141739982
2.8426197458455524
2.873900293255132
2.8826979472140764
2.8826979472140764
2.874877810361681
2.860215053763441
2.841642228739003
2.8211143695014664
2.798631476050831
2.7722385141739982
2.740957966764418
2.705767350928641
2.664711632453568
2.619745845552297
2.570869990224829
2.5131964809384164
2.4486803519061584
2.376344086021505
2.2991202346041058
2.217986314760508
2.133919843597263
2.048875855327468
1.9657869012707725
1.8866080156402736
1.81524926686217
1.7517106549364614
1.7008797653958945
1.66177908113392
1.6265884652981428
1.5972629521016617
1.5718475073313782
1.552297165200391
1.5366568914956011
1.52297165200391
1.509286412512219
1.4946236559139785
1.479960899315738
1.4652981427174976
1.4535679374389052
1.4418377321603129
1.4252199413489737
1.4066471163245358
1.388074291300098
1.3695014662756595
1.348973607038123
1.327468230694037
1.305962854349951
1.284457478005865
1.262952101661779
1.2434017595307918
1.2238514173998043
1.2082111436950147
1.195503421309873
1.1808406647116323
1.1652003910068427
1.1495601173020529
1.1348973607038124
1.1192570869990224
1.104594330400782
1.088954056695992
1.0742913000977516
1.0596285434995112
1.0488758553274682
1.0439882697947214
1.0410557184750733
1.0361681329423265
1.029325513196481
1.0224828934506354
1.0156402737047898
1.007820136852395
1.0019550342130987
0.9990224828934506
0.9980449657869012
0.997067448680352
0.997067448680352
0.997067448680352
1.0
1.0039100684261977
1.0058651026392962
1.0087976539589445
1.0127077223851415
1.0166177908113392
1.0205278592375366
1.0234604105571847
1.0254154447702837
1.0263929618768328
1.0273704789833822
1.0332355816226784
1.0488758553274682
1.0801564027370478
1.1368523949169111
1.2238514173998043
1.3421309872922775
1.4858260019550342
1.6471163245356797
1.8162267839687196
1.9804496578690127
2.129032258064516
2.2580645161290325
2.3655913978494625
2.4486803519061584
2.5024437927663734
2.5347018572825024
2.557184750733138
2.567937438905181
2.5698924731182795
2.563049853372434
2.548387096774193
2.525904203323558
2.4975562072336266
2.4652981427174976
2.429130009775171
2.391006842619746
2.35386119257087
2.315738025415445
2.2737047898338223
2.2267839687194524
2.175953079178885
2.120234604105572
2.059628543499511
1.994134897360704
1.9257086999022484
1.857282502443793
1.7917888563049853
1.729227761485826
1.678396871945259
1.6383186705767352
1.6021505376344083
1.573802541544477
1.5542521994134897
1.541544477028348
1.5347018572825024
1.5356793743890518
1.541544477028348
1.5483870967741935
1.5532746823069403
1.5581622678396871
1.5620723362658846
1.5650048875855327
1.565982404692082
1.5620723362658846
1.5542521994134897
1.5454545454545454
1.5347018572825024
1.5249266862170088
1.5161290322580645
1.5083088954056696
1.499511241446725
1.4887585532746823
1.4750733137829912
1.4643206256109482
1.4535679374389052
1.4408602150537635
1.4271749755620724
1.4134897360703813
1.4007820136852396
1.3890518084066472
1.3782991202346042
1.3685239491691104
1.359726295210166
1.3519061583577712
1.3440860215053765
1.3362658846529814
1.3294232649071358
1.3235581622678396
1.316715542521994
1.3098729227761483
1.3040078201368523
1.2981427174975562
1.2913000977517106
1.2854349951124144
1.2805474095796676
1.2766373411534702
1.2746823069403714
1.273704789833822
1.2746823069403714
1.2756598240469208
1.2746823069403714
1.273704789833822
1.273704789833822
1.273704789833822
1.273704789833822
1.273704789833822
1.2717497556207231
1.2668621700879763
1.260019550342131
1.2531769305962854
1.249266862170088
1.2512218963831867
1.262952101661779
1.289345063538612
1.3391984359726294
1.4193548387096775
1.530791788856305
1.6715542521994136
