ppg
1.5347018572825024
1.521994134897361
1.5102639296187683
1.4437927663734116
1.3499511241446724
1.2971652003910068
1.2658846529814272
1.2443792766373412
1.2316715542521994
1.2238514173998043
1.2150537634408602
1.2052785923753666
1.1945259042033236
1.1837732160312806
1.1730205278592376
1.1612903225806452
1.1505376344086022
1.141739980449658
1.1348973607038124
1.1290322580645162
1.1280547409579669
1.1280547409579669
1.1251221896383188
1.1241446725317692
1.1231671554252198
1.1231671554252198
1.121212121212121
1.1192570869990224
1.1163245356793745
1.1143695014662756
2.789833822091887
2.7859237536656893
2.7722385141739982
2.7517106549364616
2.730205278592375
2.708699902248289
2.6852394916911044
2.662756598240469
2.6402737047898337
2.616813294232649
2.5884652981427174
2.5542521994134897
2.515151515151515
2.4701857282502444
2.420332355816227
2.3714565004887587
2.3225806451612905
2.260019550342131
2.1867057673509285
2.10752688172043
2.021505376344086
1.9335288367546437
1.8465298142717497
1.7624633431085044
1.6842619745845553
1.6148582600195502
1.555229716520039
1.5073313782991202
1.4750733137829912
1.452590420332356
1.4349951124144673
1.4193548387096775
1.404692082111437
1.3900293255131966
1.3743890518084063
1.356793743890518
1.335288367546432
1.3118279569892473
1.289345063538612
1.2668621700879763
1.2502443792766371
1.2365591397849462
1.217008797653959
1.1867057673509287
1.1573802541544478
1.13880742913001
1.121212121212121
1.1065493646138806
1.0977517106549364
1.0948191593352885
1.0957966764418376
1.099706744868035
1.104594330400782
1.110459433040078
1.118279569892473
1.1241446725317692
1.1300097751710656
1.1378299120234605
1.144672531769306
1.1505376344086022
1.1564027370478984
1.160312805474096
1.1652003910068427
1.1691104594330402
1.1720430107526882
1.1788856304985338
1.1867057673509287
1.1935483870967742
1.2023460410557183
1.2121212121212122
1.2228739002932552
1.2336265884652982
1.2443792766373412
1.2561094819159335
1.2668621700879763
1.2756598240469208
1.2795698924731185
1.284457478005865
1.289345063538612
1.289345063538612
1.2854349951124144
1.281524926686217
1.281524926686217
1.2883675464320623
1.310850439882698
1.359726295210166
1.439882697947214
1.552297165200391
1.696969696969697
1.868035190615836
2.027370478983382
2.176930596285435
2.337243401759531
2.4916911045943304
2.6265884652981426
2.736070381231672
2.817204301075269
2.8729227761485827
2.90811339198436
2.9257086999022484
2.9286412512218964
2.919843597262952
2.903225806451613
2.8826979472140764
2.86217008797654
2.843597262952102
2.825024437927664
2.803519061583578
2.779081133919844
2.750733137829912
2.720430107526881
2.6852394916911044
2.643206256109482
2.591397849462365
2.530791788856305
2.4701857282502444
2.4056695992179864
2.3304007820136854
2.247311827956989
2.158357771260997
2.0684261974584555
1.9804496578690127
1.8973607038123168
1.823069403714565
1.7575757575757576
1.7038123167155426
1.66177908113392
1.632453567937439
1.611925708699902
1.5933528836754642
1.5757575757575757
1.5571847507331378
1.5376344086021505
1.5131964809384164
1.4858260019550342
1.458455522971652
1.43108504398827
1.4037145650048877
1.375366568914956
1.348973607038123
1.3304007820136852
1.316715542521994
1.303030303030303
1.2903225806451613
1.278592375366569
1.2668621700879763
1.2570869990224829
1.2512218963831867
1.24633431085044
1.241446725317693
1.2346041055718475
1.2258064516129032
1.219941348973607
1.217008797653959
1.2111436950146628
1.203323558162268
1.1945259042033236
1.187683284457478
1.181818181818182
1.1759530791788857
1.1720430107526882
1.1681329423264908
1.163245356793744
1.1593352883675463
1.1573802541544478
1.1593352883675463
1.163245356793744
1.1652003910068427
1.166177908113392
1.1671554252199414
1.1671554252199414
1.1671554252199414
1.1671554252199414
1.1681329423264908
1.1700879765395895
1.1710654936461389
1.1720430107526882
1.1749755620723363
1.1798631476050832
1.181818181818182
1.1827956989247312
1.1857282502443791
1.198435972629521
1.2297165200391007
1.2883675464320623
1.380254154447703
1.5083088954056696
1.6695992179863148
1.8563049853372435
2.0518084066471163
2.218963831867057
2.3626588465298144
2.5034213098729228
2.6265884652981426
2.7262952101661777
2.7996089931573804
2.8484848484848486
2.878787878787879
2.8944281524926687
2.897360703812317
2.8905180840664717
2.875855327468231
2.8582600195503423
2.8377321603128056
2.8289345063538613
2.8240469208211145
2.806451612903226
2.782991202346041
2.755620723362659
2.7253176930596283
2.69208211143695
2.6529814271749754
2.6050830889540566
2.550342130987292
2.4858260019550342
2.420332355816227
2.3519061583577714
2.270772238514174
2.1818181818181817
2.0879765395894427
1.9951124144672527
1.906158357771261
1.825024437927664
1.7497556207233629
1.683284457478006
1.629521016617791
1.5865102639296187
1.5562072336265884
1.5327468230694037
1.512218963831867
1.4975562072336266
1.4887585532746823
1.4848484848484849
1.482893450635386
1.478983382209189
1.4701857282502444
1.4604105571847508
1.4496578690127078
1.4379276637341154
1.426197458455523
1.4173998044965788
1.4115347018572826
1.4056695992179864
1.3998044965786902
1.393939393939394
1.388074291300098
1.3822091886608017
1.3743890518084063
1.364613880742913
1.35386119257087
1.3421309872922775
1.3304007820136852
1.3225806451612905
1.3186705767350928
1.313782991202346
1.3088954056695992
1.303030303030303
1.2971652003910068
1.2913000977517106
1.2854349951124144
1.2795698924731185
1.273704789833822
1.267839687194526
1.2619745845552297
1.2561094819159335
1.2541544477028348
1.2580645161290325
1.262952101661779
1.267839687194526
1.273704789833822
1.2795698924731185
1.2854349951124144
1.2913000977517106
1.2971652003910068
1.303030303030303
1.3088954056695992
1.3118279569892473
1.313782991202346
1.3128054740957966
1.310850439882698
1.3118279569892473
1.3176930596285434
1.364613880742913
1.4252199413489737
1.4897360703812317
1.6011730205278591
1.8113391984359728
2.026392961876833
2.2111436950146626
2.3812316715542523
2.552297165200391
2.7233626588465296
2.835777126099707
2.948191593352884
3.0391006842619745
3.088954056695992
3.1094819159335287
3.1094819159335287
3.0977517106549364
3.0791788856304985
3.056695992179863
3.038123167155425
3.010752688172043
2.9696969696969697
2.9335288367546437
2.90811339198436
2.8797653958944283
2.838709677419355
2.790811339198436
2.736070381231672
2.6725317693059627
2.5992179863147604
2.539589442815249
2.472140762463343
2.377321603128055
2.283479960899316
2.193548387096774
2.10752688172043
2.0303030303030303
1.962854349951124
1.905180840664712
1.857282502443793
1.8201368523949168
1.7927663734115349
1.7732160312805474
1.7565982404692082
1.7429130009775171
1.7302052785923754
1.7145650048875856
1.6979472140762464
1.6803519061583578
1.6627565982404693
1.6451612903225807
1.6256109481915937
1.6050830889540566
1.58455522971652
1.5620723362658846
1.5386119257087
1.521016617790811
1.5063538611925709
1.4887585532746823
1.469208211143695
1.447702834799609
1.426197458455523
1.4066471163245358
1.388074291300098
1.3695014662756595
1.3528836754643203
1.33822091886608
1.3255131964809383
1.3118279569892473
1.300097751710655
1.289345063538612
1.2756598240469208
1.260019550342131
1.2443792766373412
1.23069403714565
1.2209188660801564
1.2160312805474096
1.2130987292277615
1.2121212121212122
1.2111436950146628
1.2111436950146628
1.2140762463343109
1.2179863147605083
1.219941348973607
1.2209188660801564
1.2218963831867058
1.2218963831867058
1.2218963831867058
1.2218963831867058
1.2218963831867058
1.2218963831867058
1.2218963831867058
1.2209188660801564
1.217008797653959
1.217008797653959
1.219941348973607
1.2258064516129032
1.2453567937438903
1.289345063538612
1.3695014662756595
1.4926686217008798
1.6529814271749756
1.8416422287390029
2.048875855327468
2.260019550342131
2.4604105571847508
2.616813294232649
2.739980449657869
2.8514173998044967
2.940371456500489
3.005865102639296
3.048875855327468
3.0733137829912023
3.081133919843597
3.0762463343108504
3.0625610948191597
3.0439882697947214
3.0195503421309877
2.989247311827957
2.956011730205278
2.9237536656891496
2.89247311827957
2.8582600195503423
2.820136852394917
2.779081133919844
2.7341153470185726
2.6852394916911044
2.627565982404692
2.563049853372434
2.4916911045943304
2.412512218963832
2.335288367546432
2.2561094819159337
2.164222873900293
2.064516129032258
1.9608993157380252
1.8592375366568916
1.7653958944281525
1.6813294232649072
1.608993157380254
1.5493646138807429
1.501466275659824
1.4633431085043989
1.436950146627566
1.4222873900293256
1.4134897360703813
1.4066471163245358
1.396871945259042
1.3841642228739004
1.3724340175953078
1.3587487781036167
1.346041055718475
1.3333333333333333
1.321603128054741
1.3128054740957966
1.3049853372434017
1.3010752688172045
1.2991202346041055
1.295210166177908
1.2903225806451613
1.284457478005865
1.278592375366569
1.2727272727272727
1.2688172043010753
1.267839687194526
1.270772238514174
1.2746823069403714
1.2805474095796676
1.2864125122189638
1.2932551319648091
1.3010752688172045
1.3098729227761483
1.321603128054741
1.3362658846529814
1.35386119257087
1.375366568914956
1.3978494623655917
1.3743890518084063
1.3304007820136852
1.327468230694037
1.3440860215053765
1.3665689149560116
1.3870967741935485
1.4066471163245358
1.426197458455523
1.444770283479961
1.4633431085043989
1.4819159335288368
1.500488758553275
1.5190615835777126
1.5376344086021505
1.5532746823069403
1.563049853372434
1.565982404692082
1.5679374389051808
1.5728250244379276
1.58455522971652
1.611925708699902
1.667644183773216
1.7605083088954057
1.8963831867057677
2.069403714565005
2.270772238514174
2.489736070381232
2.7126099706744866
2.9237536656891496
3.0869990224828934
3.212121212121212
3.3255131964809386
3.4134897360703813
3.4731182795698925
3.5083088954056696
3.5210166177908118
3.5161290322580645
3.498533724340176
3.4672531769305963
3.4252199413489737
3.378299120234604
3.329423264907136
3.280547409579668
3.2297165200391005
3.177908113391984
3.1270772238514173
3.075268817204301
3.021505376344086
2.964809384164223
2.902248289345064
2.835777126099707
2.764418377321604
2.6901270772238512
2.6177908113391983
2.5532746823069403
2.4946236559139785
2.4359726295210167
2.380254154447703
2.3284457478005867
2.2844574780058653
2.24633431085044
2.2130987292277613
2.1847507331378297
2.156402737047898
2.1251221896383186
2.088954056695992
2.0527859237536656
2.0127077223851417
1.964809384164223
1.9130009775171064
1.857282502443793
1.7986314760508308
1.7390029325513197
1.6803519061583578
1.6217008797653958
1.564027370478983
1.5063538611925709
1.4496578690127078
1.3949169110459434
1.3479960899315735
1.305962854349951
1.2590420332355816
1.2121212121212122
1.164222873900293
1.1133919843597262
1.0664711632453567
1.0224828934506354
0.9804496578690128
0.9403714565004888
0.8993157380254154
0.8582600195503421
0.8279569892473119
0.8005865102639296
0.7653958944281525
0.7262952101661779
0.6862170087976539
0.6480938416422287
0.6099706744868035
0.5718475073313783
0.5356793743890518
0.5024437927663734
0.4701857282502444
0.4389051808406647
0.407624633431085
0.3870967741935484
0.3734115347018573
0.3528836754643206
0.3304007820136852
0.3098729227761486
0.2883675464320626
0.2668621700879765
0.2482893450635386
0.2297165200391006
0.2082111436950146
0.187683284457478
0.1730205278592375
0.1720430107526881
0.1867057673509286
0.2179863147605083
0.2756598240469208
0.3695014662756598
0.5034213098729228
0.6754643206256109
0.8787878787878788
1.0948191593352885
1.3098729227761483
1.512218963831867
1.6911045943304008
1.839687194525904
1.946236559139785
2.021505376344086
2.0840664711632453
2.1309872922776147
2.160312805474096
2.176930596285435
2.1837732160312804
2.1837732160312804
2.1788856304985336
2.1700879765395893
2.158357771260997
2.1417399804496577
2.1221896383186705
2.101661779081134
2.0772238514174
2.047898338220919
2.013685239491691
1.9726295210166176
1.9257086999022484
1.871945259042033
1.8074291300097751
1.7331378299120237
1.6529814271749756
1.565982404692082
1.4731182795698925
1.391006842619746
1.3157380254154447
1.23069403714565
1.1436950146627567
1.0596285434995112
0.9853372434017597
0.9227761485826002
0.8748778103616813
0.841642228739003
0.820136852394917
0.8074291300097751
0.8025415444770283
0.8064516129032258
0.8132942326490714
0.8172043010752689
0.8172043010752689
0.8142717497556208
0.8093841642228738
0.8035190615835777
0.7976539589442815
0.7888563049853372
0.7751710654936461
0.7585532746823069
0.7409579667644184
0.7233626588465298
0.7116324535679375
0.7018572825024438
0.6911045943304008
0.6793743890518084
0.667644183773216
0.6549364613880743
0.6412512218963832
0.6285434995112414
0.6158357771260997
0.6060606060606061
0.5982404692082112
0.5874877810361682
0.5826001955034213
0.5796676441837733
0.5728250244379277
0.5630498533724341
0.5513196480938416
0.541544477028348
0.5347018572825024
0.5317693059628543
0.5298142717497556
0.530791788856305
0.5356793743890518
0.544477028347996
0.555229716520039
0.5698924731182796
0.5865102639296188
0.6011730205278593
0.6109481915933529
0.6158357771260997
0.6197458455522972
0.6285434995112414
0.6500488758553274
0.6930596285434996
0.7663734115347018
0.8787878787878788
1.0332355816226784
1.1925708699902249
1.3607038123167154
1.564027370478983
1.7810361681329423
1.992179863147605
2.1847507331378297
2.347996089931574
2.47702834799609
2.5747800586510263
2.643206256109482
2.6881720430107525
2.7145650048875853
2.7262952101661777
2.7253176930596283
2.7155425219941347
2.701857282502444
2.684261974584555
2.6608015640273703
2.633431085043988
2.603128054740958
2.56891495601173
2.5317693059628543
2.489736070381232
2.4408602150537635
2.3851417399804498
2.3313782991202348
2.272727272727273
2.201368523949169
2.1192570869990224
2.0303030303030303
1.9393939393939397
1.8504398826979471
1.7673509286412512
1.6930596285434996
1.6314760508308896
1.581622678396872
1.542521994134897
1.512218963831867
1.4926686217008798
1.4809384164222874
1.5503421309872922
1.6608015640273706
1.7135874877810362
1.7380254154447703
1.7487781036168133
1.7517106549364614
1.7497556207233629
1.7448680351906158
1.7380254154447703
1.7311827956989247
1.726295210166178
1.721407624633431
1.715542521994135
1.7086999022482894
1.7018572825024438
1.6950146627565983
1.6871945259042034
1.6803519061583578
1.672531769305963
1.664711632453568
1.6559139784946235
1.6480938416422288
1.6422287390029326
1.6373411534701858
1.6314760508308896
1.6256109481915937
1.6207233626588464
1.616813294232649
1.6129032258064515
1.608993157380254
1.6050830889540566
1.6011730205278591
1.5972629521016617
1.5933528836754642
1.590420332355816
1.5884652981427174
1.587487781036168
1.5865102639296187
1.585532746823069
1.5865102639296187
1.587487781036168
1.5884652981427174
1.5894428152492668
1.5884652981427174
1.585532746823069
1.5826001955034212
1.5777126099706744
1.5747800586510263
1.5747800586510263
1.5786901270772238
1.5943304007820136
1.6285434995112416
1.686217008797654
1.76930596285435
1.8748778103616808
1.997067448680352
2.126099706744868
2.2531769305962857
2.3714565004887587
2.474095796676442
2.550342130987292
2.6050830889540566
2.6510263929618767
2.687194525904203
2.7126099706744866
2.727272727272727
2.7331378299120237
2.732160312805474
2.7262952101661777
2.716520039100684
2.704789833822092
2.6901270772238512
2.673509286412512
2.6559139784946235
2.6392961876832843
2.622678396871945
2.6041055718475072
2.582600195503421
2.5562072336265884
2.5239491691104594
2.4838709677419355
2.4359726295210167
2.3822091886608017
2.3225806451612905
2.259042033235582
2.19941348973607
2.142717497556207
2.0791788856304985
2.013685239491691
1.949169110459433
1.889540566959922
1.835777126099707
1.7878787878787878
1.7468230694037146
1.7135874877810362
1.6871945259042034
1.6666666666666667
1.6529814271749756
1.643206256109482
1.6344086021505375
1.6265884652981428
1.6187683284457477
1.6099706744868034
1.6011730205278591
1.5933528836754642
1.58455522971652
1.5757575757575757
1.5669599217986314
1.5591397849462365
1.5513196480938416
1.547409579667644
1.543499511241447
1.5376344086021505
1.5317693059628543
1.5249266862170088
1.5190615835777126
1.5141739980449658
1.5112414467253177
1.509286412512219
1.5083088954056696
1.5083088954056696
1.5073313782991202
1.5063538611925709
1.5073313782991202
1.5073313782991202
1.5073313782991202
1.5083088954056696
1.5112414467253177
1.5141739980449658
1.517106549364614
1.521016617790811
1.5249266862170088
1.5278592375366569
1.5278592375366569
1.525904203323558
1.5249266862170088
1.5249266862170088
1.5239491691104594
1.5249266862170088
1.5327468230694037
1.5542521994134897
1.595307917888563
1.6588465298142718
1.7448680351906158
1.8494623655913975
1.9696969696969695
2.0977517106549364
2.2082111436950145
2.302052785923754
2.3949169110459434
2.4750733137829912
2.5376344086021505
2.581622678396872
2.6099706744868034
2.625610948191593
2.631476050830889
2.63049853372434
2.622678396871945
2.611925708699902
2.5992179863147604
2.58455522971652
2.5698924731182795
2.5562072336265884
2.5425219941348973
2.530791788856305
2.517106549364614
2.5004887585532747
2.4780058651026398
2.449657869012708
2.4144672531769307
2.3714565004887587
2.32355816226784
2.2766373411534704
2.2297165200391005
2.174975562072336
2.1163245356793743
2.058651026392962
2.003910068426197
1.9530791788856303
1.9090909090909087
1.8729227761485825
1.8435972629521016
1.8211143695014664
1.804496578690127
1.7927663734115349
1.7849462365591398
1.7771260997067448
1.7683284457478006
1.758553274682307
1.7487781036168133
1.739980449657869
1.7311827956989247
1.7204301075268815
1.70772238514174
1.694037145650049
1.6793743890518085
1.664711632453568
1.6529814271749756
1.6422287390029326
1.6304985337243405
1.619745845552297
1.608993157380254
1.5972629521016617
1.5865102639296187
1.5757575757575757
1.5650048875855327
1.5532746823069403
1.542521994134897
1.5317693059628543
1.521994134897361
1.5151515151515151
1.509286412512219
1.5053763440860215
1.5034213098729228
1.501466275659824
1.498533724340176
1.4936461388074291
1.4897360703812317
1.487781036168133
1.4887585532746823
1.495601173020528
1.5131964809384164
1.541544477028348
1.5865102639296187
1.6559139784946235
1.7497556207233629
1.8621700879765395
1.986314760508309
2.113391984359726
2.2346041055718477
2.3411534701857284
2.4281524926686218
2.4946236559139785
2.541544477028348
2.5718475073313782
2.5884652981427174
2.595307917888563
2.5962854349951123
2.593352883675464
2.5884652981427174
2.579667644183773
2.567937438905181
2.555229716520039
2.541544477028348
2.525904203323558
2.509286412512219
2.489736070381232
2.4682306940371457
2.4457478005865103
2.419354838709677
2.389051808406647
2.35386119257087
2.3118279569892475
2.26197458455523
2.2052785923753664
2.144672531769306
2.032258064516129
1.8875855327468232
1.7683284457478006
1.675464320625611
1.6001955034213098
1.5268817204301075
1.4623655913978495
1.409579667644184
1.367546432062561
1.3333333333333333
1.3040078201368523
1.2795698924731185
1.2580645161290325
1.238514173998045
1.219941348973607
1.2023460410557183
1.1886608015640274
1.1759530791788857
1.1564027370478984
1.1319648093841643
1.1055718475073313
1.078201368523949
1.050830889540567
1.0254154447702837
1.0009775171065494
0.9775171065493646
0.95405669599218
0.9305962854349952
0.9130009775171064
0.8993157380254154
0.8836754643206256
0.8699902248289345
0.8602150537634409
0.852394916911046
0.8455522971652004
0.8396871945259042
0.833822091886608
0.8279569892473119
0.8220918866080157
0.8162267839687195
0.8103616813294232
0.8103616813294232
0.8132942326490714
0.8132942326490714
0.8132942326490714
0.8113391984359726
0.8103616813294232
0.8132942326490714
0.8172043010752689
0.8220918866080157
0.8279569892473119
0.833822091886608
0.8406647116324536
0.8514173998044966
0.863147605083089
0.8729227761485826
0.8836754643206256
0.895405669599218
0.9071358748778104
0.9188660801564028
0.9305962854349952
0.9423264907135877
0.95405669599218
0.9657869012707724
0.9775171065493646
0.9872922776148584
0.9980449657869012
1.007820136852395
1.0127077223851415
1.0156402737047898
1.0166177908113392
1.021505376344086
1.0410557184750733
1.0918866080156402
1.18475073313783
1.3235581622678396
1.5053763440860215
1.7223851417399805
1.9266862170087975
2.121212121212121
2.334310850439883
2.5386119257087
2.718475073313783
2.8641251221896384
2.9745845552297165
3.0547409579667644
3.10850439882698
3.1407624633431084
3.157380254154448
3.161290322580645
3.157380254154448
3.144672531769306
3.1280547409579667
3.112414467253177
3.0948191593352883
3.074291300097752
3.053763440860215
3.032258064516129
3.004887585532747
2.972629521016618
2.932551319648094
2.884652981427175
2.8269794721407626
2.764418377321604
2.696969696969697
2.6158357771261
2.527859237536657
2.4349951124144678
2.340175953079179
2.249266862170088
2.164222873900293
2.085043988269794
2.0146627565982405
1.9550342130987293
1.9042033235581624
1.8631476050830889
1.83088954056696
1.804496578690127
1.7810361681329423
1.761485826001955
1.7429130009775171
1.7233626588465298
1.704789833822092
1.6852394916911049
1.6637341153470186
1.6412512218963833
1.6187683284457477
1.5962854349951123
1.5777126099706744
1.5610948191593352
1.541544477028348
1.521016617790811
1.5024437927663734
1.4838709677419355
1.466275659824047
1.4457478005865103
1.4222873900293256
1.3988269794721409
1.375366568914956
1.3519061583577712
1.3284457478005864
1.3088954056695992
1.29227761485826
1.273704789833822
1.2570869990224829
1.2424242424242424
1.227761485826002
1.2150537634408602
1.2052785923753666
1.1964809384164223
1.1857282502443791
1.1749755620723363
1.163245356793744
1.1564027370478984
1.152492668621701
1.144672531769306
1.1348973607038124
1.1270772238514175
1.1192570869990224
1.1094819159335287
1.099706744868035
1.0918866080156402
1.0850439882697946
1.0791788856304985
1.0733137829912025
1.0694037145650048
1.0684261974584557
1.0684261974584557
1.0654936461388074
1.0596285434995112
1.050830889540567
1.040078201368524
1.0303030303030305
1.0273704789833822
1.0391006842619743
1.078201368523949
1.1564027370478984
1.2756598240469208
1.4066471163245358
1.555229716520039
1.7458455522971652
1.9550342130987293
2.1652003910068425
2.360703812316716
2.5317693059628543
2.6715542521994133
2.7781036168132944
2.854349951124145
2.9071358748778104
2.9423264907135875
2.962854349951124
2.967741935483871
2.962854349951124
2.95405669599218
2.941348973607038
2.9257086999022484
2.90811339198436
2.8856304985337244
2.8611925708699903
2.835777126099707
2.807429130009776
2.7722385141739982
2.730205278592375
2.684261974584555
2.633431085043988
2.5747800586510263
2.505376344086021
2.4252199413489737
2.337243401759531
2.241446725317693
2.139784946236559
2.035190615835777
1.9315738025415443
1.83088954056696
1.737047898338221
1.653958944281525
1.590420332355816
1.5395894428152492
1.490713587487781
1.447702834799609
1.4086021505376345
1.3743890518084063
1.3421309872922775
1.3118279569892473
1.281524926686217
1.2502443792766371
1.219941348973607
1.1906158357771262
1.1671554252199414
1.1466275659824048
1.121212121212121
1.093841642228739
1.067448680351906
1.043010752688172
1.018572825024438
0.9951124144672532
0.9716520039100685
0.9481915933528836
0.9247311827956988
0.9012707722385142
0.8836754643206256
0.8699902248289345
0.8543499511241447
0.8377321603128055
0.8211143695014663
0.8035190615835777
0.7888563049853372
0.7790811339198436
0.7712609970674487
