ppg
2.389051808406647
2.5425219941348973
2.6725317693059627
2.7751710654936463
2.8484848484848486
2.8944281524926687
2.9159335288367547
2.9159335288367547
2.895405669599218
2.86217008797654
2.8152492668621703
2.750733137829912
2.668621700879765
2.572825024437928
2.4682306940371457
2.357771260997068
2.2453567937438903
2.133919843597263
2.0254154447702835
1.9237536656891496
1.8299120234604105
1.7458455522971652
1.6793743890518085
1.624633431085044
1.5708699902248289
1.520039100684262
1.4721407624633431
1.4281524926686218
1.388074291300098
1.3519061583577712
1.3186705767350928
1.2873900293255132
1.2570869990224829
1.227761485826002
1.2052785923753666
1.187683284457478
1.1681329423264908
1.1564027370478984
1.1593352883675463
1.187683284457478
1.249266862170088
1.348973607038123
1.4858260019550342
1.651026392961877
1.8318670576735088
2.016617790811339
2.190615835777126
2.3284457478005867
2.436950146627566
2.533724340175953
2.610948191593353
2.664711632453568
2.6940371456500487
2.701857282502444
2.6881720430107525
2.653958944281525
2.603128054740958
2.5347018572825024
2.450635386119257
2.367546432062561
2.283479960899316
2.1837732160312804
2.0772238514174
1.9696969696969695
1.8641251221896384
1.7634408602150538
1.6705767350928642
1.587487781036168
1.5141739980449658
1.4496578690127078
1.3949169110459434
1.3479960899315735
1.313782991202346
1.2873900293255132
1.2609970674486803
1.2365591397849462
1.2130987292277615
1.1906158357771262
1.1700879765395895
1.1505376344086022
1.1300097751710656
1.1085043988269794
1.088954056695992
1.0772238514173995
1.0801564027370478
1.1036168132942326
1.155425219941349
1.2434017595307918
1.3695014662756595
1.5278592375366569
1.70772238514174
1.8973607038123168
2.0821114369501466
2.251221896383187
2.396871945259042
2.515151515151515
2.6041055718475072
2.658846529814272
2.687194525904203
2.699902248289345
2.6940371456500487
2.668621700879765
2.624633431085044
2.563049853372434
2.4858260019550342
2.3949169110459434
2.294232649071359
2.187683284457478
2.080156402737048
1.9853372434017595
1.8993157380254155
1.8064516129032255
1.7165200391006843
1.6334310850439884
1.5571847507331378
1.4887585532746823
1.4271749755620724
1.3734115347018572
1.3264907135874875
1.284457478005865
1.24633431085044
1.2111436950146628
1.1857282502443791
1.166177908113392
1.144672531769306
1.121212121212121
1.096774193548387
1.072336265884653
1.0518084066471165
1.0410557184750733
1.0469208211143697
1.0801564027370478
1.1466275659824048
1.2502443792766371
1.367546432062561
1.5024437927663734
1.672531769305963
1.8592375366568916
2.046920821114369
2.222873900293255
2.377321603128055
2.506353861192571
2.606060606060606
2.679374389051808
2.7262952101661777
2.748778103616813
2.748778103616813
2.7311827956989245
2.6989247311827955
2.6471163245356792
2.5777126099706744
2.493646138807429
2.3958944281524928
2.2883675464320627
2.1739980449657867
2.0576735092864125
1.9442815249266865
1.836754643206256
1.7360703812316716
1.6559139784946235
1.5894428152492668
1.5239491691104594
1.4613880742913
1.4056695992179864
1.3558162267839686
1.3118279569892473
1.273704789833822
1.2394916911045943
1.209188660801564
1.181818181818182
1.155425219941349
1.1290322580645162
1.1094819159335287
1.0928641251221896
1.0733137829912025
1.0576735092864125
1.0547409579667644
1.075268817204301
1.1290322580645162
1.2209188660801564
1.3519061583577712
1.5161290322580645
1.7028347996089932
1.900293255131965
2.0733137829912023
2.2238514173998043
2.375366568914956
2.512218963831867
2.625610948191593
2.7116324535679373
2.7702834799608995
2.8025415444770285
2.811339198435973
2.7976539589442817
2.7624633431085046
2.708699902248289
2.6373411534701856
2.563049853372434
2.4858260019550342
2.393939393939394
2.29227761485826
2.1867057673509285
2.080156402737048
1.9775171065493649
1.8807429130009776
1.793743890518084
1.715542521994135
1.64613880742913
1.585532746823069
1.5395894428152492
1.5034213098729228
1.4682306940371457
1.435972629521017
1.4076246334310851
1.3822091886608017
1.359726295210166
1.3411534701857282
1.324535679374389
1.3069403714565004
1.2903225806451613
1.2766373411534702
1.2697947214076246
1.2766373411534702
1.300097751710655
1.3509286412512218
1.435972629521017
1.5571847507331378
1.7126099706744868
1.89247311827957
2.0869990224828934
2.2825024437927666
2.464320625610948
2.6265884652981426
2.7624633431085046
2.8582600195503423
2.9227761485826003
2.9716520039100685
2.99902248289345
3.005865102639296
2.992179863147605
2.9589442815249267
2.90811339198436
2.8396871945259043
2.755620723362659
2.6608015640273703
2.5591397849462365
2.463343108504399
2.3704789833822093
2.2688172043010755
2.166177908113392
2.0664711632453567
1.9726295210166176
1.8866080156402736
1.8093841642228736
1.7419354838709675
1.6823069403714566
1.6314760508308896
1.587487781036168
1.5493646138807429
1.521016617790811
1.498533724340176
1.4750733137829912
1.4506353861192571
1.4252199413489737
1.3988269794721409
1.3714565004887584
1.3450635386119256
1.324535679374389
1.3147605083088951
1.324535679374389
1.364613880742913
1.4252199413489737
1.512218963831867
1.643206256109482
1.8074291300097751
1.992179863147605
2.1837732160312804
2.3685239491691106
2.535679374389052
2.678396871945259
2.791788856304985
2.875855327468231
2.9335288367546437
2.9667644183773216
2.975562072336266
2.963831867057673
2.935483870967742
2.889540566959922
2.8260019550342133
2.745845552297165
2.652003910068426
2.547409579667644
2.434017595307918
2.315738025415445
2.196480938416422
2.0791788856304985
1.9794721407624636
1.8914956011730208
1.801564027370479
1.7165200391006843
1.6383186705767352
1.5679374389051808
1.5063538611925709
1.4516129032258065
1.4027370478983383
1.3587487781036167
1.3186705767350928
1.2834799608993157
1.2502443792766371
1.2258064516129032
1.2052785923753666
1.1808406647116323
1.1544477028347997
1.1290322580645162
1.1094819159335287
1.104594330400782
1.1251221896383188
1.1788856304985338
1.2688172043010753
1.3958944281524928
1.5562072336265884
1.7126099706744868
1.865102639296188
2.035190615835777
2.2023460410557183
2.35386119257087
2.4809384164222874
2.5806451612903225
2.653958944281525
2.701857282502444
2.7233626588465296
2.7223851417399803
2.7008797653958942
2.6578690127077222
2.6050830889540566
2.541544477028348
2.458455522971652
2.361681329423265
2.254154447702835
2.1407624633431084
2.0254154447702835
1.9120234604105573
1.804496578690127
1.7038123167155426
1.6109481915933528
1.5288367546432062
1.4652981427174976
1.412512218963832
1.359726295210166
1.3098729227761483
1.2639296187683284
1.2228739002932552
1.1867057673509287
1.155425219941349
1.1270772238514175
1.0987292277614855
1.0694037145650048
1.040078201368524
1.0127077223851415
0.9951124144672532
0.9863147605083088
0.9853372434017597
1.002932551319648
1.0488758553274682
1.1280547409579669
1.2453567937438903
1.3958944281524928
1.5718475073313782
1.7605083088954057
1.9501466275659824
2.129032258064516
2.271749755620724
2.383186705767351
2.484848484848485
2.5650048875855327
2.621700879765396
2.6559139784946235
2.6666666666666665
2.654936461388074
2.621700879765396
2.56891495601173
2.4995112414467253
2.4144672531769307
2.317693059628544
2.225806451612903
2.134897360703812
2.03128054740958
1.9237536656891496
1.8162267839687196
1.7126099706744868
1.616813294232649
1.5317693059628543
1.457478005865103
1.3919843597262953
1.335288367546432
1.2864125122189638
1.2512218963831867
1.2228739002932552
1.1925708699902249
1.163245356793744
1.1358748778103618
1.1085043988269794
1.0801564027370478
1.0518084066471165
1.0254154447702837
1.0019550342130987
0.9843597262952102
0.981427174975562
1.0019550342130987
1.043010752688172
1.110459433040078
1.217008797653959
1.3607038123167154
1.5347018572825024
1.7253176930596286
1.919843597262952
2.10752688172043
2.2766373411534704
2.420332355816227
2.5347018572825024
2.619745845552297
2.6715542521994133
2.697947214076246
2.7096774193548385
2.702834799608993
2.675464320625611
2.6295210166177907
2.565982404692082
2.4858260019550342
2.391006842619746
2.2854349951124147
2.1730205278592374
2.0576735092864125
1.943304007820137
1.8465298142717497
1.7605083088954057
1.6705767350928642
1.5835777126099706
1.5034213098729228
1.4320625610948192
1.3685239491691104
1.3128054740957966
1.2639296187683284
1.219941348973607
1.181818181818182
1.1466275659824048
1.121212121212121
1.1016617790811338
1.0791788856304985
1.0625610948191593
1.050830889540567
1.0342130987292275
1.0175953079178883
1.0117302052785924
1.024437927663734
1.0654936461388074
1.141739980449658
1.2561094819159335
1.3812316715542523
1.521016617790811
1.6959921798631477
1.8875855327468232
2.078201368523949
2.254154447702835
2.406647116324536
2.532746823069404
2.63049853372434
2.7008797653958942
2.744868035190616
2.766373411534702
2.7673509286412514
2.752688172043011
2.7233626588465296
2.67644183773216
2.611925708699902
2.5317693059628543
2.439882697947214
2.3382209188660803
2.228739002932551
2.1163245356793743
2.003910068426197
1.895405669599218
1.7947214076246334
1.7126099706744868
1.6451612903225807
1.5777126099706744
1.5131964809384164
1.455522971652004
1.4037145650048877
1.3587487781036167
1.3196480938416422
1.2864125122189638
1.2580645161290325
1.2355816226783969
1.2238514173998043
1.2258064516129032
1.2404692082111437
1.2697947214076246
1.3206256109481915
1.391006842619746
1.478983382209189
1.5777126099706744
1.6803519061583578
1.7790811339198436
1.8670576735092863
1.9364613880742916
1.9824046920821117
2.004887585532747
2.0087976539589443
1.9960899315738023
1.964809384164223
1.9188660801564028
1.86119257086999
1.796676441837732
1.7282502443792769
1.6608015640273706
1.595307917888563
1.5347018572825024
1.4809384164222874
1.434017595307918
1.3958944281524928
1.370478983382209
1.3528836754643203
1.3362658846529814
1.3196480938416422
1.3040078201368523
1.289345063538612
1.2746823069403714
1.260019550342131
1.2443792766373412
1.2297165200391007
1.2121212121212122
1.1906158357771262
1.1730205278592376
1.1573802541544478
1.1397849462365592
1.1270772238514175
1.1300097751710656
1.1612903225806452
1.2297165200391007
1.3411534701857282
1.4936461388074291
1.6793743890518085
1.8885630498533723
2.1055718475073317
2.317693059628544
2.489736070381232
2.6295210166177907
2.763440860215054
2.877810361681329
2.967741935483871
3.0332355816226784
3.075268817204301
3.0948191593352883
3.093841642228739
3.0733137829912023
3.035190615835777
2.978494623655914
2.9120234604105573
2.8367546432062563
2.744868035190616
2.641251221896383
2.530791788856305
2.418377321603128
2.30791788856305
2.20039100684262
2.0977517106549364
2.003910068426197
1.9188660801564028
1.842619745845552
1.7732160312805474
1.7174975562072337
1.6705767350928642
1.6217008797653958
1.5757575757575757
1.5317693059628543
1.4916911045943304
1.4545454545454546
1.418377321603128
1.3841642228739004
1.3528836754643203
1.3255131964809383
1.305962854349951
1.3010752688172045
1.3157380254154447
1.356793743890518
1.43108504398827
1.541544477028348
1.686217008797654
1.8543499511241448
2.0332355816226784
2.212121212121212
2.378299120234604
2.52297165200391
2.641251221896383
2.732160312805474
2.790811339198436
2.825024437927664
2.8455522971652005
2.8475073313782997
2.8289345063538613
2.791788856304985
2.736070381231672
2.662756598240469
2.5747800586510263
2.474095796676442
2.364613880742913
2.249266862170088
2.145650048875855
2.050830889540567
1.949169110459433
1.847507331378299
1.7517106549364614
1.6637341153470186
1.58455522971652
1.5141739980449658
1.4516129032258065
1.3958944281524928
1.346041055718475
1.303030303030303
1.2649071358748778
1.2365591397849462
1.2150537634408602
1.1906158357771262
1.166177908113392
1.1397849462365592
1.1114369501466277
1.0850439882697946
1.0654936461388074
1.0586510263929618
1.0733137829912025
1.1173020527859236
1.1974584555229717
1.2932551319648091
1.409579667644184
1.564027370478983
1.7409579667644184
1.924731182795699
2.103616813294233
2.2668621700879767
2.406647116324536
2.5190615835777126
2.6021505376344085
2.658846529814272
2.6911045943304006
2.699902248289345
2.6911045943304006
2.665689149560117
2.622678396871945
2.5640273704789838
2.490713587487781
2.404692082111437
2.30791788856305
2.2023460410557183
2.090909090909091
1.9794721407624636
1.870967741935484
1.7673509286412512
1.6813294232649072
1.6080156402737047
1.533724340175953
1.4633431085043989
1.3998044965786902
1.3411534701857282
1.289345063538612
1.2443792766373412
1.2043010752688172
1.1681329423264908
1.1368523949169111
1.1085043988269794
1.0879765395894427
1.0713587487781036
1.0498533724340176
1.0273704789833822
1.007820136852395
0.9951124144672532
0.9990224828934506
1.029325513196481
1.093841642228739
1.1964809384164223
1.3343108504398826
1.501466275659824
1.6852394916911049
1.8494623655913975
1.9980449657869013
2.1515151515151514
2.2932551319648096
2.41544477028348
2.5112414467253177
2.5806451612903225
2.6265884652981426
2.649071358748778
2.650048875855328
2.631476050830889
2.5943304007820136
2.547409579667644
2.4916911045943304
2.4164222873900294
2.3255131964809386
2.2248289345063537
2.115347018572825
2.0019550342130987
1.8905180840664717
1.7849462365591398
1.686217008797654
1.5933528836754642
1.5083088954056696
1.436950146627566
1.383186705767351
1.3401759530791788
1.2981427174975562
1.2590420332355816
1.2238514173998043
1.1925708699902249
1.1652003910068427
1.1378299120234605
1.110459433040078
1.0840664711632453
1.0576735092864125
1.0312805474095796
1.0127077223851415
1.002932551319648
1.002932551319648
1.0234604105571847
1.072336265884653
1.1544477028347997
1.2697947214076246
1.414467253176931
1.5806451612903225
1.7595307917888563
1.9364613880742916
2.1006842619745845
2.244379276637341
2.350928641251222
2.4301075268817205
2.498533724340176
2.549364613880743
2.579667644183773
2.591397849462365
2.5855327468230693
2.5620723362658846
2.520039100684262
2.4604105571847508
2.3870967741935485
2.302052785923754
2.218963831867057
2.1358748778103616
2.040078201368524
1.9413489736070384
1.844574780058651
1.7517106549364614
1.664711632453568
1.58455522971652
1.512218963831867
1.4467253176930597
1.3900293255131966
1.3411534701857282
1.300097751710655
1.2697947214076246
1.24633431085044
1.2209188660801564
1.1945259042033236
1.1691104594330402
1.147605083088954
1.1329423264907137
1.1319648093841643
1.1505376344086022
1.1945259042033236
1.267839687194526
1.3695014662756595
1.4760508308895406
1.5894428152492668
1.7253176930596286
1.8670576735092863
2.002932551319648
2.12316715542522
2.2218963831867056
2.2961876832844577
2.345063538611926
2.3704789833822093
2.3743890518084068
2.356793743890518
2.320625610948192
2.274682306940372
2.220918866080156
2.15347018572825
2.0762463343108504
1.994134897360704
1.911045943304008
1.827956989247312
1.7497556207233629
1.678396871945259
1.6138807429130009
1.5581622678396871
1.5102639296187683
1.4750733137829912
1.4467253176930597
1.418377321603128
1.391006842619746
1.3665689149560116
1.3450635386119256
1.3255131964809383
1.3069403714565004
1.289345063538612
1.2717497556207231
1.2551319648093842
1.2365591397849462
1.2189638318670577
1.2082111436950147
1.2082111436950147
1.2218963831867058
1.260019550342131
1.3313782991202343
1.4389051808406648
1.581622678396872
1.7526881720430108
1.9413489736070384
2.133919843597263
2.318670576735093
2.484848484848485
2.610948191593353
2.705767350928641
2.791788856304985
2.860215053763441
2.909090909090909
2.93841642228739
2.949169110459433
2.943304007820137
2.921798631476051
2.8826979472140764
2.827956989247312
2.758553274682307
2.675464320625611
2.593352883675464
2.5102639296187683
2.41544477028348
2.315738025415445
2.21505376344086
2.1163245356793743
2.022482893450636
1.9345063538611929
1.855327468230694
1.7839687194525904
1.7194525904203324
1.66177908113392
1.6177908113391983
1.5806451612903225
1.543499511241447
1.5083088954056696
1.47702834799609
1.447702834799609
1.4203323558162269
1.393939393939394
1.3685239491691104
1.3450635386119256
1.3284457478005864
1.3264907135874875
1.346041055718475
1.383186705767351
1.4418377321603129
1.5356793743890518
1.6637341153470186
1.81524926686217
1.9804496578690127
2.146627565982405
2.302052785923754
2.436950146627566
2.548387096774193
2.635386119257087
2.697947214076246
2.735092864125122
2.7517106549364616
2.7546432062561097
2.739980449657869
2.708699902248289
2.66177908113392
2.598240469208211
2.520039100684262
2.429130009775171
2.329423264907136
2.222873900293255
2.115347018572825
2.0087976539589443
1.916911045943304
1.8347996089931573
1.7487781036168133
1.667644183773216
1.5933528836754642
1.5288367546432062
1.4721407624633431
1.4213098729227762
1.375366568914956
1.3343108504398826
1.2991202346041055
1.2688172043010753
1.24633431085044
1.227761485826002
1.2052785923753666
1.181818181818182
1.1583577712609971
1.1358748778103618
1.118279569892473
1.110459433040078
1.121212121212121
1.1593352883675463
1.2297165200391007
1.3343108504398826
1.4496578690127078
1.5757575757575757
1.7311827956989247
1.8993157380254155
2.0664711632453567
2.219941348973607
2.3519061583577714
2.469208211143695
2.5542521994134897
2.6021505376344085
2.6295210166177907
2.638318670576735
2.627565982404692
2.6041055718475072
2.567937438905181
2.5141739980449658
2.444770283479961
2.361681329423265
2.267839687194526
2.166177908113392
2.059628543499511
1.9521016617790807
1.8484848484848484
1.7497556207233629
1.6588465298142718
1.58455522971652
1.5239491691104594
1.4633431085043989
1.4076246334310851
1.3577712609970674
1.3147605083088951
1.2766373411534702
1.2424242424242424
1.2130987292277615
1.1857282502443791
1.1612903225806452
1.13880742913001
1.115347018572825
1.0987292277614855
1.0850439882697946
1.0703812316715542
1.0606060606060606
1.0635386119257086
1.0879765395894427
1.141739980449658
1.227761485826002
1.3470185728250244
1.4946236559139785
1.6608015640273706
1.8347996089931573
1.986314760508309
2.118279569892473
2.2502443792766376
2.367546432062561
2.469208211143695
2.5513196480938416
2.6050830889540566
2.633431085043988
2.638318670576735
2.621700879765396
2.5865102639296187
2.5347018572825024
2.4672531769305963
2.3958944281524928
2.3196480938416424
2.228739002932551
2.129032258064516
2.0254154447702835
1.9237536656891496
1.825024437927664
1.7341153470185728
1.6500488758553276
1.573802541544477
1.5063538611925709
1.4457478005865103
1.4007820136852396
1.3655913978494625
1.3284457478005864
1.2932551319648091
1.2609970674486803
1.2316715542521994
1.2052785923753666
1.181818181818182
1.1583577712609971
1.1348973607038124
1.1114369501466277
1.0918866080156402
1.0811339198435972
1.0840664711632453
1.1055718475073313
1.152492668621701
1.2316715542521994
1.346041055718475
1.4926686217008798
1.6627565982404693
1.844574780058651
2.024437927663734
2.1925708699902247
2.340175953079179
2.462365591397849
2.548387096774193
2.606060606060606
2.650048875855328
2.677419354838709
2.6852394916911044
2.674486803519061
2.6471163245356792
2.6021505376344085
2.541544477028348
2.466275659824047
2.378299120234604
2.280547409579668
2.1739980449657867
2.078201368523949
1.9902248289345064
1.895405669599218
1.8005865102639296
1.7116324535679377
1.6314760508308896
1.560117302052786
1.4975562072336266
1.4428152492668622
1.3958944281524928
1.3558162267839686
1.3196480938416422
1.2932551319648091
1.2727272727272727
1.249266862170088
1.224828934506354
1.2013685239491692
1.1779081133919844
1.1544477028347997
1.1329423264907137
1.118279569892473
1.115347018572825
1.1564027370478984
1.2140762463343109
1.2756598240469208
1.3607038123167154
1.4701857282502444
1.6187683284457477
1.7898338220918866
1.9696969696969695
2.144672531769306
2.304007820136853
2.441837732160313
2.555229716520039
2.6422287390029324
2.7038123167155423
2.739980449657869
2.752688172043011
2.7468230694037143
2.7262952101661777
2.689149560117302
2.636363636363636
2.5669599217986314
2.4838709677419355
2.391006842619746
2.291300097751711
2.188660801564027
2.086021505376344
1.9853372434017595
1.8905180840664717
1.8142717497556209
1.7487781036168133
1.6823069403714566
1.6217008797653958
1.5679374389051808
1.521016617790811
1.4809384164222874
1.4467253176930597
1.4173998044965788
1.3919843597262953
1.370478983382209
1.3519061583577712
1.3391984359726294
1.3284457478005864
1.3147605083088951
1.3020527859237536
1.29227761485826
1.29227761485826
1.3088954056695992
1.3509286412512218
1.4222873900293256
1.5278592375366569
1.667644183773216
1.8328445747800584
2.013685239491691
2.1739980449657867
2.317693059628544
2.4682306940371457
2.6070381231671558
2.7262952101661777
2.820136852394917
2.887585532746823
2.930596285434995
2.951124144672532
2.9501466275659824
2.9286412512218964
2.8885630498533725
2.838709677419355
2.7781036168132944
2.701857282502444
2.613880742913001
2.515151515151515
2.409579667644184
2.303030303030303
2.198435972629521
2.099706744868035
2.007820136852395
1.924731182795699
1.8504398826979471
1.782991202346041
1.7302052785923754
1.6881720430107527
1.64613880742913
1.607038123167155
1.5718475073313782
1.5405669599217986
1.5141739980449658
1.4887585532746823
1.4652981427174976
1.4428152492668622
1.418377321603128
1.3949169110459434
1.3782991202346042
1.3685239491691104
1.3685239491691104
1.388074291300098
1.436950146627566
1.5180840664711632
1.6334310850439884
1.7771260997067448
1.9423264907135875
2.117302052785924
2.289345063538612
2.447702834799609
2.570869990224829
2.665689149560117
2.750733137829912
2.817204301075269
2.8611925708699903
2.8826979472140764
2.884652981427175
2.868035190615836
2.832844574780059
2.7810361681329425
2.713587487781036
2.632453567937439
2.539589442815249
2.4486803519061584
2.357771260997068
2.2551319648093844
2.147605083088954
2.042033235581622
1.9423264907135875
1.8504398826979471
1.7673509286412512
1.6911045943304008
1.6226783968719452
1.5610948191593352
1.5073313782991202
1.466275659824047
1.426197458455523
1.3900293255131966
1.364613880742913
1.33822091886608
1.313782991202346
1.289345063538612
1.2649071358748778
1.2394916911045943
1.2150537634408602
1.1964809384164223
1.1896383186705768
1.2013685239491692
1.23069403714565
1.2825024437927663
1.3695014662756595
1.4926686217008798
1.6441837732160314
1.8142717497556209
1.989247311827957
2.157380254154448
2.30791788856305
2.4359726295210167
2.5386119257087
2.6148582600195502
2.66177908113392
2.686217008797654
2.696969696969697
2.6901270772238512
2.665689149560117
2.6236559139784945
2.5640273704789838
2.487781036168133
2.398826979472141
2.3010752688172045
2.196480938416422
2.0879765395894427
1.9794721407624636
1.8875855327468232
1.8064516129032255
1.7223851417399805
1.6412512218963833
1.565982404692082
1.4975562072336266
1.4379276637341154
1.3861192570869991
1.3421309872922775
1.303030303030303
1.252199413489736
1.1964809384164223
1.160312805474096
1.1378299120234605
1.1221896383186705
1.1173020527859236
1.1290322580645162
1.163245356793744
1.2218963831867058
1.3020527859237536
1.3988269794721409
1.5063538611925709
1.6148582600195502
1.7174975562072337
1.8054740957966764
1.869012707722385
1.911045943304008
1.9364613880742916
1.9413489736070384
1.9227761485826005
1.8836754643206255
1.828934506353861
1.761485826001955
1.6871945259042034
1.608993157380254
1.530791788856305
1.4545454545454546
1.3919843597262953
1.3401759530791788
1.2873900293255132
1.2375366568914956
1.1915933528836755
1.1505376344086022
