ppg
2.557184750733138
2.6510263929618767
2.7116324535679373
2.7517106549364616
2.768328445747801
2.760508308895406
2.732160312805474
2.686217008797654
2.625610948191593
2.552297165200391
2.472140762463343
2.386119257086999
2.297165200391007
2.206256109481916
2.126099706744868
2.0518084066471163
1.9716520039100685
1.8885630498533723
1.8054740957966764
1.7233626588465298
1.6441837732160314
1.5650048875855327
1.487781036168133
1.412512218963832
1.3401759530791788
1.2697947214076246
1.2130987292277615
1.1652003910068427
1.1173020527859236
1.0742913000977516
1.040078201368524
1.0166177908113392
1.007820136852395
1.013685239491691
1.0342130987292275
1.0664711632453567
1.1065493646138806
1.1515151515151516
1.1964809384164223
1.2375366568914956
1.273704789833822
1.3069403714565004
1.3362658846529814
1.3587487781036167
1.375366568914956
1.3870967741935485
1.3949169110459434
1.3978494623655917
1.3958944281524928
1.3890518084066472
1.3773216031280548
1.3655913978494625
1.3528836754643203
1.33822091886608
1.327468230694037
1.3333333333333333
1.3636363636363635
1.426197458455523
1.525904203323558
1.6598240469208212
1.8211143695014664
1.9980449657869013
2.177908113391984
2.326490713587488
2.4486803519061584
2.563049853372434
2.6559139784946235
2.7223851417399803
2.7624633431085046
2.776148582600196
2.76930596285435
2.744868035190616
2.70772238514174
2.6608015640273703
2.606060606060606
2.544477028347996
2.4838709677419355
2.423264907135875
2.355816226783969
2.2854349951124147
2.2140762463343107
2.1417399804496577
2.067448680351906
1.991202346041056
1.9130009775171064
1.8328445747800584
1.750733137829912
1.667644183773216
1.5943304007820136
1.5268817204301075
1.452590420332356
1.3773216031280548
1.305962854349951
1.241446725317693
1.1867057673509287
1.144672531769306
1.1163245356793745
1.1036168132942326
1.1055718475073313
1.1241446725317692
1.1564027370478984
1.1925708699902249
1.2316715542521994
1.2766373411534702
1.3225806451612905
1.3655913978494625
1.401759530791789
1.43108504398827
1.4506353861192571
1.4613880742913
1.4643206256109482
1.4623655913978495
1.457478005865103
1.452590420332356
1.4467253176930597
1.4349951124144673
1.4193548387096775
1.3998044965786902
1.3822091886608017
1.3734115347018572
1.380254154447703
1.4134897360703813
1.4819159335288368
1.5913978494623655
1.7390029325513197
1.916911045943304
2.085043988269794
2.2453567937438903
2.421309872922776
2.589442815249267
2.7331378299120237
2.8455522971652005
2.9237536656891496
2.9696969696969697
2.986314760508309
2.9775171065493646
2.9472140762463344
2.9012707722385143
2.8484848484848486
2.789833822091887
2.721407624633431
2.6471163245356792
2.5698924731182795
2.489736070381232
2.407624633431085
2.324535679374389
2.2404692082111435
2.156402737047898
2.071358748778104
1.986314760508309
1.9012707722385145
1.8269794721407624
1.758553274682307
1.6842619745845553
1.6080156402737047
1.5317693059628543
1.456500488758553
1.3841642228739004
1.3157380254154447
1.2531769305962854
1.1994134897360704
1.1573802541544478
1.1280547409579669
1.115347018572825
1.1163245356793745
1.1280547409579669
1.1505376344086022
1.1808406647116323
1.2160312805474096
1.2541544477028348
1.29227761485826
1.327468230694037
1.3587487781036167
1.383186705767351
1.4007820136852396
1.412512218963832
1.4193548387096775
1.4222873900293256
1.4203323558162269
1.41544477028348
1.4056695992179864
1.392961876832845
1.3792766373411536
1.3655913978494625
1.3577712609970674
1.364613880742913
1.3949169110459434
1.458455522971652
1.5395894428152492
1.6422287390029326
1.7859237536656891
1.9589442815249267
2.1436950146627565
2.324535679374389
2.489736070381232
2.627565982404692
2.7331378299120237
2.8054740957966766
2.84652981427175
2.859237536656892
2.844574780058651
2.812316715542522
2.7702834799608995
2.716520039100684
2.6559139784946235
2.589442815249267
2.5190615835777126
2.447702834799609
2.376344086021505
2.304007820136853
2.232649071358749
2.1622678396871944
2.093841642228739
2.034213098729228
1.978494623655914
1.916911045943304
1.8523949169110456
1.7859237536656891
1.7165200391006843
1.64613880742913
1.576735092864125
1.5102639296187683
1.4486803519061584
1.393939393939394
1.348973607038123
1.3157380254154447
1.2961876832844574
1.2883675464320623
1.289345063538612
1.2991202346041055
1.3176930596285434
1.3440860215053765
1.375366568914956
1.409579667644184
1.4428152492668622
1.4721407624633431
1.4965786901270772
1.5131964809384164
1.5239491691104594
1.5298142717497556
1.5278592375366569
1.5190615835777126
1.5053763440860215
1.487781036168133
1.4672531769305963
1.4428152492668622
1.4164222873900294
1.3861192570869991
1.3558162267839686
1.3304007820136852
1.3196480938416422
1.3255131964809383
1.3558162267839686
1.4222873900293256
1.5298142717497556
1.6764418377321604
1.8533724340175952
2.047898338220919
2.244379276637341
2.4301075268817205
2.5943304007820136
2.729227761485826
2.83088954056696
2.8944281524926687
2.927663734115347
2.9442815249266863
2.941348973607038
2.919843597262952
2.8826979472140764
2.831867057673509
2.768328445747801
2.6930596285435
2.608993157380254
2.5190615835777126
2.423264907135875
2.3255131964809386
2.2375366568914954
2.1544477028347995
2.064516129032258
1.9716520039100685
1.8778103616813293
1.7839687194525904
1.6920821114369502
1.6041055718475072
1.521016617790811
1.4428152492668622
1.370478983382209
1.3040078201368523
1.252199413489736
1.209188660801564
1.1652003910068427
1.126099706744868
1.0957966764418376
1.0762463343108504
1.0703812316715542
1.0772238514173995
1.0977517106549364
1.1280547409579669
1.163245356793744
1.2003910068426198
1.2346041055718475
1.2658846529814272
1.295210166177908
1.3206256109481915
1.3401759530791788
1.3548387096774193
1.364613880742913
1.370478983382209
1.3724340175953078
1.3695014662756595
1.3626588465298142
1.3509286412512218
1.3362658846529814
1.324535679374389
1.3186705767350928
1.321603128054741
1.3450635386119256
1.3988269794721409
1.487781036168133
1.611925708699902
1.7683284457478006
1.948191593352884
2.1358748778103616
2.317693059628544
2.4809384164222874
2.603128054740958
2.6911045943304006
2.7624633431085046
2.809384164222874
2.8289345063538613
2.825024437927664
2.801564027370479
2.760508308895406
2.705767350928641
2.6392961876832843
2.5650048875855327
2.484848484848485
2.4027370478983383
2.3274682306940373
2.2580645161290325
2.1837732160312804
2.10850439882698
2.0332355816226784
1.9579667644183771
1.8826979472140764
1.8074291300097751
1.7331378299120237
1.6588465298142718
1.5865102639296187
1.5151515151515151
1.456500488758553
1.4056695992179864
1.3499511241446724
1.295210166177908
1.2434017595307918
1.1964809384164223
1.1593352883675463
1.133919843597263
1.121212121212121
1.1221896383186705
1.1358748778103618
1.160312805474096
1.1925708699902249
1.2267839687194526
1.262952101661779
1.3020527859237536
1.3401759530791788
1.3743890518084063
1.404692082111437
1.4301075268817205
1.4496578690127078
1.4643206256109482
1.4760508308895406
1.4838709677419355
1.487781036168133
1.4897360703812317
1.487781036168133
1.4809384164222874
1.4701857282502444
1.4623655913978495
1.4633431085043989
1.4848484848484849
1.5347018572825024
1.6217008797653958
1.747800586510264
1.90811339198436
2.093841642228739
2.290322580645161
2.458455522971652
2.601173020527859
2.7419354838709675
2.863147605083089
2.956011730205278
3.016617790811339
3.046920821114369
3.0518084066471163
3.0332355816226784
2.9960899315738025
2.9442815249266863
2.881720430107527
2.8181818181818183
2.7517106549364616
2.677419354838709
2.598240469208211
2.5161290322580645
2.432062561094819
2.347018572825025
2.26197458455523
2.175953079178885
2.088954056695992
2.0009775171065494
1.913978494623656
1.8269794721407624
1.7517106549364614
1.683284457478006
1.607038123167155
1.5298142717497556
1.4535679374389052
1.3812316715542523
1.3147605083088951
1.2541544477028348
1.203323558162268
1.164222873900293
1.1368523949169111
1.1231671554252198
1.1241446725317692
1.1368523949169111
1.1593352883675463
1.1906158357771262
1.227761485826002
1.267839687194526
1.305962854349951
1.3411534701857282
1.3695014662756595
1.3919843597262953
1.4076246334310851
1.4173998044965788
1.4213098729227762
1.423264907135875
1.4222873900293256
1.41544477028348
1.4027370478983383
1.3851417399804498
1.364613880742913
1.3479960899315735
1.3411534701857282
1.3558162267839686
1.401759530791789
1.4848484848484849
1.606060606060606
1.7360703812316716
1.878787878787879
2.053763440860215
2.2385141739980448
2.41544477028348
2.5718475073313782
2.678396871945259
2.7419354838709675
2.787878787878788
2.8103616813294234
2.8084066471163247
2.7859237536656893
2.745845552297165
2.696969696969697
2.6402737047898337
2.5718475073313782
2.4975562072336266
2.418377321603128
2.3362658846529816
2.2531769305962857
2.16911045943304
2.085043988269794
2.002932551319648
1.921798631476051
1.8406647116324533
1.7702834799608993
1.7038123167155426
1.629521016617791
1.552297165200391
1.474095796676442
1.396871945259042
1.321603128054741
1.2482893450635386
1.1798631476050832
1.1163245356793745
1.0606060606060606
1.013685239491691
0.9775171065493646
0.956989247311828
0.9501466275659824
0.9530791788856304
0.9667644183773216
0.9902248289345064
1.0234604105571847
1.0635386119257086
1.1055718475073313
1.1466275659824048
1.1857282502443791
1.2189638318670577
1.24633431085044
1.2668621700879763
1.2825024437927663
1.2942326490713587
1.3010752688172045
1.3040078201368523
1.3020527859237536
1.2942326490713587
1.2795698924731185
1.262952101661779
1.2482893450635386
1.2434017595307918
1.2570869990224829
1.2864125122189638
1.3411534701857282
1.4349951124144673
1.565982404692082
1.7272727272727273
1.9071358748778104
2.089931573802541
2.26197458455523
2.4115347018572826
2.5317693059628543
2.6207233626588464
2.678396871945259
2.704789833822092
2.705767350928641
2.6881720430107525
2.6559139784946235
2.608993157380254
2.5513196480938416
2.4858260019550342
2.4134897360703813
2.3362658846529816
2.257086999022483
2.174975562072336
2.09188660801564
2.006842619745845
1.932551319648094
1.8631476050830889
1.7869012707722385
1.70772238514174
1.6265884652981428
1.5454545454545454
1.4643206256109482
1.3841642228739004
1.3069403714565004
1.2326490713587488
1.1622678396871946
1.0957966764418376
1.035190615835777
0.989247311827957
0.95405669599218
0.9208211143695014
0.895405669599218
0.8797653958944281
0.8758553274682307
0.8836754643206256
0.9022482893450636
0.9286412512218964
0.9608993157380256
0.9951124144672532
1.0283479960899315
1.0586510263929618
1.086021505376344
1.1094819159335287
1.1280547409579669
1.142717497556207
1.152492668621701
1.1573802541544478
1.1573802541544478
1.1534701857282503
1.1456500488758554
1.133919843597263
1.1221896383186705
1.118279569892473
1.126099706744868
1.152492668621701
1.206256109481916
1.2942326490713587
1.4173998044965788
1.5698924731182795
1.7429130009775171
1.924731182795699
2.1006842619745845
2.2580645161290325
2.388074291300098
2.4858260019550342
2.5454545454545454
2.5747800586510263
2.5835777126099706
2.5718475073313782
2.541544477028348
2.4946236559139785
2.436950146627566
2.3714565004887587
2.300097751710655
2.2267839687194524
2.1524926686217007
2.0772238514174
2.0009775171065494
1.9345063538611929
1.8748778103616808
1.8093841642228736
1.7419354838709675
1.6735092864125125
1.6050830889540566
1.5356793743890518
1.4672531769305963
1.3998044965786902
1.335288367546432
1.273704789833822
1.2150537634408602
1.1681329423264908
1.1290322580645162
1.088954056695992
1.050830889540567
1.018572825024438
0.9960899315738024
0.9853372434017597
0.9853372434017597
0.997067448680352
1.0205278592375366
1.0518084066471165
1.088954056695992
1.1290322580645162
1.166177908113392
1.2003910068426198
1.2346041055718475
1.2668621700879763
1.2942326490713587
1.316715542521994
1.3343108504398826
1.3470185728250244
1.3548387096774193
1.356793743890518
1.35386119257087
1.346041055718475
1.33822091886608
1.3313782991202343
1.3264907135874875
1.332355816226784
1.3587487781036167
1.414467253176931
1.504398826979472
1.629521016617791
1.7859237536656891
1.9618768328445748
2.142717497556207
2.314760508308896
2.4652981427174976
2.575757575757576
2.652003910068426
2.708699902248289
2.740957966764418
2.747800586510264
2.732160312805474
2.699902248289345
2.654936461388074
2.6021505376344085
2.5434995112414467
2.4809384164222874
2.41544477028348
2.355816226783969
2.2981427174975564
2.2346041055718477
2.1681329423264906
2.099706744868035
2.029325513196481
1.9579667644183771
1.884652981427175
1.8103616813294232
1.7350928641251222
1.6598240469208212
1.5865102639296187
1.5141739980449658
1.452590420332356
1.3988269794721409
1.3411534701857282
1.2834799608993157
1.2287390029325511
1.1788856304985338
1.1368523949169111
1.104594330400782
1.0821114369501466
1.0694037145650048
1.067448680351906
1.0772238514173995
1.093841642228739
1.1163245356793745
1.1456500488758554
1.1788856304985338
1.2121212121212122
1.2434017595307918
1.2727272727272727
1.2971652003910068
1.3157380254154447
1.327468230694037
1.3333333333333333
1.3343108504398826
1.3284457478005864
1.321603128054741
1.3118279569892473
1.2942326490713587
1.2746823069403714
1.260019550342131
1.2609970674486803
1.2883675464320623
1.348973607038123
1.4467253176930597
1.5777126099706744
1.7350928641251222
1.906158357771261
2.093841642228739
2.281524926686217
2.441837732160313
2.572825024437928
2.6715542521994133
2.73802541544477
2.773216031280548
2.782013685239492
2.768328445747801
2.736070381231672
2.6901270772238512
2.633431085043988
2.56891495601173
2.506353861192571
2.444770283479961
2.377321603128055
2.3059628543499517
2.232649071358749
2.158357771260997
2.0840664711632453
2.0087976539589443
1.932551319648094
1.855327468230694
1.7781036168132942
1.7028347996089932
1.6383186705767352
1.5806451612903225
1.5180840664711632
1.455522971652004
1.392961876832845
1.3313782991202343
1.2727272727272727
1.2179863147605083
1.1681329423264908
1.1251221896383188
1.0909090909090908
1.067448680351906
1.0576735092864125
1.0586510263929618
1.067448680351906
1.0850439882697946
1.1094819159335287
1.1397849462365592
1.1720430107526882
1.203323558162268
1.2326490713587488
1.2590420332355816
1.2795698924731185
1.2942326490713587
1.303030303030303
1.3079178885630498
1.3098729227761483
1.3049853372434017
1.2942326490713587
1.278592375366569
1.2590420332355816
1.238514173998045
1.2238514173998043
1.2228739002932552
1.2443792766373412
1.2942326490713587
1.3773216031280548
1.4731182795698925
1.585532746823069
1.7282502443792769
1.884652981427175
2.040078201368524
2.1818181818181817
2.2991202346041058
2.388074291300098
2.44672531769306
2.4760508308895406
2.47702834799609
2.4545454545454546
2.4134897360703813
2.3655913978494625
2.3118279569892475
2.2482893450635384
2.179863147605083
2.110459433040078
2.0410557184750733
1.9736070381231672
1.90811339198436
1.8435972629521016
1.7810361681329423
1.7194525904203324
1.6588465298142718
1.6080156402737047
1.5620723362658846
1.512218963831867
1.4613880742913
1.412512218963832
1.364613880742913
1.3186705767350928
1.2746823069403714
1.2346041055718475
1.1994134897360704
1.1691104594330402
1.144672531769306
1.1270772238514175
1.1192570869990224
1.1192570869990224
1.1251221896383188
1.1378299120234605
1.1564027370478984
1.1798631476050832
1.2072336265884651
1.2346041055718475
1.2619745845552297
1.2873900293255132
1.3098729227761483
1.3304007820136852
1.3470185728250244
1.3616813294232648
1.3724340175953078
1.3792766373411536
1.383186705767351
1.383186705767351
1.3792766373411536
1.3714565004887584
1.3626588465298142
1.356793743890518
1.3616813294232648
1.3870967741935485
1.4389051808406648
1.5063538611925709
1.5933528836754642
1.715542521994135
1.8631476050830889
2.024437927663734
2.185728250244379
2.333333333333333
2.458455522971652
2.5562072336265884
2.6236559139784945
2.662756598240469
2.675464320625611
2.668621700879765
2.644183773216031
2.6041055718475072
2.5513196480938416
2.487781036168133
2.418377321603128
2.346041055718475
2.272727272727273
2.2023460410557183
2.133919843597263
2.069403714565005
2.0097751710654936
1.9521016617790807
1.903225806451613
1.8592375366568916
1.8103616813294232
1.7595307917888563
1.7067448680351909
1.6529814271749756
1.5992179863147604
1.5464320625610948
1.4946236559139785
1.444770283479961
1.396871945259042
1.3528836754643203
1.3206256109481915
1.2971652003910068
1.2776148582600195
1.2639296187683284
1.260019550342131
1.2649071358748778
1.278592375366569
1.2991202346041055
1.324535679374389
1.3519061583577712
1.3792766373411536
1.4037145650048877
1.423264907135875
1.439882697947214
1.452590420332356
1.4604105571847508
1.4643206256109482
1.466275659824047
1.4652981427174976
1.4633431085043989
1.4594330400782014
1.4516129032258065
1.4408602150537635
1.43108504398827
1.4281524926686218
1.435972629521017
1.4604105571847508
1.5112414467253177
1.5943304007820136
1.7096774193548387
1.8494623655913975
2.005865102639296
2.167155425219941
2.320625610948192
2.4565004887585533
2.565982404692082
2.64613880742913
2.697947214076246
2.720430107526881
2.720430107526881
2.704789833822092
2.674486803519061
2.633431085043988
2.58455522971652
2.530791788856305
2.474095796676442
2.4144672531769307
2.35386119257087
2.29227761485826
2.2297165200391005
2.1739980449657867
2.1221896383186705
2.065493646138808
2.005865102639296
1.946236559139785
1.8875855327468232
1.827956989247312
1.76930596285435
1.6823069403714566
1.6236559139784943
1.5650048875855327
1.4809384164222874
1.434017595307918
1.393939393939394
1.3519061583577712
1.2971652003910068
1.2697947214076246
1.2531769305962854
1.2502443792766371
1.262952101661779
1.281524926686217
1.3294232649071358
1.35386119257087
1.3763440860215057
1.4056695992179864
1.4203323558162269
1.43108504398827
1.4379276637341154
1.4418377321603129
1.4408602150537635
1.4349951124144673
1.4242424242424243
1.409579667644184
1.3958944281524928
1.3890518084066472
1.3900293255131966
1.404692082111437
1.4437927663734116
1.5141739980449658
1.6177908113391983
1.7712609970674489
1.962854349951124
2.160312805474096
2.350928641251222
2.52297165200391
2.667644183773216
2.7702834799608995
2.838709677419355
2.8905180840664717
2.919843597262952
2.9266862170087977
2.913978494623656
2.8856304985337244
2.843597262952102
2.790811339198436
2.7311827956989245
2.665689149560117
2.5962854349951123
2.5317693059628543
2.469208211143695
2.40078201368524
2.329423264907136
2.2551319648093844
2.179863147605083
2.103616813294233
2.027370478983382
1.9501466275659824
1.871945259042033
1.7947214076246334
1.718475073313783
1.6441837732160314
1.581622678396872
1.5268817204301075
1.4682306940371457
1.4105571847507332
1.3558162267839686
1.3079178885630498
1.267839687194526
1.2375366568914956
1.2209188660801564
1.2150537634408602
1.2209188660801564
1.2375366568914956
1.2609970674486803
1.2883675464320623
1.3196480938416422
1.3509286412512218
1.3792766373411536
1.4056695992179864
1.4281524926686218
1.4467253176930597
1.4604105571847508
1.4701857282502444
1.4760508308895406
1.478005865102639
1.4760508308895406
1.4731182795698925
1.469208211143695
1.4633431085043989
1.4604105571847508
1.4711632453567938
1.504398826979472
1.5679374389051808
1.6666666666666667
1.801564027370479
1.9657869012707725
2.150537634408602
2.3411534701857284
2.501466275659824
2.634408602150537
2.760508308895406
2.8641251221896384
2.9374389051808407
2.979472140762464
2.992179863147605
2.978494623655914
2.9423264907135875
2.8914956011730206
2.83088954056696
2.764418377321604
2.6940371456500487
2.627565982404692
2.5620723362658846
2.490713587487781
2.41544477028348
2.337243401759531
2.2561094819159337
2.174975562072336
2.093841642228739
2.0127077223851417
1.932551319648094
1.8543499511241448
1.7771260997067448
1.7096774193548387
1.6490713587487782
1.581622678396872
1.5131964809384164
1.4457478005865103
1.3841642228739004
1.327468230694037
1.278592375366569
1.2394916911045943
1.2111436950146628
1.1945259042033236
1.1896383186705768
1.195503421309873
1.2082111436950147
1.2287390029325511
1.2541544477028348
1.2825024437927663
1.310850439882698
1.3372434017595307
1.3587487781036167
1.3743890518084063
1.383186705767351
1.3870967741935485
1.3870967741935485
1.3851417399804498
1.383186705767351
1.380254154447703
1.3714565004887584
1.3577712609970674
1.3411534701857282
1.3264907135874875
1.3206256109481915
1.3333333333333333
1.3734115347018572
1.447702834799609
1.5581622678396871
1.7028347996089932
1.873900293255132
2.035190615835777
2.1867057673509285
2.3489736070381237
2.5024437927663734
2.633431085043988
2.7331378299120237
2.80058651026393
2.8367546432062563
2.8455522971652005
2.83088954056696
2.7966764418377323
2.748778103616813
2.696969696969697
2.6402737047898337
2.5747800586510263
2.505376344086021
2.43108504398827
2.3548387096774195
2.278592375366569
2.2023460410557183
2.1251221896383186
2.048875855327468
1.9716520039100685
1.8934506353861196
1.81524926686217
1.7487781036168133
1.6881720430107527
1.6226783968719452
1.5581622678396871
1.495601173020528
1.436950146627566
1.3812316715542523
1.3304007820136852
1.2864125122189638
1.249266862170088
1.2228739002932552
1.2072336265884651
1.203323558162268
1.209188660801564
1.2228739002932552
1.2453567937438903
1.2756598240469208
1.310850439882698
1.346041055718475
1.380254154447703
1.412512218963832
1.4418377321603129
1.4672531769305963
1.487781036168133
1.5053763440860215
1.5190615835777126
1.5288367546432062
1.533724340175953
1.533724340175953
1.5298142717497556
1.521994134897361
1.5141739980449658
1.5131964809384164
1.5268817204301075
1.5650048875855327
1.6344086021505375
1.739980449657869
1.857282502443793
1.9902248289345064
2.1593352883675463
2.347018572825025
2.535679374389052
2.7096774193548385
2.857282502443793
2.970674486803519
3.0498533724340176
3.093841642228739
3.1065493646138806
3.093841642228739
3.059628543499511
3.0146627565982405
2.961876832844575
2.8993157380254155
2.8289345063538613
2.7546432062561097
2.678396871945259
2.5992179863147604
2.517106549364614
2.432062561094819
2.347018572825025
2.26197458455523
2.177908113391984
2.103616813294233
2.035190615835777
1.959921798631476
1.8797653958944285
1.7986314760508308
1.7174975562072337
1.6392961876832846
1.5650048875855327
1.4936461388074291
1.4271749755620724
1.3665689149560116
1.3147605083088951
1.2766373411534702
1.2502443792766371
1.2287390029325511
1.2160312805474096
1.2130987292277615
1.219941348973607
1.2365591397849462
1.2609970674486803
1.2913000977517106
1.324535679374389
1.356793743890518
1.3870967741935485
1.4134897360703813
1.435972629521017
1.4535679374389052
1.4672531769305963
1.4760508308895406
1.4809384164222874
1.4809384164222874
1.4760508308895406
1.4672531769305963
1.455522971652004
1.444770283479961
1.4437927663734116
1.4633431085043989
1.499511241446725
1.517106549364614
1.555229716520039
1.6637341153470186
1.8201368523949168
2.003910068426197
2.1945259042033234
2.375366568914956
2.5347018572825024
2.664711632453568
2.760508308895406
2.8211143695014664
2.849462365591398
2.850439882697948
2.832844574780059
2.798631476050831
2.750733137829912
2.6930596285435
2.625610948191593
2.5513196480938416
2.4731182795698925
2.3929618768328447
2.3118279569892475
2.231671554252199
2.1515151515151514
2.080156402737048
2.013685239491691
1.9403714565004888
1.8631476050830889
1.7849462365591398
1.704789833822092
