ppg
1.270772238514174
1.2717497556207231
1.2688172043010753
1.262952101661779
1.2551319648093842
1.2482893450635386
1.241446725317693
1.2355816226783969
1.2287390029325511
1.2228739002932552
1.217008797653959
1.2121212121212122
1.2130987292277615
1.2150537634408602
1.2160312805474096
1.2179863147605083
1.2189638318670577
1.2209188660801564
1.2238514173998043
1.2267839687194526
1.2297165200391007
1.2326490713587488
1.2375366568914956
1.2424242424242424
1.2512218963831867
1.2668621700879763
1.2981427174975562
1.3558162267839686
1.4457478005865103
1.573802541544477
1.739980449657869
1.935483870967742
2.1495601173020527
2.36950146627566
2.581622678396872
2.7722385141739982
2.936461388074292
3.058651026392962
3.145650048875855
3.2218963831867056
3.2825024437927666
3.3255131964809386
3.3548387096774195
3.372434017595308
3.3812316715542523
3.386119257086999
3.388074291300098
3.389051808406647
3.388074291300098
3.3822091886608017
3.3685239491691106
3.350928641251222
3.334310850439883
3.314760508308896
3.289345063538612
3.2561094819159337
3.217986314760508
3.1739980449657867
3.118279569892473
3.0527859237536656
2.978494623655914
2.8944281524926687
2.812316715542522
2.7341153470185726
2.6510263929618767
2.56891495601173
2.4916911045943304
2.420332355816227
2.3548387096774195
2.2981427174975564
2.2521994134897363
2.21505376344086
2.1847507331378297
2.158357771260997
2.133919843597263
2.110459433040078
2.0879765395894427
2.064516129032258
2.040078201368524
2.01564027370479
1.992179863147605
1.970674486803519
1.949169110459433
1.9257086999022484
1.903225806451613
1.8797653958944285
1.8533724340175952
1.83088954056696
1.8103616813294232
1.7878787878787878
1.7634408602150538
1.7390029325513197
1.7145650048875856
1.6881720430107527
1.6627565982404693
1.6392961876832846
1.6148582600195502
1.5884652981427174
1.5610948191593352
1.5376344086021505
1.517106549364614
1.4936461388074291
1.4721407624633431
1.455522971652004
1.4408602150537635
1.4271749755620724
1.414467253176931
1.401759530791789
1.3890518084066472
1.3763440860215057
1.3636363636363635
1.3509286412512218
1.3421309872922775
1.3343108504398826
1.3235581622678396
1.3118279569892473
1.300097751710655
1.2883675464320623
1.2756598240469208
1.2649071358748778
1.2531769305962854
1.241446725317693
1.2287390029325511
1.2160312805474096
1.2101661779081134
1.2072336265884651
1.2072336265884651
1.219941348973607
1.2541544477028348
1.3186705767350928
1.418377321603128
1.552297165200391
1.7145650048875856
1.8944281524926687
2.0772238514174
2.2502443792766376
2.4027370478983383
2.515151515151515
2.598240469208211
2.670576735092864
2.727272727272727
2.7653958944281527
2.7859237536656893
2.7947214076246336
2.792766373411535
2.782013685239492
2.764418377321604
2.739980449657869
2.7116324535679373
2.6823069403714563
2.652003910068426
2.6207233626588464
2.5884652981427174
2.5532746823069403
2.517106549364614
2.4780058651026398
2.434017595307918
2.380254154447703
2.318670576735093
2.249266862170088
2.1681329423264906
2.081133919843597
2.0009775171065494
1.9266862170087975
1.8455522971652003
1.7624633431085044
1.6852394916911049
1.6187683284457477
1.563049853372434
1.5180840664711632
1.4848484848484849
1.4623655913978495
1.444770283479961
1.4291300097751711
1.418377321603128
1.4086021505376345
1.3958944281524928
1.380254154447703
1.3626588465298142
1.3479960899315735
1.3313782991202343
1.3118279569892473
1.2913000977517106
1.2697947214076246
1.249266862170088
1.227761485826002
1.2052785923753666
1.187683284457478
1.1720430107526882
1.1515151515151516
1.130987292277615
1.1094819159335287
1.0879765395894427
1.0694037145650048
1.053763440860215
1.0391006842619743
1.0254154447702837
1.0127077223851415
1.0
0.9921798631476052
0.9863147605083088
0.9775171065493646
0.9667644183773216
0.9550342130987292
0.9433040078201368
0.9345063538611924
0.9266862170087976
0.9178885630498532
0.9100684261974584
0.9032258064516128
0.8963831867057673
0.8885630498533724
0.884652981427175
0.8826979472140762
0.8787878787878788
0.8768328445747801
0.8758553274682307
0.8748778103616813
0.8748778103616813
0.8748778103616813
0.8729227761485826
0.8690127077223851
0.8651026392961877
0.863147605083089
0.8641251221896383
0.8660801564027371
0.8690127077223851
0.8797653958944281
0.9071358748778104
0.9579667644183774
1.0420332355816226
1.1622678396871946
1.3196480938416422
1.5063538611925709
1.7086999022482894
1.9159335288367547
2.115347018572825
2.275659824046921
2.4027370478983383
2.520039100684262
2.6158357771261
2.689149560117302
2.73802541544477
2.7673509286412514
2.782013685239492
2.7859237536656893
2.78494623655914
2.782013685239492
2.777126099706745
2.768328445747801
2.7546432062561097
2.73802541544477
2.720430107526881
2.701857282502444
2.6803519061583576
2.5972629521016617
2.4838709677419355
2.409579667644184
2.3519061583577714
2.2991202346041058
2.2453567937438903
2.187683284457478
2.132942326490713
2.078201368523949
2.0175953079178885
1.9550342130987293
1.8905180840664717
1.8269794721407624
1.7683284457478006
1.7165200391006843
1.6735092864125125
1.6383186705767352
1.6099706744868034
1.587487781036168
1.5708699902248289
1.5571847507331378
1.543499511241447
1.530791788856305
1.5180840664711632
1.504398826979472
1.4897360703812317
1.4760508308895406
1.4643206256109482
1.4535679374389052
1.4428152492668622
1.4330400782013686
1.423264907135875
1.41544477028348
1.409579667644184
1.401759530791789
1.3900293255131966
1.3743890518084063
1.3577712609970674
1.343108504398827
1.3294232649071358
1.3176930596285434
1.3088954056695992
1.3020527859237536
1.2961876832844574
1.2932551319648091
1.29227761485826
1.289345063538612
1.2854349951124144
1.2825024437927663
1.2795698924731185
1.2756598240469208
1.270772238514174
1.2658846529814272
1.2609970674486803
1.2561094819159335
1.2512218963831867
1.2502443792766371
1.252199413489736
1.2541544477028348
1.2570869990224829
1.2580645161290325
1.2590420332355816
1.2590420332355816
1.2590420332355816
1.2590420332355816
1.2580645161290325
1.2551319648093842
1.2502443792766371
1.2453567937438903
1.2434017595307918
1.2424242424242424
1.241446725317693
1.2473118279569892
1.2668621700879763
1.3079178885630498
1.375366568914956
1.4701857282502444
1.587487781036168
1.7233626588465298
1.8670576735092863
2.0097751710654936
2.1280547409579667
2.2248289345063537
2.317693059628544
2.3958944281524928
2.4574780058651027
2.5024437927663734
2.5288367546432062
2.5405669599217986
2.541544477028348
2.5347018572825024
2.52297165200391
2.50733137829912
2.489736070381232
2.4711632453567938
2.4516129032258065
2.432062561094819
2.4115347018572826
2.391006842619746
2.36950146627566
2.345063538611926
2.315738025415445
2.2795698924731185
2.2385141739980448
2.1915933528836757
2.1388074291300097
2.086021505376344
2.032258064516129
1.9696969696969695
1.900293255131965
1.83088954056696
1.7653958944281525
1.7057673509286413
1.6549364613880744
1.6138807429130009
1.5806451612903225
1.555229716520039
1.5347018572825024
1.517106549364614
1.504398826979472
1.4946236559139785
1.4848484848484849
1.4760508308895406
1.4672531769305963
1.457478005865103
1.447702834799609
1.4349951124144673
1.4203323558162269
1.404692082111437
1.388074291300098
1.3714565004887584
1.3587487781036167
1.346041055718475
1.3313782991202343
1.3157380254154447
1.3020527859237536
1.2903225806451613
1.278592375366569
1.2649071358748778
1.252199413489736
1.2404692082111437
1.2297165200391007
1.219941348973607
1.2111436950146628
1.2052785923753666
1.1994134897360704
1.1906158357771262
1.1798631476050832
1.1700879765395895
1.160312805474096
1.1515151515151516
1.1456500488758554
1.141739980449658
1.13880742913001
1.1368523949169111
1.1358748778103618
1.1378299120234605
1.141739980449658
1.1456500488758554
1.1505376344086022
1.1534701857282503
1.1573802541544478
1.1622678396871946
1.1671554252199414
1.1720430107526882
1.176930596285435
1.181818181818182
1.1867057673509287
1.1896383186705768
1.1906158357771262
1.1935483870967742
1.1994134897360704
1.2121212121212122
1.2394916911045943
1.289345063538612
1.3665689149560116
1.4701857282502444
1.5972629521016617
1.7409579667644184
1.8905180840664717
2.037145650048876
2.156402737047898
2.2521994134897363
2.3421309872922778
2.419354838709677
2.4809384164222874
2.5239491691104594
2.550342130987292
2.563049853372434
2.565982404692082
2.560117302052786
2.548387096774193
2.535679374389052
2.5210166177908118
2.505376344086021
2.4887585532746823
2.4731182795698925
2.4574780058651027
2.439882697947214
2.419354838709677
2.3949169110459434
2.366568914956012
2.332355816226784
2.2932551319648096
2.249266862170088
2.1974584555229715
2.144672531769306
2.090909090909091
2.0283479960899315
1.962854349951124
1.8973607038123168
1.833822091886608
1.7732160312805474
1.7194525904203324
1.675464320625611
1.6412512218963833
1.6148582600195502
1.5962854349951123
1.5826001955034212
1.5747800586510263
1.5669599217986314
1.555229716520039
1.543499511241447
1.5327468230694037
1.521016617790811
1.5102639296187683
1.500488758553275
1.4887585532746823
1.478005865102639
1.4682306940371457
1.458455522971652
1.4506353861192571
1.4428152492668622
1.43108504398827
1.4193548387096775
1.4086021505376345
1.3988269794721409
1.388074291300098
1.3792766373411536
1.3714565004887584
1.3626588465298142
1.3528836754643203
1.343108504398827
1.3333333333333333
1.3264907135874875
1.321603128054741
1.316715542521994
1.3128054740957966
1.310850439882698
1.3098729227761483
1.3088954056695992
1.3088954056695992
1.3088954056695992
1.3088954056695992
1.3088954056695992
1.3088954056695992
1.2913000977517106
1.2658846529814272
1.2531769305962854
1.2453567937438903
1.2375366568914956
1.2336265884652982
1.2336265884652982
1.2355816226783969
1.238514173998045
1.2394916911045943
1.2404692082111437
1.2404692082111437
1.2404692082111437
1.2404692082111437
1.2404692082111437
1.2404692082111437
1.2424242424242424
1.2531769305962854
1.2834799608993157
1.3411534701857282
1.434017595307918
1.5591397849462365
1.7145650048875856
1.8914956011730208
2.0762463343108504
2.2346041055718477
2.3685239491691106
2.5004887585532747
2.6148582600195502
2.701857282502444
2.758553274682307
2.790811339198436
2.801564027370479
2.7947214076246336
2.776148582600196
2.748778103616813
2.716520039100684
2.681329423264907
2.6451612903225805
2.606060606060606
2.567937438905181
2.5317693059628543
2.496578690127077
2.458455522971652
2.4134897360703813
2.363636363636364
2.30791788856305
2.2453567937438903
2.177908113391984
2.104594330400782
2.035190615835777
1.9716520039100685
1.905180840664712
1.8377321603128052
1.7732160312805474
1.718475073313783
1.6774193548387095
1.64613880742913
1.6236559139784943
1.608993157380254
1.598240469208211
1.5894428152492668
1.5835777126099706
1.5786901270772238
1.5718475073313782
1.5591397849462365
1.542521994134897
1.5239491691104594
1.5024437927663734
1.478005865102639
1.4535679374389052
1.43108504398827
1.409579667644184
1.3890518084066472
1.370478983382209
1.3577712609970674
1.346041055718475
1.3294232649071358
1.3128054740957966
1.2971652003910068
1.2825024437927663
1.2688172043010753
1.2561094819159335
1.24633431085044
1.238514173998045
1.227761485826002
1.2150537634408602
1.209188660801564
1.206256109481916
1.2013685239491692
1.195503421309873
1.1925708699902249
1.1945259042033236
1.198435972629521
1.2043010752688172
1.2101661779081134
1.217008797653959
1.2218963831867058
1.2228739002932552
1.2228739002932552
1.2267839687194526
1.2316715542521994
1.2365591397849462
1.238514173998045
1.2394916911045943
1.2404692082111437
1.2404692082111437
1.2404692082111437
1.2404692082111437
1.2404692082111437
1.2404692082111437
1.2404692082111437
1.2404692082111437
1.238514173998045
1.2346041055718475
1.2326490713587488
1.2346041055718475
1.24633431085044
1.2795698924731185
1.3440860215053765
1.4457478005865103
1.585532746823069
1.758553274682307
1.9530791788856303
2.155425219941349
2.3255131964809386
2.469208211143695
2.6099706744868034
2.7311827956989245
2.8299120234604107
2.903225806451613
2.952101661779081
2.9804496578690127
2.991202346041056
2.989247311827957
2.981427174975562
2.9687194525904204
2.9501466275659824
2.9286412512218964
2.906158357771261
2.881720430107527
2.8533724340175954
2.822091886608016
2.789833822091887
2.755620723362659
2.720430107526881
2.678396871945259
2.6285434995112413
2.570869990224829
2.505376344086021
2.439882697947214
2.3734115347018574
2.2952101661779083
2.2082111436950145
2.114369501466276
2.0195503421309877
1.9286412512218964
1.842619745845552
1.7634408602150538
1.6950146627565983
1.6363636363636365
1.590420332355816
1.5581622678396871
1.5356793743890518
1.5141739980449658
1.4926686217008798
1.4731182795698925
1.456500488758553
1.4418377321603129
1.4271749755620724
1.4134897360703813
1.3998044965786902
1.3861192570869991
1.370478983382209
1.35386119257087
1.3401759530791788
1.3264907135874875
1.3079178885630498
1.2883675464320623
1.2697947214076246
1.252199413489736
1.2346041055718475
1.217008797653959
1.1994134897360704
1.1837732160312806
1.1710654936461389
1.1583577712609971
1.1495601173020529
1.1456500488758554
1.1397849462365592
1.133919843597263
1.1270772238514175
1.1202346041055715
1.1133919843597262
1.1065493646138806
1.099706744868035
1.088954056695992
1.0772238514173995
1.067448680351906
1.0596285434995112
1.0557184750733135
1.0557184750733135
1.0557184750733135
1.056695992179863
1.0596285434995112
1.0606060606060606
1.06158357771261
1.06158357771261
1.06158357771261
1.0596285434995112
1.0557184750733135
1.0498533724340176
1.04594330400782
1.0420332355816226
1.040078201368524
1.0488758553274682
1.0791788856304985
1.1397849462365592
1.2365591397849462
1.3724340175953078
1.5386119257087
1.7243401759530792
1.9188660801564028
2.10752688172043
2.278592375366569
2.409579667644184
2.50733137829912
2.5943304007820136
2.659824046920821
2.7008797653958942
2.721407624633431
2.7282502443792764
2.727272727272727
2.719452590420332
2.7067448680351904
2.689149560117302
2.6666666666666665
2.641251221896383
2.6129032258064515
2.579667644183773
2.5464320625610948
2.5141739980449658
2.4809384164222874
2.443792766373412
2.398826979472141
2.3489736070381237
2.2932551319648096
2.2277614858260018
2.1515151515151514
2.067448680351906
1.9872922776148585
1.90811339198436
1.818181818181818
1.7272727272727273
1.6392961876832846
1.5591397849462365
1.4819159335288368
1.4115347018572826
1.3577712609970674
1.3147605083088951
1.281524926686217
1.2561094819159335
1.2394916911045943
1.227761485826002
1.217008797653959
1.2082111436950147
1.2003910068426198
1.1925708699902249
1.1857282502443791
1.1779081133919844
1.1710654936461389
1.164222873900293
1.1573802541544478
1.1505376344086022
1.1466275659824048
1.1466275659824048
1.144672531769306
1.1407624633431086
1.1348973607038124
1.1280547409579669
1.121212121212121
1.121212121212121
1.121212121212121
1.121212121212121
1.121212121212121
1.121212121212121
1.121212121212121
1.121212121212121
1.1378299120234605
1.1456500488758554
1.1622678396871946
1.1945259042033236
1.252199413489736
1.3440860215053765
1.4721407624633431
1.6314760508308896
1.8142717497556209
2.006842619745845
2.193548387096774
2.343108504398827
2.4613880742913
2.570869990224829
2.658846529814272
2.721407624633431
2.760508308895406
2.776148582600196
2.7751710654936463
2.7624633431085046
2.745845552297165
2.727272727272727
2.7038123167155423
2.678396871945259
2.6510263929618767
2.6236559139784945
2.592375366568915
2.558162267839687
2.52297165200391
2.486803519061584
2.4457478005865103
2.3978494623655915
2.340175953079179
2.272727272727273
2.1955034213098727
2.1114369501466275
2.0332355816226784
1.956989247311828
1.8758553274682308
1.793743890518084
1.715542521994135
1.6490713587487782
1.5933528836754642
1.5464320625610948
1.5073313782991202
1.4750733137829912
1.4516129032258065
1.4389051808406648
1.4301075268817205
1.426197458455523
1.4222873900293256
1.4173998044965788
1.4115347018572826
1.4007820136852396
1.3870967741935485
1.3695014662756595
1.3509286412512218
1.3304007820136852
1.3098729227761483
1.289345063538612
1.2688172043010753
1.2531769305962854
1.238514173998045
1.2218963831867058
1.2072336265884651
1.1925708699902249
1.1779081133919844
1.164222873900293
1.1505376344086022
1.1358748778103618
1.1251221896383188
1.1163245356793745
1.1085043988269794
1.099706744868035
1.0918866080156402
1.086021505376344
1.0801564027370478
1.0713587487781036
1.0606060606060606
1.0498533724340176
1.0391006842619743
1.024437927663734
1.010752688172043
0.9990224828934506
0.989247311827957
0.9843597262952102
0.9853372434017597
0.989247311827957
0.9912023460410556
0.9921798631476052
0.9931573802541545
0.9931573802541545
0.9912023460410556
0.9872922776148584
0.9794721407624634
0.9687194525904204
0.956989247311828
0.9442815249266864
0.9345063538611924
0.9325513196480938
0.9403714565004888
0.9618768328445748
1.0068426197458455
1.0850439882697946
1.1974584555229717
1.3391984359726294
1.504398826979472
1.6793743890518085
1.8504398826979471
2.0087976539589443
2.145650048875855
2.247311827956989
2.3225806451612905
2.386119257086999
2.434017595307918
2.464320625610948
2.479960899315738
2.4838709677419355
2.482893450635386
2.4750733137829912
2.4604105571847508
2.442815249266862
2.4242424242424243
2.403714565004888
2.383186705767351
2.358748778103617
2.3313782991202348
2.304007820136853
2.272727272727273
2.2355816226783967
2.1925708699902247
2.1436950146627565
2.089931573802541
2.027370478983382
1.9579667644183771
1.8836754643206255
1.8132942326490715
1.7429130009775171
1.6627565982404693
1.5786901270772238
1.498533724340176
1.423264907135875
1.3528836754643203
1.2913000977517106
1.241446725317693
1.2023460410557183
1.1730205278592376
1.1515151515151516
1.1368523949169111
1.1290322580645162
1.1241446725317692
1.1143695014662756
1.1006842619745845
1.0840664711632453
1.064516129032258
1.04594330400782
1.0303030303030305
1.0156402737047898
1.002932551319648
0.9931573802541545
0.9843597262952102
0.981427174975562
0.9804496578690128
0.9765395894428152
0.9745845552297164
0.9736070381231672
0.9726295210166178
0.9726295210166178
0.9726295210166178
0.9745845552297164
0.9775171065493646
0.978494623655914
0.9804496578690128
0.9872922776148584
0.9921798631476052
0.9941348973607038
0.9951124144672532
0.9960899315738024
0.9960899315738024
0.9960899315738024
1.0
1.0039100684261977
1.0068426197458455
1.010752688172043
1.013685239491691
1.0195503421309873
1.0254154447702837
1.032258064516129
1.0371456500488758
1.0410557184750733
1.0469208211143697
1.0527859237536656
1.0596285434995112
1.064516129032258
1.0694037145650048
1.0713587487781036
1.0684261974584557
1.0635386119257086
1.06158357771261
1.0840664711632453
1.1221896383186705
1.1583577712609971
1.209188660801564
1.289345063538612
1.401759530791789
1.5454545454545454
1.7135874877810362
1.8963831867057677
2.078201368523949
2.247311827956989
2.3958944281524928
2.505376344086021
2.58455522971652
2.650048875855328
2.695014662756598
2.721407624633431
2.7331378299120237
2.7331378299120237
2.7262952101661777
2.713587487781036
2.6959921798631474
2.675464320625611
2.653958944281525
2.632453567937439
2.613880742913001
2.5972629521016617
2.5777126099706744
2.5532746823069403
2.52297165200391
2.486803519061584
2.444770283479961
2.3958944281524928
2.3382209188660803
2.271749755620724
2.19941348973607
2.1221896383186705
2.053763440860215
1.9902248289345064
1.9188660801564028
1.8504398826979471
1.7878787878787878
1.7331378299120237
1.6852394916911049
1.6422287390029326
1.606060606060606
1.576735092864125
1.5562072336265884
1.544477028347996
1.5366568914956011
1.5288367546432062
1.5180840664711632
1.504398826979472
1.490713587487781
1.4760508308895406
1.4613880742913
1.4506353861192571
1.4418377321603129
1.4291300097751711
1.41544477028348
1.401759530791789
1.3870967741935485
1.3763440860215057
1.3665689149560116
1.3548387096774193
1.3411534701857282
1.327468230694037
1.3147605083088951
1.3049853372434017
1.2961876832844574
1.2883675464320623
1.2805474095796676
1.2727272727272727
1.2649071358748778
1.2609970674486803
1.2590420332355816
1.2541544477028348
1.2502443792766371
1.2482893450635386
1.2453567937438903
1.2424242424242424
1.2404692082111437
1.2394916911045943
1.2394916911045943
1.2394916911045943
1.2394916911045943
1.2394916911045943
1.2424242424242424
1.24633431085044
1.2482893450635386
1.249266862170088
1.24633431085044
1.2443792766373412
1.2434017595307918
1.2394916911045943
1.2336265884652982
1.2267839687194526
1.2179863147605083
1.2082111436950147
1.203323558162268
1.206256109481916
1.2228739002932552
1.262952101661779
1.3343108504398826
1.4428152492668622
1.5806451612903225
1.7390029325513197
1.9071358748778104
2.0733137829912023
2.2267839687194524
2.357771260997068
2.464320625610948
2.539589442815249
2.5884652981427174
2.6236559139784945
2.643206256109482
2.649071358748778
2.6451612903225805
2.631476050830889
2.613880742913001
2.595307917888563
2.578690127077224
2.5610948191593352
2.541544477028348
2.520039100684262
2.496578690127077
2.4701857282502444
2.441837732160313
2.412512218963832
2.3792766373411536
2.340175953079179
2.297165200391007
2.2453567937438903
2.1847507331378297
2.113391984359726
2.0332355816226784
1.948191593352884
1.871945259042033
1.8025415444770283
1.729227761485826
1.656891495601173
1.5913978494623655
1.533724340175953
1.4868035190615836
1.4496578690127078
1.4222873900293256
1.4007820136852396
1.383186705767351
1.3685239491691104
1.359726295210166
1.3548387096774193
1.3509286412512218
1.3450635386119256
1.3401759530791788
1.33822091886608
1.3372434017595307
1.3343108504398826
1.3294232649071358
1.3255131964809383
1.3196480938416422
1.3128054740957966
1.3088954056695992
1.3069403714565004
1.305962854349951
1.305962854349951
1.305962854349951
1.3040078201368523
1.303030303030303
1.3020527859237536
1.2981427174975562
1.29227761485826
1.289345063538612
1.2903225806451613
1.2903225806451613
1.29227761485826
1.2971652003910068
1.3010752688172045
1.303030303030303
1.3040078201368523
1.3049853372434017
1.3049853372434017
1.3049853372434017
1.3049853372434017
1.3049853372434017
1.3069403714565004
1.3196480938416422
1.3519061583577712
1.3978494623655917
1.4633431085043989
1.563049853372434
1.6911045943304008
1.8387096774193548
1.994134897360704
2.146627565982405
2.283479960899316
2.398826979472141
2.4916911045943304
2.560117302052786
2.606060606060606
2.63049853372434
2.6392961876832843
2.6402737047898337
2.636363636363636
2.627565982404692
2.611925708699902
2.592375366568915
2.5718475073313782
2.550342130987292
2.5288367546432062
2.506353861192571
2.4858260019550342
2.466275659824047
2.443792766373412
2.4134897360703813
2.376344086021505
2.3313782991202348
2.2795698924731185
2.2218963831867056
2.156402737047898
2.0840664711632453
2.010752688172043
1.9364613880742916
1.866080156402737
1.8035190615835777
1.7556207233626588
1.7204301075268815
1.6901270772238517
1.6637341153470186
1.6412512218963833
1.6226783968719452
1.607038123167155
1.5923753665689149
1.5777126099706744
1.5620723362658846
1.5493646138807429
1.5386119257087
1.5317693059628543
1.5288367546432062
1.5249266862170088
1.521016617790811
1.5161290322580645
1.5073313782991202
1.495601173020528
1.482893450635386
1.4682306940371457
1.4516129032258065
1.434017595307918
1.418377321603128
1.4027370478983383
1.3919843597262953
1.3822091886608017
1.3695014662756595
