ppg
2.2737047898338223
2.182795698924731
2.099706744868035
2.0205278592375366
1.932551319648094
1.842619745845552
1.75366568914956
1.6695992179863148
1.5913978494623655
1.5190615835777126
1.455522971652004
1.3988269794721409
1.3509286412512218
1.310850439882698
1.281524926686217
1.260019550342131
1.241446725317693
1.2267839687194526
1.217008797653959
1.2101661779081134
1.2052785923753666
1.2003910068426198
1.1964809384164223
1.1915933528836755
1.1857282502443791
1.1788856304985338
1.1700879765395895
1.163245356793744
1.1583577712609971
1.1505376344086022
1.1407624633431086
1.1290322580645162
1.1163245356793745
1.104594330400782
1.0918866080156402
1.0801564027370478
1.0694037145650048
1.0586510263929618
1.0488758553274682
1.043010752688172
1.0391006842619743
1.0332355816226784
1.0273704789833822
1.021505376344086
1.0166177908113392
1.0127077223851415
1.010752688172043
1.0097751710654936
1.0097751710654936
1.010752688172043
1.0127077223851415
1.0156402737047898
1.021505376344086
1.029325513196481
1.0371456500488758
1.0449657869012707
1.050830889540567
1.0547409579667644
1.056695992179863
1.0596285434995112
1.0684261974584557
1.093841642228739
1.144672531769306
1.2287390029325511
1.3284457478005864
1.4506353861192571
1.6187683284457477
1.818181818181818
2.03128054740958
2.241446725317693
2.4330400782013686
2.5943304007820136
2.721407624633431
2.8132942326490715
2.8719452590420333
2.9012707722385143
2.905180840664712
2.8905180840664717
2.865102639296188
2.827956989247312
2.782013685239492
2.7282502443792764
2.667644183773216
2.6021505376344085
2.530791788856305
2.4545454545454546
2.3304007820136854
2.242424242424242
2.156402737047898
2.037145650048876
1.951124144672532
1.86119257086999
1.772238514173998
1.686217008797654
1.6041055718475072
1.5288367546432062
1.4613880742913
1.401759530791789
1.3499511241446724
1.3069403714565004
1.2756598240469208
1.2531769305962854
1.2326490713587488
1.217008797653959
1.2052785923753666
1.1964809384164223
1.1915933528836755
1.187683284457478
1.1857282502443791
1.1827956989247312
1.1788856304985338
1.1749755620723363
1.1691104594330402
1.1652003910068427
1.1612903225806452
1.1544477028347997
1.1456500488758554
1.1358748778103618
1.1251221896383188
1.1143695014662756
1.1036168132942326
1.0928641251221896
1.0821114369501466
1.072336265884653
1.0635386119257086
1.0586510263929618
1.056695992179863
1.0527859237536656
1.0488758553274682
1.04594330400782
1.0439882697947214
1.043010752688172
1.0410557184750733
1.0410557184750733
1.0439882697947214
1.0478983382209188
1.0518084066471165
1.0576735092864125
1.0654936461388074
1.0742913000977516
1.0840664711632453
1.0928641251221896
1.099706744868035
1.104594330400782
1.1065493646138806
1.1094819159335287
1.118279569892473
1.142717497556207
1.1915933528836755
1.3225806451612905
1.434017595307918
1.5806451612903225
1.9745845552297163
2.190615835777126
2.396871945259042
2.664711632453568
2.798631476050831
2.8963831867057674
2.959921798631476
2.9980449657869013
2.997067448680352
2.9775171065493646
2.9286412512218964
2.8826979472140764
2.8289345063538613
2.76930596285435
2.7038123167155423
2.633431085043988
2.557184750733138
2.4760508308895406
2.391006842619746
2.3010752688172045
2.218963831867057
2.1388074291300097
2.050830889540567
1.959921798631476
1.868035190615836
1.780058651026393
1.6959921798631477
1.6187683284457477
1.5493646138807429
1.4887585532746823
1.435972629521017
1.3919843597262953
1.3558162267839686
1.3294232649071358
1.310850439882698
1.295210166177908
1.2834799608993157
1.273704789833822
1.2668621700879763
1.2609970674486803
1.2561094819159335
1.2512218963831867
1.24633431085044
1.241446725317693
1.2355816226783969
1.2316715542521994
1.2287390029325511
1.2218963831867058
1.2121212121212122
1.2003910068426198
1.187683284457478
1.173998044965787
1.1612903225806452
1.1505376344086022
1.1407624633431086
1.130987292277615
1.121212121212121
1.1124144672531768
1.1065493646138806
1.1036168132942326
1.099706744868035
1.0957966764418376
1.0918866080156402
1.0899315738025417
1.0879765395894427
1.0879765395894427
1.0879765395894427
1.088954056695992
1.0918866080156402
1.0948191593352885
1.099706744868035
1.1055718475073313
1.1124144672531768
1.118279569892473
1.1241446725317692
1.1290322580645162
1.1329423264907137
1.1348973607038124
1.1368523949169111
1.144672531769306
1.1671554252199414
1.2140762463343109
1.2971652003910068
1.396871945259042
1.521016617790811
1.694037145650049
1.8993157380254155
2.1192570869990224
2.3362658846529816
2.5347018572825024
2.7038123167155423
2.8367546432062563
2.9335288367546437
2.995112414467253
3.026392961876833
3.0303030303030303
3.0146627565982405
2.9872922776148583
2.948191593352884
2.900293255131965
2.844574780058651
2.782991202346041
2.7155425219941347
2.6422287390029324
2.5640273704789838
2.4809384164222874
2.393939393939394
2.303030303030303
2.219941348973607
2.1388074291300097
2.048875855327468
1.95405669599218
1.8592375366568916
1.7673509286412512
1.6803519061583578
1.5992179863147604
1.5249266862170088
1.4594330400782014
1.401759530791789
1.3519061583577712
1.3147605083088951
1.2873900293255132
1.262952101661779
1.2434017595307918
1.227761485826002
1.2160312805474096
1.2072336265884651
1.2003910068426198
1.1945259042033236
1.1886608015640274
1.1827956989247312
1.1759530791788857
1.1710654936461389
1.1671554252199414
1.1593352883675463
1.1505376344086022
1.1397849462365592
1.1270772238514175
1.1143695014662756
1.1006842619745845
1.0869990224828934
1.0733137829912025
1.0606060606060606
1.0478983382209188
1.035190615835777
1.0273704789833822
1.021505376344086
1.0146627565982405
1.007820136852395
1.0009775171065494
0.9941348973607038
0.989247311827957
0.9843597262952102
0.9804496578690128
0.978494623655914
0.9775171065493646
0.9775171065493646
0.9804496578690128
0.9863147605083088
0.9921798631476052
0.9990224828934506
1.0058651026392962
1.013685239491691
1.021505376344086
1.029325513196481
1.0361681329423265
1.0420332355816226
1.053763440860215
1.078201368523949
1.1251221896383188
1.187683284457478
1.2756598240469208
1.4086021505376345
1.5835777126099706
1.7888563049853372
2.0087976539589443
2.228739002932551
2.432062561094819
2.6070381231671558
2.747800586510264
2.8514173998044967
2.919843597262952
2.9530791788856305
2.959921798631476
2.951124144672532
2.9266862170087977
2.8885630498533725
2.8406647116324537
2.782991202346041
2.717497556207233
2.64613880742913
2.5698924731182795
2.4887585532746823
2.401759530791789
2.310850439882698
2.2277614858260018
2.147605083088954
2.058651026392962
1.9657869012707725
1.8729227761485825
1.7820136852394917
1.6950146627565983
1.6129032258064515
1.5386119257087
1.4721407624633431
1.414467253176931
1.364613880742913
1.327468230694037
1.300097751710655
1.2746823069403714
1.2531769305962854
1.2365591397849462
1.224828934506354
1.2160312805474096
1.2101661779081134
1.2052785923753666
1.2013685239491692
1.1964809384164223
1.1915933528836755
1.1857282502443791
1.181818181818182
1.1779081133919844
1.1710654936461389
1.1622678396871946
1.1515151515151516
1.1397849462365592
1.1280547409579669
1.1163245356793745
1.104594330400782
1.0928641251221896
1.0811339198435972
1.0694037145650048
1.0625610948191593
1.0635386119257086
1.0654936461388074
1.0625610948191593
1.0586510263929618
1.053763440860215
1.0478983382209188
1.043010752688172
1.0381231671554252
1.035190615835777
1.0342130987292275
1.0342130987292275
1.035190615835777
1.0391006842619743
1.0449657869012707
1.0518084066471165
1.0586510263929618
1.0664711632453567
1.0733137829912025
1.078201368523949
1.0821114369501466
1.0850439882697946
1.0899315738025417
1.1026392961876832
1.130987292277615
1.1720430107526882
1.2355816226783969
1.3391984359726294
1.4819159335288368
1.6588465298142718
1.8602150537634408
2.069403714565005
2.272727272727273
2.4565004887585533
2.610948191593353
2.7311827956989245
2.817204301075269
2.8699902248289346
2.8914956011730206
2.8905180840664717
2.875855327468231
2.849462365591398
2.811339198435973
2.764418377321604
2.710654936461388
2.6510263929618767
2.5855327468230693
2.5141739980449658
2.436950146627566
2.355816226783969
2.2795698924731185
2.204301075268817
2.120234604105572
2.03128054740958
1.9403714565004888
1.8494623655913975
1.761485826001955
1.678396871945259
1.6001955034213098
1.5298142717497556
1.466275659824047
1.4105571847507332
1.3626588465298142
1.327468230694037
1.3010752688172045
1.2776148582600195
1.2580645161290325
1.2434017595307918
1.2336265884652982
1.2267839687194526
1.2218963831867058
1.2179863147605083
1.2150537634408602
1.2111436950146628
1.206256109481916
1.203323558162268
1.2003910068426198
1.1945259042033236
1.1857282502443791
1.1759530791788857
1.1652003910068427
1.1534701857282503
1.141739980449658
1.130987292277615
1.1202346041055715
1.110459433040078
1.099706744868035
1.0899315738025417
1.083088954056696
1.078201368523949
1.0713587487781036
1.0635386119257086
1.0547409579667644
1.0469208211143697
1.0410557184750733
1.035190615835777
1.032258064516129
1.0303030303030305
1.0303030303030305
1.0312805474095796
1.035190615835777
1.040078201368524
1.0449657869012707
1.050830889540567
1.056695992179863
1.064516129032258
1.0713587487781036
1.0762463343108504
1.0801564027370478
1.0840664711632453
1.0918866080156402
1.1114369501466277
1.1515151515151516
1.206256109481916
1.2834799608993157
1.4027370478983383
1.5610948191593352
1.7497556207233629
1.9560117302052784
2.164222873900293
2.3597262952101663
2.5317693059628543
2.6725317693059627
2.7781036168132944
2.849462365591398
2.8856304985337244
2.895405669599218
2.8905180840664717
2.8699902248289346
2.8377321603128056
2.7947214076246336
2.7438905180840663
2.686217008797654
2.622678396871945
2.5542521994134897
2.4809384164222874
2.4027370478983383
2.329423264907136
2.2561094819159337
2.1739980449657867
2.086021505376344
1.994134897360704
1.9012707722385145
1.8103616813294232
1.7233626588465298
1.640273704789834
1.564027370478983
1.4946236559139785
1.4330400782013686
1.3792766373411536
1.33822091886608
1.3069403714565004
1.2795698924731185
1.2561094819159335
1.2365591397849462
1.2228739002932552
1.2130987292277615
1.2072336265884651
1.2043010752688172
1.2013685239491692
1.1994134897360704
1.1974584555229717
1.1964809384164223
1.1964809384164223
1.1935483870967742
1.187683284457478
1.1798631476050832
1.1700879765395895
1.160312805474096
1.1495601173020529
1.1378299120234605
1.1270772238514175
1.1163245356793745
1.104594330400782
1.093841642228739
1.086021505376344
1.0811339198435972
1.0742913000977516
1.0664711632453567
1.0596285434995112
1.053763440860215
1.0478983382209188
1.0420332355816226
1.0381231671554252
1.035190615835777
1.0332355816226784
1.032258064516129
1.0342130987292275
1.0381231671554252
1.0410557184750733
1.04594330400782
1.0518084066471165
1.0596285434995112
1.0684261974584557
1.0762463343108504
1.083088954056696
1.088954056695992
1.0948191593352885
1.1065493646138806
1.1319648093841643
1.1691104594330402
1.227761485826002
1.3235581622678396
1.458455522971652
1.629521016617791
1.826001955034213
2.035190615835777
2.243401759530792
2.434017595307918
2.5972629521016617
2.727272727272727
2.823069403714565
2.8797653958944283
2.906158357771261
2.9159335288367547
2.909090909090909
2.887585532746823
2.8533724340175954
2.809384164222874
2.757575757575758
2.6989247311827955
2.634408602150537
2.5650048875855327
2.490713587487781
2.4115347018572826
2.3362658846529816
2.26197458455523
2.1788856304985336
2.090909090909091
2.0009775171065494
1.9120234604105573
1.8240469208211143
1.739980449657869
1.6598240469208212
1.5865102639296187
1.520039100684262
1.4623655913978495
1.418377321603128
1.3841642228739004
1.3519061583577712
1.3235581622678396
1.3010752688172045
1.2834799608993157
1.270772238514174
1.2619745845552297
1.2551319648093842
1.2512218963831867
1.2482893450635386
1.2453567937438903
1.2424242424242424
1.2404692082111437
1.2394916911045943
1.2346041055718475
1.227761485826002
1.2189638318670577
1.2101661779081134
1.1994134897360704
1.1827956989247312
1.163245356793744
1.147605083088954
1.1348973607038124
1.1231671554252198
1.115347018572825
1.1094819159335287
1.1016617790811338
1.093841642228739
1.086021505376344
1.0791788856304985
1.072336265884653
1.067448680351906
1.0635386119257086
1.06158357771261
1.0606060606060606
1.06158357771261
1.0625610948191593
1.0664711632453567
1.072336265884653
1.078201368523949
1.0840664711632453
1.0909090909090908
1.099706744868035
1.1085043988269794
1.1173020527859236
1.1241446725317692
1.1290322580645162
1.1329423264907137
1.141739980449658
1.1593352883675463
1.1925708699902249
1.2561094819159335
1.3587487781036167
1.5034213098729228
1.686217008797654
1.8973607038123168
2.12316715542522
2.346041055718475
2.5513196480938416
2.727272727272727
2.8670576735092865
2.9687194525904204
3.027370478983382
3.0547409579667644
3.0635386119257086
3.0547409579667644
3.0303030303030303
2.9931573802541545
2.946236559139785
2.89247311827957
2.831867057673509
2.7653958944281527
2.6940371456500487
2.6177908113391983
2.544477028347996
2.4701857282502444
2.386119257086999
2.2952101661779083
2.19941348973607
2.101661779081134
2.002932551319648
1.905180840664712
1.8103616813294232
1.7204301075268815
1.6373411534701858
1.5620723362658846
1.495601173020528
1.4437927663734116
1.4027370478983383
1.3636363636363635
1.3294232649071358
1.3010752688172045
1.278592375366569
1.2619745845552297
1.2502443792766371
1.2404692082111437
1.2326490713587488
1.2258064516129032
1.219941348973607
1.2160312805474096
1.2130987292277615
1.2072336265884651
1.1994134897360704
1.1906158357771262
1.1808406647116323
1.1691104594330402
1.155425219941349
1.141739980449658
1.1270772238514175
1.1114369501466277
1.0957966764418376
1.0791788856304985
1.067448680351906
1.0576735092864125
1.04594330400782
1.0342130987292275
1.021505376344086
1.0097751710654936
1.0
0.9912023460410556
0.9843597262952102
0.978494623655914
0.9736070381231672
0.9706744868035192
0.9716520039100685
0.9736070381231672
0.9745845552297164
0.9765395894428152
0.9794721407624634
0.9833822091886608
0.9902248289345064
0.9990224828934506
1.007820136852395
1.0166177908113392
1.0254154447702837
1.032258064516129
1.0410557184750733
1.0547409579667644
1.0791788856304985
1.1251221896383188
1.2023460410557183
1.3176930596285434
1.4731182795698925
1.664711632453568
1.8807429130009776
2.1055718475073317
2.3225806451612905
2.5190615835777126
2.6832844574780057
2.798631476050831
2.873900293255132
2.9315738025415445
2.964809384164223
2.975562072336266
2.9657869012707723
2.93841642228739
2.898338220918866
2.8475073313782997
2.789833822091887
2.7253176930596283
2.654936461388074
2.5865102639296187
2.517106549364614
2.4379276637341154
2.3519061583577714
2.260997067448681
2.167155425219941
2.071358748778104
1.9745845552297163
1.8797653958944285
1.7878787878787878
1.7008797653958945
1.619745845552297
1.547409579667644
1.4897360703812317
1.4428152492668622
1.3978494623655917
1.356793743890518
1.3225806451612905
1.295210166177908
1.273704789833822
1.2570869990224829
1.2453567937438903
1.2365591397849462
1.23069403714565
1.2267839687194526
1.224828934506354
1.2238514173998043
1.219941348973607
1.2140762463343109
1.206256109481916
1.1974584555229717
1.187683284457478
1.176930596285435
1.164222873900293
1.1515151515151516
1.1378299120234605
1.1231671554252198
1.1094819159335287
1.0987292277614855
1.0918866080156402
1.0821114369501466
1.0713587487781036
1.06158357771261
1.0518084066471165
1.043010752688172
1.0342130987292275
1.0254154447702837
1.0175953079178883
1.010752688172043
1.0058651026392962
1.0048875855327468
1.0058651026392962
1.0058651026392962
1.0058651026392962
1.0058651026392962
1.007820136852395
1.0117302052785924
1.0175953079178883
1.024437927663734
1.0332355816226784
1.0410557184750733
1.04594330400782
1.050830889540567
1.0576735092864125
1.0703812316715542
1.093841642228739
1.1397849462365592
1.2160312805474096
1.3304007820136852
1.4848484848484849
1.6735092864125125
1.8866080156402736
2.10850439882698
2.32355816226784
2.517106549364614
2.66177908113392
2.766373411534702
2.854349951124145
2.9159335288367547
2.951124144672532
2.960899315738025
2.9501466275659824
2.9237536656891496
2.884652981427175
2.834799608993157
2.777126099706745
2.713587487781036
2.643206256109482
2.5747800586510263
2.505376344086021
2.4271749755620724
2.3421309872922778
2.251221896383187
2.157380254154448
2.06158357771261
1.9657869012707725
1.870967741935484
1.7790811339198436
1.6911045943304008
1.6099706744868034
1.544477028347996
1.490713587487781
1.4379276637341154
1.3900293255131966
1.348973607038123
1.313782991202346
1.2864125122189638
1.2649071358748778
1.249266862170088
1.238514173998045
1.23069403714565
1.224828934506354
1.2209188660801564
1.2189638318670577
1.2218963831867058
1.224828934506354
1.2218963831867058
1.2160312805474096
1.2082111436950147
1.198435972629521
1.187683284457478
1.176930596285435
1.1652003910068427
1.1534701857282503
1.141739980449658
1.1329423264907137
1.126099706744868
1.1163245356793745
1.1055718475073313
1.0948191593352885
1.0850439882697946
1.075268817204301
1.0664711632453567
1.0596285434995112
1.0527859237536656
1.0469208211143697
1.0410557184750733
1.0371456500488758
1.0361681329423265
1.0371456500488758
1.0371456500488758
1.0371456500488758
1.0381231671554252
1.0410557184750733
1.0449657869012707
1.050830889540567
1.0586510263929618
1.0664711632453567
1.072336265884653
1.0762463343108504
1.0811339198435972
1.088954056695992
1.1036168132942326
1.1358748778103618
1.1945259042033236
1.2864125122189638
1.41544477028348
1.5806451612903225
1.7732160312805474
1.9794721407624636
2.185728250244379
2.377321603128055
2.544477028347996
2.665689149560117
2.7497556207233624
2.81622678396872
2.860215053763441
2.8807429130009776
2.8797653958944283
2.8611925708699903
2.8289345063538613
2.7859237536656893
2.7341153470185726
2.675464320625611
2.610948191593353
2.547409579667644
2.482893450635386
2.410557184750733
2.3313782991202348
2.2482893450635384
2.161290322580645
2.072336265884653
1.981427174975562
1.8914956011730208
1.8035190615835777
1.7194525904203324
1.640273704789834
1.5757575757575757
1.521016617790811
1.466275659824047
1.41544477028348
1.3714565004887584
1.3333333333333333
1.3010752688172045
1.2766373411534702
1.2580645161290325
1.2434017595307918
1.2326490713587488
1.224828934506354
1.2179863147605083
1.2140762463343109
1.2121212121212122
1.209188660801564
1.2052785923753666
1.2003910068426198
1.1935483870967742
1.18475073313783
1.1749755620723363
1.164222873900293
1.152492668621701
1.1407624633431086
1.1280547409579669
1.1192570869990224
1.1133919843597262
1.104594330400782
1.0948191593352885
1.0840664711632453
1.0733137829912025
1.0635386119257086
1.053763440860215
1.0449657869012707
1.0381231671554252
1.032258064516129
1.0273704789833822
1.0234604105571847
1.0234604105571847
1.0263929618768328
1.0283479960899315
1.0303030303030305
1.032258064516129
1.035190615835777
1.0391006842619743
1.0439882697947214
1.050830889540567
1.0576735092864125
1.0635386119257086
1.0684261974584557
1.0742913000977516
1.0811339198435972
1.0909090909090908
1.1124144672531768
1.155425219941349
1.2287390029325511
1.388074291300098
1.560117302052786
1.7018572825024438
1.8836754643206255
2.081133919843597
2.2766373411534704
2.453567937438905
2.5865102639296187
2.6832844574780057
2.764418377321604
2.822091886608016
2.854349951124145
2.8641251221896384
2.854349951124145
2.8299120234604107
2.793743890518084
2.748778103616813
2.6959921798631474
2.6373411534701856
2.578690127077224
2.5190615835777126
2.4516129032258065
2.377321603128055
2.297165200391007
2.2130987292277613
2.1251221896383186
2.035190615835777
1.9442815249266865
1.855327468230694
1.7683284457478006
1.6852394916911049
1.6080156402737047
1.5464320625610948
1.4946236559139785
1.4437927663734116
1.396871945259042
1.356793743890518
1.3235581622678396
1.2971652003910068
1.2766373411534702
1.2619745845552297
1.252199413489736
1.2443792766373412
1.2394916911045943
1.2375366568914956
1.2365591397849462
1.2346041055718475
1.2316715542521994
1.2267839687194526
1.2209188660801564
1.2150537634408602
1.2082111436950147
1.2003910068426198
1.1906158357771262
1.1798631476050832
1.1691104594330402
1.1583577712609971
1.1505376344086022
1.1436950146627567
1.1348973607038124
1.1270772238514175
1.1192570869990224
1.1124144672531768
1.104594330400782
1.0977517106549364
1.0918866080156402
1.0869990224828934
1.083088954056696
1.0811339198435972
1.0811339198435972
1.0840664711632453
1.086021505376344
1.0879765395894427
1.0918866080156402
1.0957966764418376
1.1016617790811338
1.1094819159335287
1.1173020527859236
1.126099706744868
1.133919843597263
1.1397849462365592
1.1436950146627567
1.147605083088954
1.1544477028347997
1.1681329423264908
1.1994134897360704
1.2580645161290325
1.3519061583577712
1.4838709677419355
1.651026392961877
1.8455522971652003
2.0527859237536656
2.2580645161290325
2.447702834799609
2.592375366568915
2.7008797653958942
2.7947214076246336
2.865102639296188
2.909090909090909
2.9286412512218964
2.927663734115347
2.9100684261974585
2.878787878787879
2.8367546432062563
2.7859237536656893
2.729227761485826
2.667644183773216
2.6070381231671558
2.544477028347996
2.4750733137829912
2.39980449657869
2.318670576735093
2.232649071358749
2.144672531769306
2.053763440860215
1.962854349951124
1.8729227761485825
1.7878787878787878
1.70772238514174
1.6422287390029326
1.587487781036168
1.533724340175953
1.4838709677419355
1.439882697947214
1.401759530791789
1.370478983382209
1.3440860215053765
1.321603128054741
1.300097751710655
1.2854349951124144
1.2776148582600195
1.270772238514174
1.2668621700879763
1.2649071358748778
1.2609970674486803
1.2551319648093842
1.2473118279569892
1.238514173998045
1.2287390029325511
1.217008797653959
1.203323558162268
1.1896383186705768
1.1749755620723363
1.160312805474096
1.1495601173020529
1.1397849462365592
1.1270772238514175
1.1133919843597262
1.0987292277614855
1.0840664711632453
1.0703812316715542
1.0576735092864125
1.04594330400782
1.0342130987292275
1.0254154447702837
1.018572825024438
1.013685239491691
1.0127077223851415
1.013685239491691
1.0146627565982405
1.0156402737047898
1.0156402737047898
1.0166177908113392
1.018572825024438
1.0224828934506354
1.0283479960899315
1.035190615835777
1.043010752688172
1.050830889540567
1.0586510263929618
1.064516129032258
1.0694037145650048
1.078201368523949
1.096774193548387
1.1358748778103618
1.2043010752688172
1.310850439882698
1.456500488758553
1.6383186705767352
1.8455522971652003
2.065493646138808
2.2531769305962857
2.4134897360703813
2.5718475073313782
2.708699902248289
2.8152492668621703
2.8885630498533725
2.930596285434995
2.946236559139785
2.9286412512218964
2.8993157380254155
2.870967741935484
2.827956989247312
2.7751710654936463
2.719452590420332
2.6608015640273703
2.5943304007820136
2.5219941348973607
2.444770283479961
2.363636363636364
2.27761485826002
2.188660801564027
2.0977517106549364
2.005865102639296
1.913978494623656
1.825024437927664
1.7487781036168133
1.6813294232649072
1.6109481915933528
1.542521994134897
1.4809384164222874
1.426197458455523
1.3792766373411536
1.3401759530791788
1.3079178885630498
1.2825024437927663
1.262952101661779
1.2482893450635386
1.2375366568914956
1.23069403714565
1.2258064516129032
1.219941348973607
1.2160312805474096
1.2101661779081134
