ppg
1.04594330400782
1.043010752688172
1.0342130987292275
1.0263929618768328
1.0224828934506354
1.0273704789833822
1.0498533724340176
1.093841642228739
1.164222873900293
1.2649071358748778
1.391006842619746
1.5347018572825024
1.6871945259042034
1.823069403714565
1.945259042033236
2.0733137829912023
2.193548387096774
2.304007820136853
2.401759530791789
2.484848484848485
2.5562072336265884
2.6158357771261
2.665689149560117
2.704789833822092
2.7341153470185726
2.7517106549364616
2.7614858260019552
2.7722385141739982
2.7810361681329425
2.787878787878788
2.792766373411535
2.793743890518084
2.789833822091887
2.777126099706745
2.755620723362659
2.7262952101661777
2.686217008797654
2.634408602150537
2.579667644183773
2.5190615835777126
2.4486803519061584
2.3714565004887587
2.291300097751711
2.2140762463343107
2.1436950146627565
2.080156402737048
2.0254154447702835
1.978494623655914
1.93841642228739
1.9042033235581624
1.87683284457478
1.8523949169110456
1.826001955034213
1.7996089931573802
1.7732160312805474
1.7487781036168133
1.7253176930596286
1.7018572825024438
1.678396871945259
1.6549364613880744
1.6314760508308896
1.607038123167155
1.585532746823069
1.5650048875855327
1.5395894428152492
1.512218963831867
1.4858260019550342
1.4604105571847508
1.436950146627566
1.414467253176931
1.3949169110459434
1.3763440860215057
1.3577712609970674
1.3411534701857282
1.3255131964809383
1.3157380254154447
1.3079178885630498
1.2981427174975562
1.2873900293255132
1.273704789833822
1.260019550342131
1.24633431085044
1.23069403714565
1.2130987292277615
1.195503421309873
1.1808406647116323
1.1691104594330402
1.160312805474096
1.1544477028347997
1.147605083088954
1.1378299120234605
1.126099706744868
1.1133919843597262
1.099706744868035
1.086021505376344
1.0713587487781036
1.0547409579667644
1.0381231671554252
1.021505376344086
1.0039100684261977
0.9912023460410556
0.981427174975562
0.9696969696969696
0.9628543499511242
0.9667644183773216
0.9872922776148584
1.032258064516129
1.10752688172043
1.2111436950146628
1.33822091886608
1.4819159335288368
1.6344086021505375
1.7673509286412512
1.8836754643206255
2.002932551319648
2.114369501466276
2.2140762463343107
2.300097751710655
2.372434017595308
2.432062561094819
2.479960899315738
2.5180840664711632
2.549364613880743
2.573802541544477
2.592375366568915
2.601173020527859
2.6041055718475072
2.6070381231671558
2.6070381231671558
2.6050830889540566
2.601173020527859
2.591397849462365
2.5747800586510263
2.550342130987292
2.517106549364614
2.474095796676442
2.421309872922776
2.367546432062561
2.3118279569892475
2.247311827956989
2.1788856304985336
2.1114369501466275
2.047898338220919
1.988269794721408
1.9364613880742916
1.89247311827957
1.855327468230694
1.823069403714565
1.7947214076246334
1.7712609970674489
1.7546432062561097
1.7409579667644184
1.7243401759530792
1.7067448680351909
1.689149560117302
1.6695992179863148
1.6480938416422288
1.6265884652981428
1.607038123167155
1.585532746823069
1.5610948191593352
1.5347018572825024
1.512218963831867
1.4916911045943304
1.4711632453567938
1.452590420332356
1.4349951124144673
1.4193548387096775
1.404692082111437
1.3900293255131966
1.375366568914956
1.3616813294232648
1.3479960899315735
1.3333333333333333
1.3206256109481915
1.3128054740957966
1.3079178885630498
1.2981427174975562
1.2864125122189638
1.273704789833822
1.2590420332355816
1.24633431085044
1.2355816226783969
1.224828934506354
1.2150537634408602
1.206256109481916
1.2003910068426198
1.1974584555229717
1.195503421309873
1.1915933528836755
1.18475073313783
1.1759530791788857
1.1681329423264908
1.1622678396871946
1.1573802541544478
1.1515151515151516
1.144672531769306
1.1368523949169111
1.1270772238514175
1.1348973607038124
1.1583577712609971
1.1827956989247312
1.2160312805474096
1.267839687194526
1.3479960899315735
1.458455522971652
1.5962854349951123
1.7526881720430108
1.9178885630498532
2.0821114369501466
2.2375366568914954
2.378299120234604
2.487781036168133
2.572825024437928
2.6529814271749754
2.7253176930596283
2.787878787878788
2.841642228739003
2.887585532746823
2.9257086999022484
2.956989247311828
2.983382209188661
3.003910068426197
3.0205278592375366
3.032258064516129
3.0361681329423265
3.034213098729228
3.03128054740958
3.0254154447702835
3.013685239491691
2.995112414467253
2.9667644183773216
2.927663734115347
2.877810361681329
2.81622678396872
2.7438905180840663
2.662756598240469
2.5855327468230693
2.512218963831867
2.4349951124144678
2.360703812316716
2.29227761485826
2.2297165200391005
2.174975562072336
2.1270772238514173
2.085043988269794
2.047898338220919
2.013685239491691
1.981427174975562
1.9501466275659824
1.9237536656891496
1.8993157380254155
1.8729227761485825
1.847507331378299
1.822091886608016
1.7956989247311828
1.7673509286412512
1.7390029325513197
1.7126099706744868
1.686217008797654
1.6588465298142718
1.6314760508308896
1.6109481915933528
1.5913978494623655
1.5698924731182795
1.552297165200391
1.5356793743890518
1.520039100684262
1.5034213098729228
1.4848484848484849
1.466275659824047
1.4467253176930597
1.426197458455523
1.4066471163245358
1.3890518084066472
1.3782991202346042
1.3714565004887584
1.3626588465298142
1.35386119257087
1.3440860215053765
1.3372434017595307
1.3333333333333333
1.3284457478005864
1.3235581622678396
1.3186705767350928
1.3118279569892473
1.303030303030303
1.2971652003910068
1.2932551319648091
1.2864125122189638
1.2776148582600195
1.267839687194526
1.2580645161290325
1.2482893450635386
1.2394916911045943
1.2326490713587488
1.2267839687194526
1.224828934506354
1.2336265884652982
1.2551319648093842
1.2942326490713587
1.3626588465298142
1.4594330400782014
1.5835777126099706
1.729227761485826
1.8866080156402736
2.04594330400782
2.19941348973607
2.3391984359726297
2.462365591397849
2.567937438905181
2.656891495601173
2.721407624633431
2.76930596285435
2.814271749755621
2.8563049853372435
2.89345063538612
2.924731182795699
2.949169110459433
2.9687194525904204
2.986314760508309
3.0
3.0097751710654936
3.016617790811339
3.016617790811339
3.0087976539589443
2.9980449657869013
2.981427174975562
2.9579667644183774
2.9257086999022484
2.8826979472140764
2.8289345063538613
2.763440860215054
2.689149560117302
2.6080156402737047
2.52297165200391
2.4389051808406648
2.3655913978494625
2.2991202346041058
2.233626588465298
2.1730205278592374
2.118279569892473
2.072336265884653
2.034213098729228
2.0009775171065494
1.9716520039100685
1.9442815249266865
1.916911045943304
1.889540566959922
1.8670576735092863
1.847507331378299
1.823069403714565
1.7956989247311828
1.7673509286412512
1.7390029325513197
1.7126099706744868
1.6852394916911049
1.6588465298142718
1.6334310850439884
1.607038123167155
1.5806451612903225
1.555229716520039
1.5356793743890518
1.521016617790811
1.5024437927663734
1.479960899315738
1.4594330400782014
1.4389051808406648
1.4173998044965788
1.3978494623655917
1.3812316715542523
1.367546432062561
1.3558162267839686
1.3450635386119256
1.33822091886608
1.3333333333333333
1.3264907135874875
1.3176930596285434
1.3079178885630498
1.2981427174975562
1.2883675464320623
1.278592375366569
1.2697947214076246
1.2619745845552297
1.2531769305962854
1.2434017595307918
1.2336265884652982
1.2267839687194526
1.2209188660801564
1.2111436950146628
1.2003910068426198
1.1915933528836755
1.1837732160312806
1.176930596285435
1.1710654936461389
1.1691104594330402
1.1798631476050832
1.2082111436950147
1.2590420332355816
1.3235581622678396
1.4056695992179864
1.5190615835777126
1.6549364613880744
1.8064516129032255
1.9618768328445748
2.1114369501466275
2.251221896383187
2.376344086021505
2.4858260019550342
2.579667644183773
2.6608015640273703
2.730205278592375
2.779081133919844
2.814271749755621
2.852394916911046
2.8885630498533725
2.920821114369501
2.948191593352884
2.970674486803519
2.9902248289345064
3.004887585532747
3.013685239491691
3.016617790811339
3.0127077223851417
2.99902248289345
2.9804496578690127
2.956989247311828
2.924731182795699
2.8826979472140764
2.8289345063538613
2.7624633431085046
2.6852394916911044
2.6021505376344085
2.5190615835777126
2.4389051808406648
2.366568914956012
2.3010752688172045
2.247311827956989
2.203323558162268
2.164222873900293
2.129032258064516
2.0987292277614857
2.071358748778104
2.0449657869012707
2.0195503421309877
1.992179863147605
1.963831867057673
1.935483870967742
1.9090909090909087
1.8856304985337244
1.865102639296188
1.8435972629521016
1.8201368523949168
1.7956989247311828
1.7712609970674489
1.7135874877810362
1.6383186705767352
1.587487781036168
1.5483870967741935
1.5161290322580645
1.487781036168133
1.4613880742913
1.4418377321603129
1.426197458455523
1.4105571847507332
1.3949169110459434
1.3792766373411536
1.3626588465298142
1.3440860215053765
1.321603128054741
1.2981427174975562
1.2756598240469208
1.2561094819159335
1.2404692082111437
1.2316715542521994
1.224828934506354
1.2130987292277615
1.1994134897360704
1.18475073313783
1.1691104594330402
1.1544477028347997
1.141739980449658
1.1300097751710656
1.1173020527859236
1.1036168132942326
1.0899315738025417
1.0772238514173995
1.0713587487781036
1.0694037145650048
1.0635386119257086
1.0547409579667644
1.0449657869012707
1.0332355816226784
1.0234604105571847
1.018572825024438
1.0254154447702837
1.050830889540567
1.099706744868035
1.1779081133919844
1.267839687194526
1.3734115347018572
1.509286412512219
1.6627565982404693
1.8211143695014664
1.975562072336266
2.1192570869990224
2.247311827956989
2.358748778103617
2.452590420332356
2.5288367546432062
2.590420332355816
2.633431085043988
2.664711632453568
2.6940371456500487
2.716520039100684
2.7331378299120237
2.744868035190616
2.752688172043011
2.7565982404692084
2.7565982404692084
2.752688172043011
2.7438905180840663
2.730205278592375
2.7096774193548385
2.6832844574780057
2.650048875855328
2.6070381231671558
2.5532746823069403
2.4887585532746823
2.4134897360703813
2.332355816226784
2.247311827956989
2.161290322580645
2.0791788856304985
2.004887585532747
1.9413489736070384
1.8914956011730208
1.8504398826979471
1.8103616813294232
1.7732160312805474
1.739980449657869
1.7067448680351909
1.6715542521994136
1.6383186705767352
1.606060606060606
1.573802541544477
1.541544477028348
1.509286412512219
1.478005865102639
1.4516129032258065
1.4291300097751711
1.4037145650048877
1.3763440860215057
1.3479960899315735
1.3206256109481915
1.29227761485826
1.262952101661779
1.2365591397849462
1.2121212121212122
1.187683284457478
1.1622678396871946
1.1436950146627567
1.126099706744868
1.1036168132942326
1.0821114369501466
1.0606060606060606
1.0391006842619743
1.018572825024438
1.0
0.9824046920821116
0.9667644183773216
0.9550342130987292
0.9472140762463344
0.9374389051808406
0.9296187683284456
0.9257086999022482
0.9188660801564028
0.9081133919843596
0.8993157380254154
0.8934506353861192
0.8905180840664711
0.8895405669599218
0.8885630498533724
0.8885630498533724
0.8885630498533724
0.8885630498533724
0.8924731182795699
0.895405669599218
0.8914956011730205
0.884652981427175
0.8758553274682307
0.8660801564027371
0.855327468230694
0.8465298142717498
0.841642228739003
0.8475073313782991
0.8690127077223851
0.9120234604105572
0.9833822091886608
1.0684261974584557
1.1710654936461389
1.305962854349951
1.4604105571847508
1.6236559139784943
1.7839687194525904
1.935483870967742
2.071358748778104
2.188660801564027
2.289345063538612
2.3734115347018574
2.442815249266862
2.493646138807429
2.5317693059628543
2.567937438905181
2.601173020527859
2.6295210166177907
2.6529814271749754
2.6725317693059627
2.6911045943304006
2.705767350928641
2.7155425219941347
2.721407624633431
2.7233626588465296
2.718475073313783
2.705767350928641
2.684261974584555
2.653958944281525
2.611925708699902
2.558162267839687
2.493646138807429
2.420332355816227
2.340175953079179
2.259042033235582
2.1808406647116323
2.10850439882698
2.042033235581622
1.989247311827957
1.946236559139785
1.9071358748778104
1.8729227761485825
1.844574780058651
1.8191593352883677
1.7927663734115349
1.7663734115347018
1.7419354838709675
1.7165200391006843
1.6901270772238517
1.6637341153470186
1.6363636363636365
1.6138807429130009
1.5943304007820136
1.573802541544477
1.5532746823069403
1.5317693059628543
1.5102639296187683
1.4887585532746823
1.4672531769305963
1.447702834799609
1.4291300097751711
1.4134897360703813
1.3988269794721409
1.388074291300098
1.3782991202346042
1.3665689149560116
1.35386119257087
1.3421309872922775
1.3313782991202343
1.3206256109481915
1.3098729227761483
1.2971652003910068
1.2854349951124144
1.2727272727272727
1.2590420332355816
1.2453567937438903
1.2365591397849462
1.23069403714565
1.2228739002932552
1.2130987292277615
1.203323558162268
1.1945259042033236
1.1886608015640274
1.1857282502443791
1.18475073313783
1.1827956989247312
1.1779081133919844
1.1700879765395895
1.164222873900293
1.160312805474096
1.152492668621701
1.1407624633431086
1.1270772238514175
1.1143695014662756
1.104594330400782
1.1006842619745845
1.1114369501466277
1.144672531769306
1.2082111436950147
1.303030303030303
1.4271749755620724
1.5532746823069403
1.683284457478006
1.833822091886608
1.989247311827957
2.139784946236559
2.2766373411534704
2.3978494623655915
2.501466275659824
2.589442815249267
2.6637341153470184
2.7253176930596283
2.776148582600196
2.849462365591398
2.9335288367546437
2.989247311827957
3.026392961876833
3.0498533724340176
3.064516129032258
3.0733137829912023
3.0762463343108504
3.074291300097752
3.069403714565005
3.06158357771261
3.0498533724340176
3.03128054740958
3.003910068426197
2.9687194525904204
2.9237536656891496
2.866080156402737
2.798631476050831
2.7223851417399803
2.6392961876832843
2.552297165200391
2.4672531769305963
2.3870967741935485
2.314760508308896
2.2531769305962857
2.2052785923753664
2.167155425219941
2.129032258064516
2.0957966764418376
2.065493646138808
2.035190615835777
2.006842619745845
1.978494623655914
1.948191593352884
1.9188660801564028
1.8905180840664717
1.8631476050830889
1.839687194525904
1.8191593352883677
1.7956989247311828
1.7702834799608993
1.7458455522971652
1.721407624633431
1.696969696969697
1.6715542521994136
1.6441837732160314
1.616813294232649
1.590420332355816
1.565982404692082
1.543499511241447
1.525904203323558
1.512218963831867
1.4975562072336266
1.482893450635386
1.4672531769305963
1.4516129032258065
1.435972629521017
1.4213098729227762
1.4086021505376345
1.396871945259042
1.3851417399804498
1.3743890518084063
1.367546432062561
1.3626588465298142
1.3548387096774193
1.348973607038123
1.3440860215053765
1.3391984359726294
1.3343108504398826
1.3284457478005864
1.321603128054741
1.3157380254154447
1.3098729227761483
1.303030303030303
1.295210166177908
1.2903225806451613
1.2883675464320623
1.2834799608993157
1.2756598240469208
1.2658846529814272
1.2570869990224829
1.2512218963831867
1.252199413489736
1.267839687194526
1.3049853372434017
1.370478983382209
1.4652981427174976
1.56891495601173
1.686217008797654
1.833822091886608
1.9960899315738023
2.161290322580645
2.3225806451612905
2.474095796676442
2.608993157380254
2.7262952101661777
2.8260019550342133
2.911045943304008
2.981427174975562
3.038123167155425
3.074291300097752
3.0977517106549364
3.120234604105572
3.139784946236559
3.1544477028347995
3.164222873900293
3.172043010752688
3.177908113391984
3.1788856304985336
3.176930596285435
3.1700879765395893
3.156402737047898
3.133919843597263
3.102639296187683
3.06158357771261
3.0087976539589443
2.945259042033236
2.8719452590420333
2.792766373411535
2.70772238514174
2.6207233626588464
2.5376344086021505
2.4594330400782014
2.391006842619746
2.3304007820136854
2.281524926686217
2.242424242424242
2.2052785923753664
2.172043010752688
2.1417399804496577
2.1114369501466275
2.080156402737048
2.050830889540567
2.021505376344086
1.991202346041056
1.959921798631476
1.9296187683284456
1.905180840664712
1.8836754643206255
1.8592375366568916
1.8328445747800584
1.804496578690127
1.7771260997067448
1.750733137829912
1.7233626588465298
1.6979472140762464
1.6715542521994136
1.6441837732160314
1.616813294232649
1.590420332355816
1.5708699902248289
1.555229716520039
1.5376344086021505
1.520039100684262
1.501466275659824
1.4848484848484849
1.4672531769305963
1.4486803519061584
1.43108504398827
1.41544477028348
1.4027370478983383
1.391006842619746
1.3841642228739004
1.3792766373411536
1.3724340175953078
1.364613880742913
1.3558162267839686
1.348973607038123
1.343108504398827
1.3372434017595307
1.3343108504398826
1.3313782991202343
1.327468230694037
1.3225806451612905
1.3176930596285434
1.3147605083088951
1.3118279569892473
1.3049853372434017
1.2961876832844574
1.2873900293255132
1.2776148582600195
1.2668621700879763
1.2580645161290325
1.252199413489736
1.2541544477028348
1.2727272727272727
1.3157380254154447
1.3743890518084063
1.4516129032258065
1.5610948191593352
1.696969696969697
1.8484848484848484
2.005865102639296
2.161290322580645
2.3088954056695994
2.442815249266862
2.560117302052786
2.6608015640273703
2.7468230694037143
2.820136852394917
2.8719452590420333
2.9100684261974585
2.9472140762463344
2.9804496578690127
3.0097751710654936
3.03128054740958
3.0439882697947214
3.0518084066471163
3.0547409579667644
3.0547409579667644
3.053763440860215
3.047898338220919
3.034213098729228
3.0127077223851417
2.983382209188661
2.9442815249266863
2.895405669599218
2.835777126099707
2.766373411534702
2.686217008797654
2.5992179863147604
2.512218963831867
2.4271749755620724
2.346041055718475
2.271749755620724
2.212121212121212
2.1622678396871944
2.117302052785924
2.0791788856304985
2.0439882697947214
2.0097751710654936
1.9765395894428155
1.9442815249266865
1.913978494623656
1.8856304985337244
1.858260019550342
1.833822091886608
1.8142717497556209
1.796676441837732
1.7761485826001957
1.75366568914956
1.732160312805474
1.710654936461388
1.689149560117302
1.667644183773216
1.643206256109482
1.6177908113391983
1.5943304007820136
1.573802541544477
1.555229716520039
1.542521994134897
1.5288367546432062
1.5112414467253177
1.4916911045943304
1.4701857282502444
1.4486803519061584
1.3685239491691104
1.2619745845552297
1.203323558162268
1.1681329423264908
1.144672531769306
1.1280547409579669
1.1192570869990224
1.115347018572825
1.10752688172043
1.0977517106549364
1.0879765395894427
1.0772238514173995
1.0664711632453567
1.0557184750733135
1.04594330400782
1.0381231671554252
1.0303030303030305
1.0205278592375366
1.0146627565982405
1.0097751710654936
1.0019550342130987
0.9941348973607038
0.9872922776148584
0.9804496578690128
0.9726295210166178
0.9628543499511242
0.9501466275659824
0.93841642228739
0.927663734115347
0.919843597262952
0.9217986314760508
0.9364613880742912
0.9667644183773216
1.699902248289345
1.699902248289345
1.699902248289345
1.699902248289345
1.699902248289345
1.699902248289345
1.3128054740957966
1.3343108504398826
1.4037145650048877
1.5053763440860215
1.6256109481915937
1.75366568914956
1.8836754643206255
1.9951124144672527
2.0948191593352883
2.201368523949169
2.3059628543499517
2.404692082111437
2.496578690127077
2.579667644183773
2.654936461388074
2.7223851417399803
2.782991202346041
2.8377321603128056
2.886608015640274
2.929618768328446
2.960899315738025
2.9824046920821115
3.003910068426197
3.022482893450636
3.034213098729228
3.038123167155425
3.03128054740958
3.013685239491691
2.986314760508309
2.949169110459433
2.9042033235581624
2.852394916911046
2.80058651026393
2.7497556207233624
2.6940371456500487
2.638318670576735
2.58455522971652
2.5347018572825024
2.487781036168133
2.443792766373412
2.401759530791789
2.361681329423265
2.3225806451612905
2.2854349951124147
2.2482893450635384
2.21505376344086
2.182795698924731
2.1485826001955037
2.113391984359726
2.078201368523949
2.0449657869012707
2.0127077223851417
1.9804496578690127
1.948191593352884
1.916911045943304
1.8866080156402736
1.855327468230694
1.828934506353861
1.8054740957966764
1.7781036168132942
1.7497556207233629
1.721407624633431
1.6930596285434996
1.6656891495601174
1.6392961876832846
1.611925708699902
1.585532746823069
1.560117302052786
1.5347018572825024
1.5102639296187683
1.4926686217008798
1.478983382209189
1.4613880742913
1.4428152492668622
1.4242424242424243
1.4076246334310851
1.392961876832845
1.3773216031280548
1.3607038123167154
1.3450635386119256
1.3313782991202343
1.3196480938416422
1.3128054740957966
1.3098729227761483
1.3049853372434017
1.300097751710655
1.2942326490713587
1.2873900293255132
1.2795698924731185
1.270772238514174
1.2609970674486803
1.2512218963831867
1.241446725317693
1.2297165200391007
1.2179863147605083
1.2101661779081134
1.206256109481916
1.1994134897360704
1.1945259042033236
1.1974584555229717
1.2140762463343109
1.249266862170088
1.305962854349951
1.3861192570869991
1.487781036168133
1.606060606060606
1.737047898338221
1.8563049853372435
1.9687194525904204
2.09188660801564
2.2170087976539588
2.337243401759531
2.449657869012708
2.5532746823069403
2.6480938416422286
2.735092864125122
2.814271749755621
2.887585532746823
2.9550342130987293
3.01564027370479
3.060606060606061
3.0957966764418376
3.133919843597263
3.1700879765395893
3.20039100684262
3.2248289345063537
3.242424242424242
3.2502443792766376
3.247311827956989
3.2346041055718477
3.210166177908113
3.1739980449657867
3.131964809384164
3.0840664711632453
3.0283479960899315
2.9667644183773216
2.9042033235581624
2.843597262952102
2.78494623655914
2.729227761485826
2.677419354838709
2.6285434995112413
2.581622678396872
2.536656891495601
2.49266862170088
2.4545454545454546
2.418377321603128
2.380254154447703
2.3421309872922778
2.304007820136853
2.2668621700879767
2.23069403714565
2.1955034213098727
2.161290322580645
2.1270772238514173
2.0928641251221896
2.059628543499511
2.0303030303030303
2.003910068426197
1.9745845552297163
1.9423264907135875
1.9090909090909087
1.8758553274682308
1.8435972629521016
1.812316715542522
1.782991202346041
1.7556207233626588
1.729227761485826
1.7038123167155426
1.6793743890518085
1.6598240469208212
1.643206256109482
1.6236559139784943
1.6011730205278591
1.5777126099706744
1.555229716520039
1.533724340175953
1.5131964809384164
1.4936461388074291
1.4750733137829912
1.458455522971652
1.4428152492668622
1.43108504398827
1.4222873900293256
1.4115347018572826
1.401759530791789
1.392961876832845
1.3841642228739004
1.3763440860215057
1.3685239491691104
1.3587487781036167
1.348973607038123
1.3401759530791788
1.3313782991202343
1.3255131964809383
1.321603128054741
1.313782991202346
1.3040078201368523
1.295210166177908
1.289345063538612
1.29227761485826
1.3088954056695992
1.3450635386119256
1.404692082111437
1.4897360703812317
1.5972629521016617
1.7233626588465298
1.842619745845552
1.959921798631476
2.0928641251221896
2.23069403714565
2.3655913978494625
2.493646138807429
2.613880742913001
2.7223851417399803
2.819159335288368
2.90811339198436
2.988269794721408
3.060606060606061
3.115347018572825
3.160312805474096
3.210166177908113
3.259042033235582
3.3059628543499517
3.347018572825025
3.3822091886608017
3.410557184750733
3.432062561094819
3.444770283479961
3.447702834799609
3.439882697947214
3.421309872922776
3.3929618768328447
3.355816226783969
3.3098729227761488
3.2551319648093844
3.193548387096774
3.1270772238514173
3.059628543499511
2.994134897360704
2.932551319648094
2.873900293255132
2.820136852394917
2.7702834799608995
