ppg
2.069403714565005
2.040078201368524
2.024437927663734
2.01564027370479
2.013685239491691
2.0146627565982405
2.016617790811339
2.01564027370479
2.010752688172043
2.003910068426197
1.994134897360704
1.9824046920821117
1.9716520039100685
1.9618768328445748
1.949169110459433
1.935483870967742
1.921798631476051
1.90811339198436
1.8944281524926687
1.878787878787879
1.8621700879765395
1.8465298142717497
1.8299120234604105
1.8142717497556209
1.7986314760508308
1.7878787878787878
1.7790811339198436
1.7673509286412512
1.7546432062561097
1.7419354838709675
1.729227761485826
1.7174975562072337
1.7057673509286413
1.694037145650049
1.6842619745845553
1.6774193548387095
1.672531769305963
1.6715542521994136
1.672531769305963
1.672531769305963
1.672531769305963
1.672531769305963
1.6715542521994136
1.6705767350928642
1.6715542521994136
1.6764418377321604
1.6920821114369502
1.7243401759530792
1.782991202346041
1.855327468230694
1.9472140762463344
2.0762463343108504
2.2297165200391005
2.393939393939394
2.5542521994134897
2.699902248289345
2.823069403714565
2.919843597262952
2.991202346041056
3.0410557184750733
3.0733137829912023
3.0928641251221896
3.1006842619745845
3.1006842619745845
3.0987292277614857
3.096774193548387
3.093841642228739
3.0928641251221896
3.093841642228739
3.0957966764418376
3.1006842619745845
3.10752688172043
3.115347018572825
3.1221896383186705
3.124144672531769
3.1221896383186705
3.118279569892473
3.10752688172043
3.088954056695992
3.06158357771261
3.024437927663734
2.979472140762464
2.9266862170087977
2.866080156402737
2.798631476050831
2.7253176930596283
2.6451612903225805
2.570869990224829
2.4975562072336266
2.4134897360703813
2.326490713587488
2.243401759530792
2.1681329423264906
2.104594330400782
2.0557184750733137
2.0205278592375366
1.9980449657869013
1.9843597262952104
1.9745845552297163
1.9687194525904204
1.963831867057673
1.956989247311828
1.948191593352884
1.9374389051808407
1.9257086999022484
1.9120234604105573
1.8963831867057677
1.8797653958944285
1.8631476050830889
1.847507331378299
1.833822091886608
1.8201368523949168
1.8113391984359728
1.804496578690127
1.7976539589442817
1.7898338220918866
1.7820136852394917
1.7732160312805474
1.7634408602150538
1.7526881720430108
1.7419354838709675
1.732160312805474
1.7233626588465298
1.7165200391006843
1.7135874877810362
1.7126099706744868
1.710654936461388
1.7086999022482894
1.7018572825024438
1.6950146627565983
1.6881720430107527
1.6793743890518085
1.6695992179863148
1.6588465298142718
1.6480938416422288
1.6383186705767352
1.6285434995112416
1.6226783968719452
1.619745845552297
1.6177908113391983
1.6236559139784943
1.6471163245356797
1.696969696969697
1.7790811339198436
1.895405669599218
2.040078201368524
2.204301075268817
2.375366568914956
2.5386119257087
2.667644183773216
2.768328445747801
2.859237536656892
2.932551319648094
2.9872922776148583
3.024437927663734
3.046920821114369
3.060606060606061
3.029325513196481
2.975562072336266
2.948191593352884
2.936461388074292
2.9315738025415445
2.9257086999022484
2.918866080156403
2.916911045943304
2.9159335288367547
2.913978494623656
2.909090909090909
2.9012707722385143
2.889540566959922
2.8719452590420333
2.8475073313782997
2.817204301075269
2.780058651026393
2.7390029325513194
2.6940371456500487
2.6392961876832843
2.5747800586510263
2.501466275659824
2.418377321603128
2.3255131964809386
2.2238514173998043
2.118279569892473
2.0117302052785924
1.9090909090909087
1.8172043010752688
1.7409579667644184
1.6852394916911049
1.6480938416422288
1.6207233626588464
1.603128054740958
1.5913978494623655
1.5826001955034212
1.573802541544477
1.563049853372434
1.5493646138807429
1.5327468230694037
1.5141739980449658
1.4936461388074291
1.4760508308895406
1.4594330400782014
1.4408602150537635
1.4213098729227762
1.401759530791789
1.3822091886608017
1.3626588465298142
1.3421309872922775
1.321603128054741
1.3010752688172045
1.2805474095796676
1.260019550342131
1.2404692082111437
1.2258064516129032
1.2140762463343109
1.1994134897360704
1.18475073313783
1.1700879765395895
1.155425219941349
1.1407624633431086
1.126099706744868
1.110459433040078
1.096774193548387
1.0840664711632453
1.0713587487781036
1.0635386119257086
1.0596285434995112
1.0547409579667644
1.0488758553274682
1.0410557184750733
1.0303030303030305
1.0175953079178883
1.0019550342130987
0.9843597262952102
0.9687194525904204
0.9618768328445748
0.9716520039100685
1.0097751710654936
1.0684261974584557
1.1544477028347997
1.284457478005865
1.4496578690127078
1.635386119257087
1.8240469208211143
2.0019550342130987
2.157380254154448
2.2825024437927666
2.375366568914956
2.436950146627566
2.474095796676442
2.489736070381232
2.489736070381232
2.479960899315738
2.462365591397849
2.439882697947214
2.412512218963832
2.3841642228739004
2.347996089931574
2.315738025415445
2.29227761485826
2.2658846529814274
2.2385141739980448
2.210166177908113
2.182795698924731
2.156402737047898
2.126099706744868
2.0928641251221896
2.053763440860215
2.0097751710654936
1.9608993157380252
1.906158357771261
1.844574780058651
1.7761485826001957
1.6979472140762464
1.6099706744868034
1.5268817204301075
1.4437927663734116
1.3440860215053765
1.2355816226783969
1.1270772238514175
1.0234604105571847
0.9315738025415444
0.855327468230694
0.7966764418377321
0.7536656891495601
0.7223851417399805
0.6999022482893451
0.6891495601173021
0.6852394916911045
0.678396871945259
0.6695992179863147
0.6588465298142717
0.6471163245356794
0.635386119257087
0.624633431085044
0.6158357771260997
0.6070381231671554
0.5992179863147605
0.5669599217986315
0.5659824046920822
0.5698924731182796
0.5777126099706745
0.5874877810361682
0.6089931573802542
0.6529814271749755
0.7311827956989247
0.8514173998044966
1.013685239491691
1.2111436950146628
1.43108504398827
1.6578690127077225
1.87683284457478
2.0527859237536656
2.193548387096774
2.32355816226784
2.4301075268817205
2.5112414467253177
2.56891495601173
2.606060606060606
2.6285434995112413
2.6392961876832843
2.641251221896383
2.638318670576735
2.631476050830889
2.6236559139784945
2.6129032258064515
2.60019550342131
2.587487781036168
2.572825024437928
2.5562072336265884
2.5376344086021505
2.5180840664711632
2.4946236559139785
2.4682306940371457
2.436950146627566
2.396871945259042
2.346041055718475
2.2932551319648096
2.233626588465298
2.157380254154448
2.0664711632453567
1.962854349951124
1.8504398826979471
1.7341153470185728
1.6217008797653958
1.5190615835777126
1.4320625610948192
1.3636363636363635
1.316715542521994
1.2873900293255132
1.2727272727272727
1.267839687194526
1.2649071358748778
1.262952101661779
1.2590420332355816
1.2512218963831867
1.2394916911045943
1.224828934506354
1.209188660801564
1.1925708699902249
1.173998044965787
1.1573802541544478
1.1495601173020529
1.142717497556207
1.1319648093841643
1.1192570869990224
1.1065493646138806
1.0948191593352885
1.083088954056696
1.0713587487781036
1.0596285434995112
1.0478983382209188
1.0361681329423265
1.0254154447702837
1.0156402737047898
1.0117302052785924
1.010752688172043
1.0068426197458455
1.0019550342130987
0.997067448680352
0.9921798631476052
0.9882697947214076
0.9843597262952102
0.9824046920821116
0.9833822091886608
0.9853372434017597
0.9882697947214076
0.9951124144672532
1.0039100684261977
1.104594330400782
1.249266862170088
1.3206256109481915
1.35386119257087
1.3695014662756595
1.383186705767351
1.4086021505376345
1.458455522971652
1.541544477028348
1.6637341153470186
1.825024437927664
1.986314760508309
2.150537634408602
2.3391984359726297
2.5288367546432062
2.7008797653958942
2.8455522971652005
2.9589442815249267
3.043010752688172
3.101661779081134
3.1407624633431084
3.1652003910068425
3.177908113391984
3.1788856304985336
3.1730205278592374
3.167155425219941
3.163245356793744
3.160312805474096
3.1593352883675463
3.160312805474096
3.160312805474096
3.1593352883675463
3.157380254154448
3.1524926686217007
3.1436950146627565
3.131964809384164
3.114369501466276
3.090909090909091
3.0625610948191597
3.029325513196481
2.9902248289345064
2.943304007820137
2.889540566959922
2.8269794721407626
2.755620723362659
2.673509286412512
2.582600195503421
2.484848484848485
2.3949169110459434
2.310850439882698
2.2218963831867056
2.136852394916911
2.064516129032258
2.006842619745845
1.963831867057673
1.9335288367546437
1.913978494623656
1.902248289345064
1.89247311827957
1.8826979472140764
1.8699902248289344
1.8563049853372435
1.8406647116324533
1.8211143695014664
1.7976539589442817
1.7741935483870968
1.7517106549364614
1.7311827956989247
1.7116324535679377
1.6930596285434996
1.675464320625611
1.6598240469208212
1.64613880742913
1.635386119257087
1.6265884652981428
1.6148582600195502
1.603128054740958
1.5923753665689149
1.581622678396872
1.56891495601173
1.5571847507331378
1.5493646138807429
1.542521994134897
1.5376344086021505
1.533724340175953
1.5317693059628543
1.5327468230694037
1.5327468230694037
1.5327468230694037
1.5327468230694037
1.533724340175953
1.5347018572825024
1.5356793743890518
1.5356793743890518
1.5347018572825024
1.5317693059628543
1.5298142717497556
1.5317693059628543
1.5405669599217986
1.585532746823069
1.6441837732160314
1.7067448680351909
1.81524926686217
1.963831867057673
2.139784946236559
2.329423264907136
2.515151515151515
2.6832844574780057
2.825024437927664
2.936461388074292
3.016617790811339
3.065493646138808
3.0928641251221896
3.1094819159335287
3.1163245356793743
3.117302052785924
3.1163245356793743
3.113391984359726
3.1094819159335287
3.1065493646138806
3.1055718475073317
3.104594330400782
3.102639296187683
3.0948191593352883
3.083088954056696
3.0733137829912023
3.0625610948191597
3.0498533724340176
3.034213098729228
3.021505376344086
3.0009775171065494
2.9775171065493646
2.945259042033236
2.895405669599218
2.84652981427175
2.793743890518084
2.7497556207233624
2.6823069403714563
2.576735092864125
2.472140762463343
2.366568914956012
2.2629521016617797
2.1652003910068425
2.0948191593352883
2.0303030303030303
1.959921798631476
1.911045943304008
1.8797653958944285
1.8602150537634408
1.8455522971652003
1.8328445747800584
1.8201368523949168
1.8054740957966764
1.7888563049853372
1.7702834799608993
1.750733137829912
1.7311827956989247
1.7116324535679377
1.6920821114369502
1.6774193548387095
1.664711632453568
1.6480938416422288
1.6304985337243405
1.6129032258064515
1.5943304007820136
1.5747800586510263
1.5562072336265884
1.5376344086021505
1.521016617790811
1.5053763440860215
1.4916911045943304
1.478983382209189
1.4701857282502444
1.4652981427174976
1.4604105571847508
1.455522971652004
1.4516129032258065
1.4506353861192571
1.4516129032258065
1.4545454545454546
1.4594330400782014
1.466275659824047
1.4750733137829912
1.4848484848484849
1.4965786901270772
1.509286412512219
1.520039100684262
1.5268817204301075
1.5317693059628543
1.5356793743890518
1.5454545454545454
1.56891495601173
1.616813294232649
1.696969696969697
1.8132942326490715
1.964809384164223
2.142717497556207
2.3069403714565007
2.4594330400782014
2.6207233626588464
2.76930596285435
2.89247311827957
2.9872922776148583
3.0547409579667644
3.0977517106549364
3.124144672531769
3.136852394916911
3.1407624633431084
3.1388074291300097
3.1309872922776147
3.121212121212121
3.114369501466276
3.110459433040078
3.10850439882698
3.10752688172043
3.1065493646138806
3.1055718475073317
3.103616813294233
3.0987292277614857
3.089931573802541
3.0762463343108504
3.0576735092864125
3.0332355816226784
3.003910068426197
2.9696969696969697
2.930596285434995
2.886608015640274
2.835777126099707
2.7751710654936463
2.705767350928641
2.6285434995112413
2.5434995112414467
2.449657869012708
2.350928641251222
2.26197458455523
2.1818181818181817
2.1006842619745845
2.0283479960899315
1.967741935483871
1.9227761485826005
1.8914956011730208
1.8699902248289344
1.8543499511241448
1.8416422287390029
1.828934506353861
1.8142717497556209
1.7956989247311828
1.7790811339198436
1.7624633431085044
1.739980449657869
1.7145650048875856
1.6911045943304008
1.667644183773216
1.6441837732160314
1.6217008797653958
1.5083088954056696
1.3479960899315735
1.2531769305962854
1.1906158357771262
1.1505376344086022
1.121212121212121
1.0899315738025417
1.0596285434995112
1.0312805474095796
1.0058651026392962
0.9833822091886608
0.9628543499511242
0.9423264907135877
0.9237536656891496
0.9071358748778104
0.8924731182795699
0.8768328445747801
0.8670576735092864
0.8582600195503421
0.8455522971652004
0.83088954056696
0.8162267839687195
0.8015640273704789
0.7878787878787878
0.7741935483870968
0.761485826001955
0.7478005865102639
0.7331378299120235
0.7174975562072337
0.70772238514174
0.7038123167155426
0.7038123167155426
0.7194525904203324
0.7644183773216031
0.8465298142717498
0.9696969696969696
1.1329423264907137
1.324535679374389
1.5288367546432062
1.7302052785923754
1.9130009775171064
2.067448680351906
2.1788856304985336
2.2551319648093844
2.312805474095797
2.350928641251222
2.3734115347018574
2.383186705767351
2.383186705767351
2.376344086021505
2.364613880742913
2.3519061583577714
2.3382209188660803
2.324535679374389
2.310850439882698
2.2961876832844577
2.2825024437927666
2.2688172043010755
2.254154447702835
2.2385141739980448
2.218963831867057
2.1945259042033234
2.1652003910068425
2.1309872922776147
2.089931573802541
2.043010752688172
1.997067448680352
1.9472140762463344
1.8836754643206255
1.8093841642228736
1.7243401759530792
1.6285434995112416
1.5249266862170088
1.414467253176931
1.3040078201368523
1.1994134897360704
1.1055718475073313
1.0273704789833822
0.967741935483871
0.9305962854349952
0.9100684261974584
0.8963831867057673
0.8885630498533724
0.8836754643206256
0.8797653958944281
0.873900293255132
0.8660801564027371
0.8572825024437928
0.8475073313782991
0.8387096774193549
0.83088954056696
0.8289345063538612
0.8289345063538612
0.8260019550342131
0.8220918866080157
0.8181818181818182
0.8142717497556208
0.8093841642228738
0.8035190615835777
0.7966764418377321
0.7898338220918866
0.7820136852394917
0.7741935483870968
0.7644183773216031
0.7585532746823069
0.7556207233626588
0.7497556207233627
0.7438905180840665
0.7380254154447703
0.7331378299120235
0.7302052785923754
0.7282502443792767
0.7282502443792767
0.7302052785923754
0.7341153470185728
0.7380254154447703
0.7448680351906158
0.750733137829912
0.7517106549364614
0.7497556207233627
0.7458455522971652
0.7438905180840665
0.7487781036168133
0.7712609970674487
0.8220918866080157
0.9110459433040078
1.0410557184750733
1.2111436950146628
1.4105571847507332
1.5972629521016617
1.7732160312805474
1.962854349951124
2.139784946236559
2.291300097751711
2.412512218963832
2.5024437927663734
2.5640273704789838
2.603128054740958
2.6265884652981426
2.638318670576735
2.641251221896383
2.636363636363636
2.6265884652981426
2.6158357771261
2.6041055718475072
2.592375366568915
2.579667644183773
2.5650048875855327
2.549364613880743
2.5317693059628543
2.512218963831867
2.489736070381232
2.463343108504399
2.432062561094819
2.3978494623655915
2.357771260997068
2.3088954056695994
2.2502443792766376
2.1788856304985336
2.0957966764418376
2.0009775171065494
1.8963831867057677
1.7859237536656891
1.6744868035190617
1.5679374389051808
1.4721407624633431
1.3988269794721409
1.3440860215053765
1.2971652003910068
1.2619745845552297
1.238514173998045
1.2238514173998043
1.2130987292277615
1.2043010752688172
1.1935483870967742
1.181818181818182
1.1681329423264908
1.152492668621701
1.1348973607038124
1.1221896383186705
1.110459433040078
1.0957966764418376
1.0801564027370478
1.064516129032258
1.0488758553274682
1.032258064516129
1.0166177908113392
1.002932551319648
0.9902248289345064
0.978494623655914
0.967741935483871
0.9618768328445748
0.9589442815249268
0.9530791788856304
0.946236559139785
0.93841642228739
0.9305962854349952
0.9227761485826002
0.9149560117302052
0.9100684261974584
0.9081133919843596
0.9071358748778104
0.906158357771261
0.906158357771261
0.9100684261974584
0.9159335288367546
0.9208211143695014
0.9247311827956988
0.927663734115347
0.9305962854349952
0.9335288367546432
0.9364613880742912
0.9393939393939394
0.9472140762463344
0.9657869012707724
1.0058651026392962
1.0635386119257086
1.1485826001955035
1.281524926686217
1.4604105571847508
1.675464320625611
1.911045943304008
2.1485826001955037
2.3704789833822093
2.5620723362658846
2.718475073313783
2.8377321603128056
2.921798631476051
2.9765395894428157
3.003910068426197
3.013685239491691
3.018572825024438
3.016617790811339
3.010752688172043
3.003910068426197
2.9960899315738025
2.988269794721408
2.9804496578690127
2.972629521016618
2.963831867057673
2.952101661779081
2.935483870967742
2.9159335288367547
2.895405669599218
2.8719452590420333
2.8455522971652005
2.8152492668621703
2.779081133919844
2.7370478983382207
2.689149560117302
2.632453567937439
2.565982404692082
2.489736070381232
2.404692082111437
2.321603128054741
2.2355816226783967
2.164222873900293
2.104594330400782
2.027370478983382
1.9472140762463344
1.8729227761485825
1.8093841642228736
1.7605083088954057
1.7243401759530792
1.699902248289345
1.683284457478006
1.6735092864125125
1.6656891495601174
1.656891495601173
1.64613880742913
1.6344086021505375
1.619745845552297
1.603128054740958
1.585532746823069
1.565982404692082
1.5464320625610948
1.525904203323558
1.5053763440860215
1.4897360703812317
1.47702834799609
1.4623655913978495
1.447702834799609
1.4320625610948192
1.4164222873900294
1.4027370478983383
1.391006842619746
1.3792766373411536
1.367546432062561
1.3558162267839686
1.346041055718475
1.33822091886608
1.3343108504398826
1.3333333333333333
1.3313782991202343
1.3304007820136852
1.3294232649071358
1.3294232649071358
1.3304007820136852
1.3333333333333333
1.3372434017595307
1.343108504398827
1.348973607038123
1.3528836754643203
1.3577712609970674
1.3626588465298142
1.364613880742913
1.3685239491691104
1.380254154447703
1.409579667644184
1.466275659824047
1.5581622678396871
1.686217008797654
1.8465298142717497
2.0283479960899315
2.2170087976539588
2.398826979472141
2.5425219941348973
2.653958944281525
2.7546432062561097
2.835777126099707
2.8944281524926687
2.9335288367546437
2.956989247311828
2.9687194525904204
2.972629521016618
2.9716520039100685
2.967741935483871
2.962854349951124
2.95405669599218
2.945259042033236
2.9393939393939394
2.935483870967742
2.932551319648094
2.9286412512218964
2.9227761485826003
2.913978494623656
2.900293255131965
2.881720430107527
2.857282502443793
2.8269794721407626
2.790811339198436
2.752688172043011
2.710654936461388
2.66177908113392
2.6050830889540566
2.5405669599217986
2.4672531769305963
2.386119257086999
2.297165200391007
2.2023460410557183
2.1055718475073317
2.0127077223851417
1.927663734115347
1.86119257086999
1.8103616813294232
1.7683284457478006
1.737047898338221
1.715542521994135
1.7018572825024438
1.694037145650049
1.6881720430107527
1.6823069403714566
1.675464320625611
1.6656891495601174
1.653958944281525
1.6392961876832846
1.6256109481915937
1.6129032258064515
1.5972629521016617
1.5796676441837731
1.5620723362658846
1.5454545454545454
1.5288367546432062
1.5131964809384164
1.500488758553275
1.4887585532746823
1.478005865102639
1.4701857282502444
1.466275659824047
1.4623655913978495
1.455522971652004
1.447702834799609
1.4389051808406648
1.4281524926686218
1.4164222873900294
1.404692082111437
1.3949169110459434
1.3861192570869991
1.3782991202346042
1.3714565004887584
1.3665689149560116
1.3636363636363635
1.3626588465298142
1.3616813294232648
1.3587487781036167
1.3548387096774193
1.348973607038123
1.343108504398827
1.3391984359726294
1.3391984359726294
1.3499511241446724
1.380254154447703
1.436950146627566
1.509286412512219
1.603128054740958
1.7360703812316716
1.8973607038123168
2.0733137829912023
2.2482893450635384
2.410557184750733
2.549364613880743
2.6608015640273703
2.742913000977517
2.798631476050831
2.833822091886608
2.852394916911046
2.8563049853372435
2.849462365591398
2.8396871945259043
2.827956989247312
2.8152492668621703
2.8025415444770285
2.790811339198436
2.779081133919844
2.768328445747801
2.757575757575758
2.747800586510264
2.73802541544477
2.7253176930596283
2.7096774193548385
2.6940371456500487
2.675464320625611
2.652003910068426
2.624633431085044
2.592375366568915
2.5532746823069403
2.5083088954056696
2.4565004887585533
2.3958944281524928
2.3255131964809386
2.244379276637341
2.166177908113392
2.0869990224828934
1.9951124144672527
1.900293255131965
1.8084066471163245
1.7243401759530792
1.6520039100684265
1.595307917888563
1.5542521994134897
1.5268817204301075
1.509286412512219
1.499511241446725
1.4946236559139785
1.490713587487781
1.4848484848484849
1.478005865102639
1.4701857282502444
1.4594330400782014
1.447702834799609
1.434017595307918
1.4213098729227762
1.409579667644184
1.3988269794721409
1.3890518084066472
1.380254154447703
1.375366568914956
1.3724340175953078
1.367546432062561
1.3616813294232648
1.3577712609970674
1.35386119257087
1.3509286412512218
1.3479960899315735
1.346041055718475
1.3450635386119256
1.3450635386119256
1.3470185728250244
1.3509286412512218
1.3558162267839686
1.3587487781036167
1.3616813294232648
1.3655913978494625
1.370478983382209
1.3763440860215057
1.383186705767351
1.3900293255131966
1.3958944281524928
1.4007820136852396
1.4027370478983383
1.4037145650048877
1.404692082111437
1.404692082111437
1.404692082111437
1.409579667644184
1.4301075268817205
1.4750733137829912
1.552297165200391
1.6666666666666667
1.8142717497556209
1.986314760508309
2.1700879765395893
2.3499511241446727
2.4946236559139785
2.6099706744868034
2.7145650048875853
2.7976539589442817
2.8582600195503423
2.8993157380254155
2.9237536656891496
2.936461388074292
2.9393939393939394
2.9393939393939394
2.9374389051808407
2.930596285434995
2.917888563049853
2.905180840664712
2.8944281524926687
2.8836754643206257
2.8719452590420333
2.860215053763441
2.84652981427175
2.8299120234604107
2.809384164222874
2.782013685239492
2.747800586510264
2.7067448680351904
2.6578690127077222
2.606060606060606
2.550342130987292
2.484848484848485
2.410557184750733
2.326490713587488
2.231671554252199
2.1270772238514173
2.01564027370479
1.8983382209188664
1.7790811339198436
1.664711632453568
1.5591397849462365
1.47702834799609
1.412512218963832
1.3548387096774193
1.3088954056695992
1.2727272727272727
1.2424242424242424
1.2150537634408602
1.1867057673509287
1.155425219941349
1.121212121212121
1.0840664711632453
1.0439882697947214
1.002932551319648
0.967741935483871
0.93841642228739
0.9051808406647116
0.8699902248289345
0.8357771260997068
0.8025415444770283
0.7702834799608993
0.7409579667644184
0.7116324535679375
0.6823069403714564
0.6539589442815249
0.6256109481915934
0.6050830889540567
0.5894428152492669
0.5689149560117303
0.5464320625610948
0.5249266862170088
0.5053763440860215
0.4887585532746823
0.4750733137829912
0.4623655913978494
0.4506353861192571
0.4398826979472141
0.4310850439882698
0.4222873900293255
0.4193548387096774
0.4203323558162268
0.418377321603128
0.4144672531769306
0.4115347018572825
0.4086021505376344
0.4056695992179863
0.4007820136852394
0.3949169110459433
0.3890518084066471
0.3880742913000977
0.3998044965786901
0.4271749755620723
0.4789833822091887
0.5689149560117303
0.7038123167155426
0.8836754643206256
1.1006842619745845
1.3401759530791788
1.5835777126099706
1.81524926686217
2.018572825024438
2.187683284457478
2.320625610948192
2.421309872922776
2.487781036168133
2.5288367546432062
2.560117302052786
2.581622678396872
