ppg
1.3998044965786902
1.3734115347018572
1.346041055718475
1.3196480938416422
1.295210166177908
1.273704789833822
1.2551319648093842
1.238514173998045
1.224828934506354
1.2130987292277615
1.206256109481916
1.2023460410557183
1.1964809384164223
1.1886608015640274
1.1808406647116323
1.1720430107526882
1.164222873900293
1.1564027370478984
1.1485826001955035
1.1397849462365592
1.1290322580645162
1.115347018572825
1.104594330400782
1.0948191593352885
1.0791788856304985
1.0596285434995112
1.0410557184750733
1.024437927663734
1.013685239491691
1.0117302052785924
1.024437927663734
1.0586510263929618
1.121212121212121
1.2160312805474096
1.346041055718475
1.4848484848484849
1.6363636363636365
1.825024437927664
2.032258064516129
2.241446725317693
2.4379276637341154
2.6099706744868034
2.7497556207233624
2.8533724340175954
2.920821114369501
2.956011730205278
2.964809384164223
2.9530791788856305
2.9286412512218964
2.8963831867057674
2.859237536656892
2.8181818181818183
2.774193548387097
2.727272727272727
2.674486803519061
2.613880742913001
2.5464320625610948
2.472140762463343
2.3919843597262958
2.310850439882698
2.2385141739980448
2.172043010752688
2.104594330400782
2.042033235581622
1.988269794721408
1.9442815249266865
1.9090909090909087
1.8836754643206255
1.866080156402737
1.8533724340175952
1.8435972629521016
1.8347996089931573
1.826001955034213
1.8162267839687196
1.8025415444770283
1.7869012707722385
1.7702834799608993
1.750733137829912
1.729227761485826
1.7057673509286413
1.678396871945259
1.6500488758553276
1.6187683284457477
1.585532746823069
1.5532746823069403
1.5278592375366569
1.5053763440860215
1.479960899315738
1.4535679374389052
1.4281524926686218
1.401759530791789
1.3763440860215057
1.3519061583577712
1.3294232649071358
1.3088954056695992
1.2903225806451613
1.273704789833822
1.2619745845552297
1.2531769305962854
1.2443792766373412
1.2365591397849462
1.23069403714565
1.227761485826002
1.224828934506354
1.2218963831867058
1.2179863147605083
1.2121212121212122
1.2043010752688172
1.1935483870967742
1.1808406647116323
1.1700879765395895
1.160312805474096
1.1466275659824048
1.1300097751710656
1.1124144672531768
1.0948191593352885
1.078201368523949
1.0684261974584557
1.0684261974584557
1.0840664711632453
1.121212121212121
1.1867057673509287
1.2658846529814272
1.364613880742913
1.5024437927663734
1.672531769305963
1.866080156402737
2.070381231671554
2.272727272727273
2.4613880742913
2.625610948191593
2.758553274682307
2.8582600195503423
2.924731182795699
2.961876832844575
2.972629521016618
2.964809384164223
2.9472140762463344
2.921798631476051
2.8885630498533725
2.8484848484848486
2.8025415444770285
2.750733137829912
2.69208211143695
2.6265884652981426
2.5542521994134897
2.4750733137829912
2.39980449657869
2.3255131964809386
2.244379276637341
2.163245356793744
2.085043988269794
2.013685239491691
1.9521016617790807
1.900293255131965
1.857282502443793
1.822091886608016
1.7947214076246334
1.7741935483870968
1.758553274682307
1.7468230694037146
1.7360703812316716
1.7243401759530792
1.7116324535679377
1.696969696969697
1.678396871945259
1.6559139784946235
1.6304985337243405
1.6021505376344083
1.5718475073313782
1.5395894428152492
1.5063538611925709
1.478005865102639
1.4516129032258065
1.4193548387096775
1.3861192570869991
1.3519061583577712
1.3186705767350928
1.2873900293255132
1.2570869990224829
1.2287390029325511
1.2043010752688172
1.1827956989247312
1.1652003910068427
1.1505376344086022
1.141739980449658
1.1378299120234605
1.133919843597263
1.130987292277615
1.1300097751710656
1.130987292277615
1.1319648093841643
1.1329423264907137
1.1329423264907137
1.1319648093841643
1.130987292277615
1.1280547409579669
1.1270772238514175
1.1270772238514175
1.1231671554252198
1.1173020527859236
1.1094819159335287
1.0987292277614855
1.0850439882697946
1.0694037145650048
1.0547409579667644
1.0439882697947214
1.0410557184750733
1.0527859237536656
1.078201368523949
1.121212121212121
1.1935483870967742
1.2991202346041055
1.436950146627566
1.603128054740958
1.790811339198436
1.9902248289345064
2.189638318670577
2.378299120234604
2.5454545454545454
2.684261974584555
2.789833822091887
2.8563049853372435
2.89247311827957
2.911045943304008
2.913000977517106
2.9012707722385143
2.878787878787879
2.8484848484848486
2.812316715542522
2.7702834799608995
2.721407624633431
2.664711632453568
2.60019550342131
2.5347018572825024
2.466275659824047
2.388074291300098
2.3059628543499517
2.222873900293255
2.1417399804496577
2.065493646138808
1.997067448680352
1.9374389051808407
1.8885630498533723
1.8504398826979471
1.8211143695014664
1.7996089931573802
1.7859237536656891
1.7771260997067448
1.7702834799608993
1.7634408602150538
1.7565982404692082
1.7487781036168133
1.7390029325513197
1.726295210166178
1.7116324535679377
1.6950146627565983
1.6744868035190617
1.6500488758553276
1.6275659824046922
1.603128054740958
1.5718475073313782
1.5356793743890518
1.4975562072336266
1.4594330400782014
1.4213098729227762
1.3861192570869991
1.35386119257087
1.3255131964809383
1.3010752688172045
1.278592375366569
1.2580645161290325
1.2443792766373412
1.2336265884652982
1.2228739002932552
1.2130987292277615
1.203323558162268
1.1945259042033236
1.1857282502443791
1.1788856304985338
1.1730205278592376
1.166177908113392
1.1593352883675463
1.152492668621701
1.1495601173020529
1.1466275659824048
1.1397849462365592
1.130987292277615
1.1202346041055715
1.1085043988269794
1.096774193548387
1.0840664711632453
1.0703812316715542
1.0557184750733135
1.040078201368524
1.0283479960899315
1.024437927663734
1.032258064516129
1.0547409579667644
1.0987292277614855
1.1700879765395895
1.2746823069403714
1.4115347018572826
1.5777126099706744
1.7673509286412512
1.970674486803519
2.174975562072336
2.3704789833822093
2.5454545454545454
2.67644183773216
2.7702834799608995
2.8475073313782997
2.9012707722385143
2.9286412512218964
2.932551319648094
2.917888563049853
2.889540566959922
2.852394916911046
2.809384164222874
2.760508308895406
2.7067448680351904
2.6471163245356792
2.589442815249267
2.529814271749756
2.462365591397849
2.3870967741935485
2.3088954056695994
2.2297165200391005
2.1524926686217007
2.080156402737048
2.0146627565982405
1.9579667644183771
1.9090909090909087
1.869012707722385
1.839687194525904
1.818181818181818
1.7996089931573802
1.782991202346041
1.7683284457478006
1.75366568914956
1.737047898338221
1.7194525904203324
1.699902248289345
1.678396871945259
1.6559139784946235
1.632453567937439
1.607038123167155
1.58455522971652
1.5620723362658846
1.5347018572825024
1.504398826979472
1.4721407624633431
1.4389051808406648
1.4056695992179864
1.3734115347018572
1.3421309872922775
1.313782991202346
1.2873900293255132
1.2619745845552297
1.2434017595307918
1.2287390029325511
1.2130987292277615
1.1964809384164223
1.1808406647116323
1.1671554252199414
1.155425219941349
1.1466275659824048
1.13880742913001
1.133919843597263
1.1300097751710656
1.1270772238514175
1.1241446725317692
1.1241446725317692
1.1241446725317692
1.121212121212121
1.1163245356793745
1.1085043988269794
1.0977517106549364
1.083088954056696
1.0635386119257086
1.0410557184750733
1.0166177908113392
0.9912023460410556
0.9687194525904204
0.9550342130987292
0.9501466275659824
0.9521016617790812
0.9696969696969696
1.007820136852395
1.0733137829912025
1.1710654936461389
1.3010752688172045
1.4613880742913
1.64613880742913
1.8484848484848484
2.0547409579667644
2.2531769305962857
2.412512218963832
2.5405669599217986
2.656891495601173
2.7497556207233624
2.8152492668621703
2.8533724340175954
2.8690127077223853
2.8670576735092865
2.8533724340175954
2.831867057673509
2.803519061583578
2.771260997067449
2.736070381231672
2.6959921798631474
2.6480938416422286
2.592375366568915
2.529814271749756
2.4604105571847508
2.3851417399804498
2.3069403714565007
2.228739002932551
2.1515151515151514
2.080156402737048
2.0146627565982405
1.962854349951124
1.920821114369501
1.8836754643206255
1.8533724340175952
1.827956989247312
1.8074291300097751
1.7898338220918866
1.7741935483870968
1.7595307917888563
1.7458455522971652
1.7311827956989247
1.715542521994135
1.6979472140762464
1.6813294232649072
1.6637341153470186
1.6412512218963833
1.6158357771260996
1.5865102639296187
1.555229716520039
1.52297165200391
1.4916911045943304
1.4604105571847508
1.43108504398827
1.401759530791789
1.3743890518084063
1.3509286412512218
1.3304007820136852
1.305962854349951
1.281524926686217
1.2580645161290325
1.2365591397849462
1.217008797653959
1.2003910068426198
1.1857282502443791
1.173998044965787
1.164222873900293
1.1564027370478984
1.1495601173020529
1.1456500488758554
1.144672531769306
1.1407624633431086
1.1358748778103618
1.1319648093841643
1.1270772238514175
1.121212121212121
1.1143695014662756
1.10752688172043
1.0987292277614855
1.0899315738025417
1.0801564027370478
1.0733137829912025
1.0684261974584557
1.0586510263929618
1.0488758553274682
1.0449657869012707
1.0527859237536656
1.0791788856304985
1.130987292277615
1.2130987292277615
1.3284457478005864
1.4760508308895406
1.651026392961877
1.8455522971652003
2.022482893450636
2.185728250244379
2.360703812316716
2.525904203323558
2.6695992179863146
2.78494623655914
2.8690127077223853
2.9237536656891496
2.951124144672532
2.956989247311828
2.943304007820137
2.9159335288367547
2.8807429130009776
2.8396871945259043
2.791788856304985
2.7390029325513194
2.681329423264907
2.6177908113391983
2.5464320625610948
2.4682306940371457
2.3851417399804498
2.30791788856305
2.2355816226783967
2.161290322580645
2.090909090909091
2.0332355816226784
1.986314760508309
1.9442815249266865
1.911045943304008
1.8866080156402736
1.8699902248289344
1.8602150537634408
1.8533724340175952
1.847507331378299
1.8406647116324533
1.8318670576735088
1.822091886608016
1.812316715542522
1.801564027370479
1.7849462365591398
1.7644183773216031
1.739980449657869
1.7126099706744868
1.6823069403714566
1.6500488758553276
1.616813294232649
1.58455522971652
1.5532746823069403
1.52297165200391
1.4946236559139785
1.4711632453567938
1.4506353861192571
1.4281524926686218
1.4056695992179864
1.3812316715542523
1.3577712609970674
1.3362658846529814
1.3157380254154447
1.2961876832844574
1.278592375366569
1.262952101661779
1.2502443792766371
1.2434017595307918
1.238514173998045
1.2316715542521994
1.2238514173998043
1.2179863147605083
1.2130987292277615
1.2082111436950147
1.2023460410557183
1.195503421309873
1.187683284457478
1.1788856304985338
1.1681329423264908
1.155425219941349
1.1466275659824048
1.1397849462365592
1.1300097751710656
1.1192570869990224
1.1124144672531768
1.1124144672531768
1.1231671554252198
1.1515151515151516
1.2043010752688172
1.2854349951124144
1.3978494623655917
1.542521994134897
1.6881720430107527
1.8406647116324533
2.0234604105571847
2.218963831867057
2.410557184750733
2.5855327468230693
2.735092864125122
2.854349951124145
2.940371456500489
2.994134897360704
3.021505376344086
3.027370478983382
3.016617790811339
2.994134897360704
2.962854349951124
2.9237536656891496
2.877810361681329
2.823069403714565
2.760508308895406
2.689149560117302
2.610948191593353
2.5268817204301075
2.4389051808406648
2.3499511241446727
2.2629521016617797
2.187683284457478
2.1221896383186705
2.056695992179863
1.997067448680352
1.946236559139785
1.903225806451613
1.868035190615836
1.8416422287390029
1.823069403714565
1.8103616813294232
1.8025415444770283
1.7956989247311828
1.790811339198436
1.7869012707722385
1.7820136852394917
1.7741935483870968
1.7634408602150538
1.7487781036168133
1.729227761485826
1.7057673509286413
1.6793743890518085
1.6480938416422288
1.6138807429130009
1.576735092864125
1.5386119257087
1.5063538611925709
1.478005865102639
1.447702834799609
1.4173998044965788
1.3870967741935485
1.3577712609970674
1.3294232649071358
1.303030303030303
1.278592375366569
1.2561094819159335
1.2375366568914956
1.2228739002932552
1.2150537634408602
1.2111436950146628
1.2072336265884651
1.2023460410557183
1.198435972629521
1.1935483870967742
1.187683284457478
1.181818181818182
1.1759530791788857
1.1691104594330402
1.163245356793744
1.1564027370478984
1.1495601173020529
1.1456500488758554
1.142717497556207
1.1358748778103618
1.1251221896383188
1.1124144672531768
1.0977517106549364
1.0850439882697946
1.0791788856304985
1.0840664711632453
1.1085043988269794
1.1583577712609971
1.238514173998045
1.3313782991202343
1.4457478005865103
1.5992179863147604
1.7810361681329423
1.9804496578690127
2.1837732160312804
2.378299120234604
2.5513196480938416
2.6959921798631474
2.807429130009776
2.884652981427175
2.930596285434995
2.9501466275659824
2.948191593352884
2.930596285434995
2.905180840664712
2.873900293255132
2.8367546432062563
2.7947214076246336
2.747800586510264
2.6940371456500487
2.632453567937439
2.5640273704789838
2.4887585532746823
2.410557184750733
2.3391984359726297
2.272727272727273
2.2023460410557183
2.134897360703812
2.072336265884653
2.0175953079178885
1.970674486803519
1.9315738025415443
1.8993157380254155
1.8729227761485825
1.8504398826979471
1.8299120234604105
1.8113391984359728
1.7956989247311828
1.7820136852394917
1.7683284457478006
1.75366568914956
1.7380254154447703
1.7204301075268815
1.7008797653958945
1.678396871945259
1.6529814271749756
1.6256109481915937
1.5962854349951123
1.565982404692082
1.5405669599217986
1.517106549364614
1.4887585532746823
1.458455522971652
1.4281524926686218
1.3978494623655917
1.3685239491691104
1.3421309872922775
1.3186705767350928
1.2971652003910068
1.2776148582600195
1.260019550342131
1.2434017595307918
1.2326490713587488
1.224828934506354
1.2150537634408602
1.2043010752688172
1.1935483870967742
1.18475073313783
1.176930596285435
1.1710654936461389
1.1652003910068427
1.160312805474096
1.155425219941349
1.1495601173020529
1.147605083088954
1.1466275659824048
1.142717497556207
1.1358748778103618
1.1270772238514175
1.115347018572825
1.1026392961876832
1.088954056695992
1.078201368523949
1.0733137829912025
1.0791788856304985
1.1006842619745845
1.144672531769306
1.2043010752688172
1.284457478005865
1.4037145650048877
1.5581622678396871
1.7409579667644184
1.9413489736070384
2.147605083088954
2.346041055718475
2.525904203323558
2.678396871945259
2.7996089931573804
2.887585532746823
2.93841642228739
2.961876832844575
2.9696969696969697
2.9501466275659824
2.911045943304008
2.870967741935484
2.8269794721407626
2.7781036168132944
2.7233626588465296
2.662756598240469
2.595307917888563
2.52297165200391
2.444770283479961
2.3714565004887587
2.302052785923754
2.2277614858260018
2.1544477028347995
2.0840664711632453
2.0195503421309877
1.963831867057673
1.9159335288367547
1.8758553274682308
1.8435972629521016
1.8162267839687196
1.793743890518084
1.7771260997067448
1.7644183773216031
1.7517106549364614
1.7390029325513197
1.726295210166178
1.7116324535679377
1.6959921798631477
1.6774193548387095
1.6549364613880744
1.6304985337243405
1.6050830889540566
1.5796676441837731
1.555229716520039
1.533724340175953
1.5141739980449658
1.490713587487781
1.4643206256109482
1.435972629521017
1.4076246334310851
1.3792766373411536
1.3519061583577712
1.3255131964809383
1.3010752688172045
1.278592375366569
1.2570869990224829
1.241446725317693
1.2287390029325511
1.2150537634408602
1.203323558162268
1.1935483870967742
1.1857282502443791
1.1808406647116323
1.176930596285435
1.173998044965787
1.1700879765395895
1.1652003910068427
1.1593352883675463
1.1515151515151516
1.1456500488758554
1.1378299120234605
1.1241446725317692
1.1065493646138806
1.086021505376344
1.064516129032258
1.043010752688172
1.0224828934506354
1.002932551319648
0.9872922776148584
0.9775171065493646
0.978494623655914
0.9921798631476052
1.0224828934506354
1.078201368523949
1.1652003910068427
1.2854349951124144
1.4389051808406648
1.619745845552297
1.8191593352883677
2.026392961876833
2.2297165200391005
2.418377321603128
2.5806451612903225
2.7126099706744866
2.8025415444770285
2.8582600195503423
2.897360703812317
2.917888563049853
2.921798631476051
2.911045943304008
2.8885630498533725
2.8563049853372435
2.8152492668621703
2.766373411534702
2.710654936461388
2.649071358748778
2.587487781036168
2.5239491691104594
2.453567937438905
2.378299120234604
2.302052785923754
2.2277614858260018
2.156402737047898
2.089931573802541
2.0303030303030303
1.9775171065493649
1.9315738025415443
1.89247311827957
1.8621700879765395
1.8387096774193548
1.818181818181818
1.8005865102639296
1.7849462365591398
1.7712609970674489
1.7575757575757576
1.7438905180840665
1.7282502443792769
1.710654936461388
1.6911045943304008
1.6705767350928642
1.6471163245356797
1.6256109481915937
1.6041055718475072
1.5777126099706744
1.547409579667644
1.5151515151515151
1.4819159335288368
1.447702834799609
1.414467253176931
1.3822091886608017
1.3528836754643203
1.3255131964809383
1.3010752688172045
1.284457478005865
1.2727272727272727
1.2590420332355816
1.2443792766373412
1.2316715542521994
1.219941348973607
1.2101661779081134
1.2023460410557183
1.1945259042033236
1.1867057673509287
1.1788856304985338
1.1700879765395895
1.1612903225806452
1.1564027370478984
1.152492668621701
1.1456500488758554
1.1368523949169111
1.126099706744868
1.1133919843597262
1.0987292277614855
1.083088954056696
1.0664711632453567
1.0498533724340176
1.0332355816226784
1.0205278592375366
1.0166177908113392
1.0195503421309873
1.0312805474095796
1.0596285434995112
1.1124144672531768
1.1925708699902249
1.303030303030303
1.4437927663734116
1.6109481915933528
1.7986314760508308
1.9951124144672527
2.189638318670577
2.372434017595308
2.5161290322580645
2.627565982404692
2.7282502443792764
2.806451612903226
2.859237536656892
2.8885630498533725
2.897360703812317
2.8885630498533725
2.868035190615836
2.838709677419355
2.801564027370479
2.7565982404692084
2.7096774193548385
2.658846529814272
2.598240469208211
2.530791788856305
2.4574780058651027
2.380254154447703
2.3010752688172045
2.2238514173998043
2.1495601173020527
2.081133919843597
2.0195503421309877
1.964809384164223
1.9178885630498532
1.8807429130009776
1.8504398826979471
1.8240469208211143
1.8025415444770283
1.7839687194525904
1.76930596285435
1.7575757575757576
1.7458455522971652
1.7341153470185728
1.7204301075268815
1.7067448680351909
1.6920821114369502
1.6774193548387095
1.6608015640273706
1.6412512218963833
1.619745845552297
1.5943304007820136
1.5669599217986314
1.5386119257087
1.5083088954056696
1.478005865102639
1.447702834799609
1.418377321603128
1.388074291300098
1.3577712609970674
1.3343108504398826
1.313782991202346
1.2913000977517106
1.2688172043010753
1.2482893450635386
1.23069403714565
1.217008797653959
1.206256109481916
1.198435972629521
1.1935483870967742
1.1896383186705768
1.1867057673509287
1.1867057673509287
1.187683284457478
1.1857282502443791
1.1827956989247312
1.1779081133919844
1.1710654936461389
1.163245356793744
1.1534701857282503
1.142717497556207
1.1319648093841643
1.1192570869990224
1.104594330400782
1.0879765395894427
1.075268817204301
1.0664711632453567
1.0596285434995112
1.06158357771261
1.078201368523949
1.118279569892473
1.187683284457478
1.2913000977517106
1.4281524926686218
1.606060606060606
1.812316715542522
2.024437927663734
2.207233626588465
2.3685239491691106
2.533724340175953
2.6852394916911044
2.812316715542522
2.9100684261974585
2.975562072336266
3.010752688172043
3.0205278592375366
3.010752688172043
2.9853372434017595
2.949169110459433
2.905180840664712
2.859237536656892
2.8103616813294234
2.7546432062561097
2.6911045943304006
2.621700879765396
2.5454545454545454
2.4652981427174976
2.3822091886608017
2.2991202346041058
2.217986314760508
2.142717497556207
2.074291300097752
2.0195503421309877
1.9765395894428155
1.93841642228739
1.9071358748778104
1.8836754643206255
1.866080156402737
1.8533724340175952
1.842619745845552
1.83088954056696
1.8191593352883677
1.8054740957966764
1.7888563049853372
1.76930596285435
1.7517106549364614
1.7341153470185728
1.7126099706744868
1.6881720430107527
1.66177908113392
1.6334310850439884
1.6041055718475072
1.573802541544477
1.542521994134897
1.5102639296187683
1.478983382209189
1.4486803519061584
1.423264907135875
1.4027370478983383
1.380254154447703
1.3587487781036167
1.33822091886608
1.3206256109481915
1.3040078201368523
1.2873900293255132
1.270772238514174
1.2531769305962854
1.2365591397849462
1.2218963831867058
1.2082111436950147
1.198435972629521
1.1925708699902249
1.1867057673509287
1.181818181818182
1.1788856304985338
1.176930596285435
1.1749755620723363
1.1730205278592376
1.1691104594330402
1.1622678396871946
1.152492668621701
1.1378299120234605
1.126099706744868
1.1143695014662756
1.0977517106549364
1.0811339198435972
1.0684261974584557
1.067448680351906
1.083088954056696
1.1221896383186705
1.1906158357771262
1.29227761485826
1.4281524926686218
1.5943304007820136
1.7565982404692082
1.919843597262952
2.1094819159335287
2.304007820136853
2.486803519061584
2.64613880742913
2.774193548387097
2.868035190615836
2.927663734115347
2.956989247311828
2.962854349951124
2.951124144672532
2.927663734115347
2.8963831867057674
2.860215053763441
2.8181818181818183
2.771260997067449
2.719452590420332
2.658846529814272
2.591397849462365
2.5180840664711632
2.439882697947214
2.357771260997068
2.274682306940372
2.193548387096774
2.124144672531769
2.0625610948191597
2.0009775171065494
1.945259042033236
1.895405669599218
1.8533724340175952
1.8191593352883677
1.7898338220918866
1.7653958944281525
1.7448680351906158
1.7282502443792769
1.7135874877810362
1.6989247311827955
1.6871945259042034
1.6764418377321604
1.6637341153470186
1.6490713587487782
1.6314760508308896
1.611925708699902
1.5894428152492668
1.564027370478983
1.5376344086021505
1.509286412512219
1.4809384164222874
1.4535679374389052
1.43108504398827
1.412512218963832
1.3919843597262953
1.370478983382209
1.3479960899315735
1.3264907135874875
1.3040078201368523
1.281524926686217
1.2590420332355816
1.238514173998045
1.2189638318670577
1.2003910068426198
1.1837732160312806
1.1730205278592376
1.1671554252199414
1.160312805474096
1.155425219941349
1.1534701857282503
1.1534701857282503
1.1544477028347997
1.155425219941349
1.155425219941349
1.1534701857282503
1.1495601173020529
1.1436950146627567
1.13880742913001
1.133919843597263
1.1231671554252198
1.1094819159335287
1.0948191593352885
1.0801564027370478
1.0684261974584557
1.0654936461388074
1.0772238514173995
1.1094819159335287
1.1710654936461389
1.2649071358748778
1.3919843597262953
1.525904203323558
1.6715542521994136
1.8523949169110456
2.050830889540567
2.251221896383187
2.4408602150537635
2.6080156402737047
2.745845552297165
2.8514173998044967
2.9227761485826003
2.964809384164223
2.9804496578690127
2.9745845552297165
2.95405669599218
2.924731182795699
2.887585532746823
2.8426197458455524
2.791788856304985
2.735092864125122
2.6715542521994133
2.601173020527859
2.5249266862170088
2.444770283479961
2.361681329423265
2.27761485826002
2.203323558162268
2.1358748778103616
2.0684261974584555
2.005865102639296
1.951124144672532
1.905180840664712
1.869012707722385
1.8416422287390029
1.822091886608016
1.8084066471163245
1.7976539589442817
1.7878787878787878
1.780058651026393
1.772238514173998
1.7634408602150538
1.7526881720430108
1.7390029325513197
1.7233626588465298
1.7038123167155426
1.6803519061583578
1.6529814271749756
1.6236559139784943
1.5933528836754642
1.5620723362658846
1.530791788856305
1.5053763440860215
1.482893450635386
1.458455522971652
1.434017595307918
1.409579667644184
