ppg
1.1906158357771262
1.1935483870967742
1.1935483870967742
1.195503421309873
1.1994134897360704
1.2082111436950147
1.2287390029325511
1.260019550342131
1.3088954056695992
1.3900293255131966
1.500488758553275
1.6392961876832846
1.8005865102639296
1.9745845552297163
2.1515151515151514
2.32355816226784
2.4858260019550342
2.6295210166177907
2.7497556207233624
2.835777126099707
2.897360703812317
2.9530791788856305
2.995112414467253
3.024437927663734
3.0439882697947214
3.0547409579667644
3.058651026392962
3.0576735092864125
3.053763440860215
3.046920821114369
3.035190615835777
3.021505376344086
3.004887585532747
2.9853372434017595
2.964809384164223
2.941348973607038
2.913978494623656
2.881720430107527
2.849462365591398
2.817204301075269
2.7839687194525906
2.7468230694037143
2.701857282502444
2.6510263929618767
2.5992179863147604
2.5425219941348973
2.474095796676442
2.3949169110459434
2.3059628543499517
2.209188660801564
2.10850439882698
2.002932551319648
1.8983382209188664
1.7996089931573802
1.7086999022482894
1.6285434995112416
1.5610948191593352
1.512218963831867
1.47702834799609
1.4467253176930597
1.423264907135875
1.4066471163245358
1.393939393939394
1.380254154447703
1.367546432062561
1.3548387096774193
1.3421309872922775
1.327468230694037
1.3118279569892473
1.2991202346041055
1.2864125122189638
1.270772238514174
1.2512218963831867
1.23069403714565
1.2111436950146628
1.1915933528836755
1.1730205278592376
1.1564027370478984
1.141739980449658
1.130987292277615
1.1221896383186705
1.1143695014662756
1.110459433040078
1.1085043988269794
1.104594330400782
1.099706744868035
1.093841642228739
1.0879765395894427
1.0811339198435972
1.0742913000977516
1.0684261974584557
1.06158357771261
1.0557184750733135
1.0488758553274682
1.04594330400782
1.0439882697947214
1.0420332355816226
1.0391006842619743
1.0342130987292275
1.0283479960899315
1.024437927663734
1.0224828934506354
1.0195503421309873
1.018572825024438
1.0195503421309873
1.021505376344086
1.024437927663734
1.0283479960899315
1.035190615835777
1.0410557184750733
1.0449657869012707
1.0488758553274682
1.0518084066471165
1.0557184750733135
1.0586510263929618
1.0635386119257086
1.067448680351906
1.0694037145650048
1.0703812316715542
1.0742913000977516
1.0791788856304985
1.083088954056696
1.088954056695992
1.0948191593352885
1.1006842619745845
1.1055718475073313
1.1094819159335287
1.1143695014662756
1.1251221896383188
1.1485826001955035
1.1886608015640274
1.2541544477028348
1.3313782991202343
1.4281524926686218
1.563049853372434
1.7253176930596286
1.906158357771261
2.0948191593352883
2.2795698924731185
2.4545454545454546
2.610948191593353
2.7438905180840663
2.8533724340175954
2.940371456500489
2.995112414467253
3.0254154447702835
3.048875855327468
3.065493646138808
3.074291300097752
3.075268817204301
3.072336265884653
3.067448680351906
3.06158357771261
3.0527859237536656
3.038123167155425
3.0234604105571847
3.005865102639296
2.9872922776148583
2.9687194525904204
2.946236559139785
2.918866080156403
2.886608015640274
2.850439882697948
2.812316715542522
2.768328445747801
2.719452590420332
2.664711632453568
2.603128054740958
2.5347018572825024
2.4701857282502444
2.404692082111437
2.326490713587488
2.239491691104594
2.144672531769306
2.0439882697947214
1.943304007820137
1.8484848484848484
1.758553274682307
1.6803519061583578
1.6158357771260996
1.564027370478983
1.5268817204301075
1.498533724340176
1.4731182795698925
1.452590420332356
1.4379276637341154
1.4252199413489737
1.412512218963832
1.3998044965786902
1.3870967741935485
1.3724340175953078
1.35386119257087
1.3333333333333333
1.313782991202346
1.2991202346041055
1.2883675464320623
1.273704789833822
1.2561094819159335
1.2375366568914956
1.217008797653959
1.1974584555229717
1.1808406647116323
1.1700879765395895
1.1612903225806452
1.1534701857282503
1.0987292277614855
1.1026392961876832
1.1094819159335287
1.115347018572825
1.1221896383186705
1.1280547409579669
1.133919843597263
1.1407624633431086
1.1466275659824048
1.152492668621701
1.1593352883675463
1.1652003910068427
1.1710654936461389
1.1779081133919844
1.1827956989247312
1.1837732160312806
1.1808406647116323
1.1779081133919844
1.1779081133919844
1.1827956989247312
1.195503421309873
1.2258064516129032
1.2795698924731185
1.3607038123167154
1.4711632453567938
1.608993157380254
1.7429130009775171
1.8778103616813293
2.037145650048876
2.204301075268817
2.366568914956012
2.5180840664711632
2.6529814271749754
2.766373411534702
2.857282502443793
2.927663734115347
2.981427174975562
3.0205278592375366
3.047898338220919
3.060606060606061
3.0635386119257086
3.0684261974584555
3.070381231671554
3.067448680351906
3.0576735092864125
3.043010752688172
3.026392961876833
3.0087976539589443
2.991202346041056
2.9696969696969697
2.945259042033236
2.918866080156403
2.8885630498533725
2.855327468230694
2.8181818181818183
2.7781036168132944
2.7341153470185726
2.686217008797654
2.631476050830889
2.5698924731182795
2.501466275659824
2.426197458455523
2.345063538611926
2.257086999022483
2.1739980449657867
2.09188660801564
1.9980449657869013
1.903225806451613
1.8132942326490715
1.7311827956989247
1.6608015640273706
1.6041055718475072
1.5591397849462365
1.5239491691104594
1.498533724340176
1.4809384164222874
1.4711632453567938
1.4623655913978495
1.452590420332356
1.4408602150537635
1.4271749755620724
1.4115347018572826
1.3958944281524928
1.3812316715542523
1.3665689149560116
1.3499511241446724
1.3304007820136852
1.3098729227761483
1.289345063538612
1.2727272727272727
1.2609970674486803
1.249266862170088
1.2365591397849462
1.2238514173998043
1.2121212121212122
1.2013685239491692
1.1925708699902249
1.181818181818182
1.1700879765395895
1.1612903225806452
1.1544477028347997
1.1505376344086022
1.1485826001955035
1.144672531769306
1.1397849462365592
1.133919843597263
1.1280547409579669
1.1221896383186705
1.115347018572825
1.110459433040078
1.1065493646138806
1.1016617790811338
1.0957966764418376
1.0928641251221896
1.0948191593352885
1.0977517106549364
1.1006842619745845
1.104594330400782
1.110459433040078
1.1163245356793745
1.1221896383186705
1.1300097751710656
1.13880742913001
1.1456500488758554
1.152492668621701
1.160312805474096
1.1700879765395895
1.1788856304985338
1.1827956989247312
1.18475073313783
1.1857282502443791
1.1867057673509287
1.1867057673509287
1.1867057673509287
1.1867057673509287
1.1867057673509287
1.1867057673509287
1.1867057673509287
1.1886608015640274
1.1915933528836755
1.1974584555229717
1.2140762463343109
1.249266862170088
1.3079178885630498
1.396871945259042
1.517106549364614
1.6656891495601174
1.8328445747800584
2.0087976539589443
2.1847507331378297
2.3548387096774195
2.493646138807429
2.606060606060606
2.7155425219941347
2.8084066471163247
2.8826979472140764
2.940371456500489
2.983382209188661
3.013685239491691
3.034213098729228
3.047898338220919
3.0576735092864125
3.0625610948191597
3.056695992179863
3.04594330400782
3.038123167155425
3.027370478983382
3.0127077223851417
2.9960899315738025
2.975562072336266
2.951124144672532
2.924731182795699
2.8944281524926687
2.8611925708699903
2.8240469208211145
2.7839687194525906
2.7419354838709675
2.6959921798631474
2.643206256109482
2.58455522971652
2.5180840664711632
2.442815249266862
2.3597262952101663
2.270772238514174
2.1730205278592374
2.069403714565005
1.964809384164223
1.8631476050830889
1.7781036168132942
1.704789833822092
1.6334310850439884
1.573802541544477
1.5249266862170088
1.4848484848484849
1.452590420332356
1.4271749755620724
1.4066471163245358
1.3900293255131966
1.375366568914956
1.3616813294232648
1.346041055718475
1.3304007820136852
1.3147605083088951
1.2942326490713587
1.2717497556207231
1.2482893450635386
1.2238514173998043
1.2023460410557183
1.1837732160312806
1.1671554252199414
1.152492668621701
1.13880742913001
1.1251221896383188
1.115347018572825
1.10752688172043
1.0977517106549364
1.0156402737047898
1.0127077223851415
1.007820136852395
1.0058651026392962
1.0068426197458455
1.0087976539589445
1.0127077223851415
1.0175953079178883
1.0234604105571847
1.029325513196481
1.0371456500488758
1.0449657869012707
1.0527859237536656
1.0596285434995112
1.0664711632453567
1.0733137829912025
1.078201368523949
1.0811339198435972
1.0811339198435972
1.078201368523949
1.075268817204301
1.0762463343108504
1.0840664711632453
1.1026392961876832
1.13880742913001
1.1994134897360704
1.289345063538612
1.4076246334310851
1.5503421309872922
1.710654936461388
1.881720430107527
2.053763440860215
2.2218963831867056
2.3792766373411536
2.5190615835777126
2.624633431085044
2.7038123167155423
2.776148582600196
2.834799608993157
2.878787878787879
2.9120234604105573
2.9345063538611926
2.948191593352884
2.9550342130987293
2.956011730205278
2.9530791788856305
2.949169110459433
2.9374389051808407
2.919843597262952
2.902248289345064
2.881720430107527
2.8582600195503423
2.833822091886608
2.8084066471163247
2.779081133919844
2.745845552297165
2.70772238514174
2.667644183773216
2.6236559139784945
2.575757575757576
2.5112414467253177
2.452590420332356
2.403714565004888
2.340175953079179
2.2668621700879767
2.1837732160312804
2.0948191593352883
2.0009775171065494
1.903225806451613
1.8074291300097751
1.715542521994135
1.6334310850439884
1.5698924731182795
1.521994134897361
1.478005865102639
1.4418377321603129
1.4134897360703813
1.391006842619746
1.375366568914956
1.3636363636363635
1.3548387096774193
1.3470185728250244
1.3372434017595307
1.3264907135874875
1.313782991202346
1.3010752688172045
1.289345063538612
1.2727272727272727
1.252199413489736
1.2316715542521994
1.2130987292277615
1.195503421309873
1.1798631476050832
1.164222873900293
1.1505376344086022
1.1397849462365592
1.130987292277615
1.1251221896383188
1.1192570869990224
1.1114369501466277
1.104594330400782
1.0987292277614855
1.0928641251221896
1.0869990224828934
1.0821114369501466
1.078201368523949
1.075268817204301
1.0733137829912025
1.0713587487781036
1.067448680351906
1.0654936461388074
1.067448680351906
1.0684261974584557
1.0654936461388074
1.064516129032258
1.0635386119257086
1.0606060606060606
1.0557184750733135
1.0527859237536656
1.0518084066471165
1.0498533724340176
1.0488758553274682
1.050830889540567
1.0557184750733135
1.0576735092864125
1.0586510263929618
1.0606060606060606
1.064516129032258
1.0694037145650048
1.075268817204301
1.0811339198435972
1.0869990224828934
1.0928641251221896
1.0987292277614855
1.1055718475073313
1.1143695014662756
1.121212121212121
1.1280547409579669
1.133919843597263
1.1397849462365592
1.144672531769306
1.1466275659824048
1.1495601173020529
1.1534701857282503
1.1612903225806452
1.1779081133919844
1.209188660801564
1.2531769305962854
1.3147605083088951
1.4056695992179864
1.525904203323558
1.6705767350928642
1.8347996089931573
2.0097751710654936
2.1818181818181817
2.3440860215053765
2.490713587487781
2.618768328445748
2.7262952101661777
2.7996089931573804
2.849462365591398
2.895405669599218
2.9335288367546437
2.960899315738025
2.979472140762464
2.9902248289345064
2.994134897360704
2.9931573802541545
2.989247311827957
2.98435972629521
2.9775171065493646
2.9667644183773216
2.949169110459433
2.9286412512218964
2.90811339198436
2.884652981427175
2.8563049853372435
2.8240469208211145
2.7869012707722387
2.744868035190616
2.699902248289345
2.652003910068426
2.60019550342131
2.544477028347996
2.489736070381232
2.432062561094819
2.366568914956012
2.29227761485826
2.1847507331378297
2.083088954056696
2.006842619745845
1.921798631476051
1.835777126099707
1.75366568914956
1.678396871945259
1.6129032258064515
1.5591397849462365
1.521016617790811
1.4946236559139785
1.4721407624633431
1.4535679374389052
1.4379276637341154
1.4242424242424243
1.4105571847507332
1.3949169110459434
1.3792766373411536
1.3626588465298142
1.3421309872922775
1.321603128054741
1.3069403714565004
1.2932551319648091
1.2776148582600195
1.2609970674486803
1.2424242424242424
1.2238514173998043
1.206256109481916
1.1896383186705768
1.1779081133919844
1.1710654936461389
1.164222873900293
1.1564027370478984
1.1466275659824048
1.1407624633431086
1.1378299120234605
1.1329423264907137
1.1280547409579669
1.1221896383186705
1.1163245356793745
1.110459433040078
1.104594330400782
1.0987292277614855
1.093841642228739
1.0899315738025417
1.0869990224828934
1.0879765395894427
1.0899315738025417
1.0899315738025417
1.0899315738025417
1.0899315738025417
1.0899315738025417
1.0909090909090908
1.0918866080156402
1.0918866080156402
1.0918866080156402
1.0918866080156402
1.093841642228739
1.0957966764418376
1.1026392961876832
1.1114369501466277
1.118279569892473
1.1251221896383188
1.1300097751710656
1.1348973607038124
1.1407624633431086
1.147605083088954
1.1573802541544478
1.1652003910068427
1.1720430107526882
1.1788856304985338
1.18475073313783
1.1906158357771262
1.1935483870967742
1.195503421309873
1.1964809384164223
1.1935483870967742
1.1896383186705768
1.187683284457478
1.1906158357771262
1.2072336265884651
1.2258064516129032
1.2424242424242424
1.3010752688172045
1.4115347018572826
1.547409579667644
1.7038123167155426
1.8729227761485825
2.04594330400782
2.175953079178885
2.315738025415445
2.4887585532746823
2.627565982404692
2.736070381231672
2.820136852394917
2.873900293255132
2.90811339198436
2.9374389051808407
2.959921798631476
2.975562072336266
2.9853372434017595
2.988269794721408
2.9872922776148583
2.9853372434017595
2.9775171065493646
2.962854349951124
2.9472140762463344
2.9266862170087977
2.8993157380254155
2.870967741935484
2.841642228739003
2.8084066471163247
2.773216031280548
2.735092864125122
2.6911045943304006
2.643206256109482
2.590420332355816
2.533724340175953
2.4711632453567938
2.40078201368524
2.3304007820136854
2.2580645161290325
2.174975562072336
2.081133919843597
1.981427174975562
1.8778103616813293
1.7741935483870968
1.6735092864125125
1.5806451612903225
1.500488758553275
1.4330400782013686
1.3812316715542523
1.3450635386119256
1.3225806451612905
1.3079178885630498
1.2942326490713587
1.281524926686217
1.2688172043010753
1.2551319648093842
1.238514173998045
1.219941348973607
1.2003910068426198
1.1798631476050832
1.1583577712609971
1.13880742913001
1.1241446725317692
1.1124144672531768
1.0977517106549364
1.0811339198435972
1.0635386119257086
1.04594330400782
1.0273704789833822
1.0087976539589445
0.9921798631476052
0.9775171065493646
0.9657869012707724
0.9589442815249268
0.956989247311828
0.9560117302052786
0.95405669599218
0.9530791788856304
0.9521016617790812
0.9521016617790812
0.9481915933528836
0.9433040078201368
0.9413489736070382
0.9403714565004888
0.9393939393939394
0.9393939393939394
0.9393939393939394
0.9423264907135877
0.9472140762463344
0.9491691104594332
0.9501466275659824
0.9511241446725318
0.9511241446725318
0.9511241446725318
0.9511241446725318
0.9511241446725318
0.9511241446725318
0.9511241446725318
0.9530791788856304
0.956989247311828
0.9618768328445748
0.967741935483871
0.9716520039100685
0.9736070381231672
0.9736070381231672
0.9736070381231672
0.9736070381231672
0.9736070381231672
0.9765395894428152
0.9804496578690128
0.9853372434017597
0.9912023460410556
0.997067448680352
1.0
0.9990224828934506
0.9951124144672532
0.9902248289345064
0.989247311827957
0.9980449657869012
1.0224828934506354
1.0694037145650048
1.144672531769306
1.249266862170088
1.3822091886608017
1.5161290322580645
1.6529814271749756
1.8172043010752688
1.992179863147605
2.164222873900293
2.32355816226784
2.462365591397849
2.578690127077224
2.675464320625611
2.7517106549364616
2.807429130009776
2.8475073313782997
2.875855327468231
2.887585532746823
2.8905180840664717
2.89247311827957
2.8905180840664717
2.884652981427175
2.873900293255132
2.8611925708699903
2.8475073313782997
2.8299120234604107
2.8084066471163247
2.7859237536656893
2.7595307917888565
2.727272727272727
2.695014662756598
2.6637341153470184
2.6295210166177907
2.589442815249267
2.5434995112414467
2.4946236559139785
2.442815249266862
2.383186705767351
2.314760508308896
2.239491691104594
2.158357771260997
2.070381231671554
1.988269794721408
1.9071358748778104
1.8162267839687196
1.7223851417399805
1.6314760508308896
1.5493646138807429
1.4760508308895406
1.4134897360703813
1.3655913978494625
1.3294232649071358
1.3020527859237536
1.2825024437927663
1.2697947214076246
1.2619745845552297
1.2531769305962854
1.2424242424242424
1.23069403714565
1.2189638318670577
1.2072336265884651
1.1935483870967742
1.1779081133919844
1.160312805474096
1.142717497556207
1.1251221896383188
1.1065493646138806
1.0928641251221896
1.0811339198435972
1.0684261974584557
1.0557184750733135
1.0420332355816226
1.0283479960899315
1.018572825024438
1.010752688172043
1.0039100684261977
0.997067448680352
0.9912023460410556
0.9853372434017597
0.9824046920821116
0.9804496578690128
0.9765395894428152
0.9716520039100685
0.9657869012707724
0.9618768328445748
0.9579667644183774
0.9550342130987292
0.9530791788856304
0.9521016617790812
0.9521016617790812
0.9521016617790812
0.9521016617790812
0.9530791788856304
0.9550342130987292
0.9560117302052786
0.9550342130987292
0.9530791788856304
0.9521016617790812
0.9521016617790812
0.9521016617790812
0.9521016617790812
0.9530791788856304
0.956989247311828
0.9618768328445748
0.9687194525904204
0.9765395894428152
0.9833822091886608
0.9902248289345064
0.997067448680352
1.002932551319648
1.0087976539589445
1.0156402737047898
1.021505376344086
1.0273704789833822
1.0332355816226784
1.0361681329423265
1.035190615835777
1.0361681329423265
1.0410557184750733
1.050830889540567
1.0742913000977516
1.118279569892473
1.1886608015640274
1.2883675464320623
1.4173998044965788
1.5708699902248289
1.7429130009775171
1.9237536656891496
2.102639296187683
2.251221896383187
2.375366568914956
2.498533724340176
2.610948191593353
2.7067448680351904
2.78494623655914
2.844574780058651
2.8856304985337244
2.913978494623656
2.932551319648094
2.941348973607038
2.943304007820137
2.941348973607038
2.932551319648094
2.920821114369501
2.9120234604105573
2.902248289345064
2.886608015640274
2.8670576735092865
2.8455522971652005
2.822091886608016
2.795698924731183
2.764418377321604
2.7311827956989245
2.695014662756598
2.6578690127077222
2.616813294232649
2.5698924731182795
2.5180840664711632
2.4594330400782014
2.3929618768328447
2.3196480938416424
2.2404692082111435
2.1544477028347995
2.065493646138808
1.9765395894428155
1.8875855327468232
1.7996089931573802
1.726295210166178
1.6627565982404693
1.6001955034213098
1.5454545454545454
1.498533724340176
1.458455522971652
1.4271749755620724
1.4037145650048877
1.3861192570869991
1.3714565004887584
1.3587487781036167
1.346041055718475
1.3362658846529814
1.3284457478005864
1.3186705767350928
1.3079178885630498
1.295210166177908
1.278592375366569
1.2580645161290325
1.2375366568914956
1.219941348973607
1.2072336265884651
1.195503421309873
1.1837732160312806
1.176930596285435
1.1730205278592376
1.1681329423264908
1.163245356793744
1.1564027370478984
1.1466275659824048
1.1378299120234605
1.1300097751710656
1.1231671554252198
1.1173020527859236
1.110459433040078
1.1055718475073313
1.1016617790811338
1.1016617790811338
1.104594330400782
1.104594330400782
1.1016617790811338
1.099706744868035
1.0987292277614855
1.0987292277614855
1.1016617790811338
1.1065493646138806
1.1114369501466277
1.1173020527859236
1.121212121212121
1.126099706744868
1.1319648093841643
1.1358748778103618
1.1397849462365592
1.142717497556207
1.147605083088954
1.152492668621701
1.1583577712609971
1.1612903225806452
1.1622678396871946
1.164222873900293
1.1671554252199414
1.1710654936461389
1.1779081133919844
1.1857282502443791
1.1915933528836755
1.1945259042033236
1.195503421309873
1.1994134897360704
1.2043010752688172
1.206256109481916
1.2072336265884651
1.2082111436950147
1.2072336265884651
1.2052785923753666
1.2072336265884651
1.2179863147605083
1.2443792766373412
1.2913000977517106
1.364613880742913
1.4643206256109482
1.5913978494623655
1.7409579667644184
1.906158357771261
2.0791788856304985
2.251221896383187
2.412512218963832
2.557184750733138
2.6666666666666665
2.750733137829912
2.8289345063538613
2.89247311827957
2.9423264907135875
2.9804496578690127
3.0087976539589443
3.026392961876833
3.035190615835777
3.038123167155425
3.0361681329423265
3.032258064516129
3.022482893450636
3.007820136852395
2.991202346041056
2.973607038123167
2.9530791788856305
2.9286412512218964
2.8993157380254155
2.8670576735092865
2.831867057673509
2.791788856304985
2.7468230694037143
2.696969696969697
2.644183773216031
2.591397849462365
2.5376344086021505
2.4780058651026398
2.409579667644184
2.332355816226784
2.2482893450635384
2.155425219941349
2.056695992179863
1.956989247311828
1.858260019550342
1.7644183773216031
1.6793743890518085
1.611925708699902
1.5581622678396871
1.509286412512219
1.4672531769305963
1.43108504398827
1.4027370478983383
1.383186705767351
1.3636363636363635
1.3450635386119256
1.3304007820136852
1.316715542521994
1.3010752688172045
1.284457478005865
1.2717497556207231
1.2580645161290325
1.2394916911045943
1.219941348973607
1.2003910068426198
1.181818181818182
1.164222873900293
1.1466275659824048
1.1280547409579669
1.110459433040078
1.093841642228739
1.078201368523949
1.067448680351906
1.0625610948191593
1.056695992179863
1.050830889540567
1.0449657869012707
1.0391006842619743
1.0332355816226784
1.0273704789833822
1.021505376344086
1.0166177908113392
1.0146627565982405
1.013685239491691
1.0127077223851415
1.013685239491691
1.0146627565982405
1.013685239491691
1.0127077223851415
1.0127077223851415
1.0127077223851415
1.0127077223851415
1.0127077223851415
1.0127077223851415
1.0127077223851415
1.013685239491691
1.0146627565982405
1.0146627565982405
1.0175953079178883
1.0205278592375366
1.0234604105571847
1.0283479960899315
1.0342130987292275
1.040078201368524
1.04594330400782
1.0518084066471165
1.0557184750733135
1.0596285434995112
1.0625610948191593
1.0654936461388074
1.0713587487781036
1.0772238514173995
1.0821114369501466
1.086021505376344
1.088954056695992
1.0909090909090908
1.088954056695992
1.0850439882697946
1.0811339198435972
1.0811339198435972
1.0879765395894427
1.1114369501466277
1.1466275659824048
1.1964809384164223
1.273704789833822
1.380254154447703
1.5151515151515151
1.6735092864125125
1.847507331378299
2.026392961876833
2.2023460410557183
2.367546432062561
2.5131964809384164
2.638318670576735
2.742913000977517
2.814271749755621
2.86217008797654
2.903225806451613
2.9374389051808407
2.961876832844575
2.9775171065493646
2.986314760508309
2.989247311827957
2.988269794721408
2.983382209188661
2.9745845552297165
2.9530791788856305
2.919843597262952
2.8905180840664717
2.86217008797654
2.834799608993157
2.806451612903226
2.7751710654936463
2.7419354838709675
2.705767350928641
2.667644183773216
2.624633431085044
2.575757575757576
2.5219941348973607
2.464320625610948
2.407624633431085
2.3489736070381237
2.2795698924731185
2.201368523949169
2.115347018572825
2.024437927663734
1.9286412512218964
1.8328445747800584
1.7390029325513197
1.6529814271749756
1.5786901270772238
1.5151515151515151
1.4682306940371457
1.435972629521017
1.409579667644184
1.3890518084066472
1.3743890518084063
1.3655913978494625
1.3587487781036167
1.348973607038123
1.33822091886608
1.327468230694037
1.3157380254154447
1.3040078201368523
1.2942326490713587
1.281524926686217
1.2639296187683284
1.2434017595307918
1.2209188660801564
1.1994134897360704
1.1827956989247312
1.1700879765395895
1.1583577712609971
1.147605083088954
