ppg
1.547409579667644
1.525904203323558
1.5073313782991202
1.4868035190615836
1.466275659824047
1.444770283479961
1.4242424242424243
1.404692082111437
1.3870967741935485
1.370478983382209
1.3528836754643203
1.3362658846529814
1.321603128054741
1.3118279569892473
1.3040078201368523
1.2932551319648091
1.2825024437927663
1.2717497556207231
1.2609970674486803
1.2502443792766371
1.2404692082111437
1.2316715542521994
1.2228739002932552
1.2150537634408602
1.2072336265884651
1.198435972629521
1.1945259042033236
1.1925708699902249
1.187683284457478
1.181818181818182
1.1749755620723363
1.1681329423264908
1.1612903225806452
1.1544477028347997
1.1485826001955035
1.142717497556207
1.1358748778103618
1.1319648093841643
1.1358748778103618
1.1466275659824048
1.166177908113392
1.1994134897360704
1.2502443792766371
1.3196480938416422
1.4076246334310851
1.5112414467253177
1.6285434995112416
1.7546432062561097
1.884652981427175
2.01564027370479
2.1417399804496577
2.247311827956989
2.3382209188660803
2.432062561094819
2.5219941348973607
2.6070381231671558
2.684261974584555
2.7536656891495603
2.817204301075269
2.874877810361681
2.927663734115347
2.9765395894428157
3.021505376344086
3.053763440860215
3.0772238514174
3.104594330400782
3.131964809384164
3.156402737047898
3.175953079178885
3.189638318670577
3.198435972629521
3.20039100684262
3.1955034213098727
3.182795698924731
3.163245356793744
3.136852394916911
3.1055718475073317
3.069403714565005
3.0283479960899315
2.9824046920821115
2.929618768328446
2.8699902248289346
2.806451612903226
2.740957966764418
2.673509286412512
2.606060606060606
2.5405669599217986
2.4789833822091887
2.426197458455523
2.3792766373411536
2.332355816226784
2.286412512218964
2.243401759530792
2.2023460410557183
2.1622678396871944
2.124144672531769
2.0869990224828934
2.048875855327468
2.010752688172043
1.9716520039100685
1.932551319648094
1.8983382209188664
1.8670576735092863
1.8328445747800584
1.796676441837732
1.7595307917888563
1.721407624633431
1.683284457478006
1.6471163245356797
1.6129032258064515
1.5806451612903225
1.5503421309872922
1.521016617790811
1.4975562072336266
1.478005865102639
1.4545454545454546
1.4301075268817205
1.4066471163245358
1.383186705767351
1.3607038123167154
1.3401759530791788
1.321603128054741
1.3040078201368523
1.2864125122189638
1.2688172043010753
1.252199413489736
1.2404692082111437
1.2326490713587488
1.2218963831867058
1.2101661779081134
1.1974584555229717
1.1837732160312806
1.1700879765395895
1.155425219941349
1.1407624633431086
1.1290322580645162
1.1202346041055715
1.1173020527859236
1.1241446725317692
1.141739980449658
1.1710654936461389
1.2160312805474096
1.2776148582600195
1.3528836754643203
1.4408602150537635
1.5395894428152492
1.6441837732160314
1.7165200391006843
1.7683284457478006
1.8435972629521016
1.9149560117302051
1.981427174975562
2.053763440860215
2.124144672531769
2.1915933528836757
2.2531769305962857
2.3088954056695994
2.358748778103617
2.404692082111437
2.4457478005865103
2.4838709677419355
2.5180840664711632
2.548387096774193
2.5698924731182795
2.5855327468230693
2.603128054740958
2.618768328445748
2.63049853372434
2.638318670576735
2.6402737047898337
2.638318670576735
2.631476050830889
2.6177908113391983
2.5962854349951123
2.5669599217986314
2.533724340175953
2.496578690127077
2.4516129032258065
2.401759530791789
2.347018572825025
2.290322580645161
2.232649071358749
2.175953079178885
2.121212121212121
2.069403714565005
2.021505376344086
1.9765395894428155
1.9364613880742916
1.902248289345064
1.871945259042033
1.8406647116324533
1.8093841642228736
1.7771260997067448
1.7458455522971652
1.7135874877810362
1.6823069403714566
1.651026392961877
1.619745845552297
1.587487781036168
1.555229716520039
1.5288367546432062
1.5053763440860215
1.478005865102639
1.4496578690127078
1.4193548387096775
1.3890518084066472
1.3587487781036167
1.3294232649071358
1.300097751710655
1.2727272727272727
1.2473118279569892
1.2228739002932552
1.198435972629521
1.181818181818182
1.1681329423264908
1.1505376344086022
1.1329423264907137
1.1143695014662756
1.096774193548387
1.0801564027370478
1.064516129032258
1.0498533724340176
1.0381231671554252
1.0254154447702837
1.0127077223851415
1.0048875855327468
0.9990224828934506
0.9882697947214076
0.975562072336266
0.9628543499511242
0.9521016617790812
0.9442815249266864
0.9413489736070382
0.9452590420332356
0.9579667644183774
0.9824046920821116
1.0224828934506354
1.078201368523949
1.13880742913001
1.2072336265884651
1.29227761485826
1.3900293255131966
1.4936461388074291
1.5992179863147604
1.7028347996089932
1.8025415444770283
1.8963831867057677
1.981427174975562
2.058651026392962
2.1280547409579667
2.1818181818181817
2.2248289345063537
2.267839687194526
2.3098729227761488
2.347996089931574
2.3822091886608017
2.4144672531769307
2.442815249266862
2.4682306940371457
2.490713587487781
2.509286412512219
2.5249266862170088
2.536656891495601
2.5405669599217986
2.539589442815249
2.536656891495601
2.529814271749756
2.5180840664711632
2.5004887585532747
2.4760508308895406
2.444770283479961
2.406647116324536
2.360703812316716
2.3098729227761488
2.2561094819159337
2.206256109481916
2.158357771260997
2.1065493646138806
2.0527859237536656
2.0009775171065494
1.9501466275659824
1.903225806451613
1.8602150537634408
1.822091886608016
1.7888563049853372
1.7575757575757576
1.7272727272727273
1.6959921798631477
1.6705767350928642
1.64613880742913
1.619745845552297
1.5923753665689149
1.563049853372434
1.5327468230694037
1.501466275659824
1.4711632453567938
1.4418377321603129
1.4134897360703813
1.3851417399804498
1.3587487781036167
1.3372434017595307
1.3186705767350928
1.2981427174975562
1.2776148582600195
1.2561094819159335
1.2346041055718475
1.2121212121212122
1.1915933528836755
1.1730205278592376
1.1564027370478984
1.1407624633431086
1.126099706744868
1.1124144672531768
1.1036168132942326
1.0977517106549364
1.0879765395894427
1.0762463343108504
1.064516129032258
1.0527859237536656
1.0420332355816226
1.0312805474095796
1.0205278592375366
1.0097751710654936
1.0
0.9921798631476052
0.9902248289345064
0.9951124144672532
1.0058651026392962
1.0263929618768328
1.0586510263929618
1.1065493646138806
1.1700879765395895
1.2482893450635386
1.33822091886608
1.436950146627566
1.541544477028348
1.6471163245356797
1.750733137829912
1.8387096774193548
1.9149560117302051
1.994134897360704
2.070381231671554
2.139784946236559
2.203323558162268
2.259042033235582
2.30791788856305
2.3519061583577714
2.389051808406647
2.4222873900293256
2.450635386119257
2.4711632453567938
2.486803519061584
2.505376344086021
2.52297165200391
2.5376344086021505
2.549364613880743
2.5562072336265884
2.558162267839687
2.5542521994134897
2.5454545454545454
2.529814271749756
2.50733137829912
2.4780058651026398
2.4457478005865103
2.409579667644184
2.366568914956012
2.318670576735093
2.2668621700879767
2.2140762463343107
2.161290322580645
2.1094819159335287
2.060606060606061
2.0146627565982405
1.9736070381231672
1.935483870967742
1.9042033235581624
1.87683284457478
1.8484848484848484
1.8191593352883677
1.7898338220918866
1.7605083088954057
1.732160312805474
1.704789833822092
1.6774193548387095
1.651026392961877
1.624633431085044
1.5972629521016617
1.573802541544477
1.552297165200391
1.5278592375366569
1.5024437927663734
1.4760508308895406
1.4506353861192571
1.4242424242424243
1.3988269794721409
1.3734115347018572
1.3499511241446724
1.327468230694037
1.3069403714565004
1.2883675464320623
1.2756598240469208
1.2658846529814272
1.2541544477028348
1.270772238514174
1.2991202346041055
1.3049853372434017
1.3020527859237536
1.29227761485826
1.2805474095796676
1.2688172043010753
1.2561094819159335
1.241446725317693
1.2326490713587488
1.2258064516129032
1.2150537634408602
1.203323558162268
1.1925708699902249
1.181818181818182
1.173998044965787
1.1730205278592376
1.1827956989247312
1.2052785923753666
1.2434017595307918
1.300097751710655
1.3763440860215057
1.457478005865103
1.5464320625610948
1.6549364613880744
1.7741935483870968
1.8993157380254155
2.0254154447702835
2.1495601173020527
2.267839687194526
2.378299120234604
2.4789833822091887
2.5698924731182795
2.652003910068426
2.7155425219941347
2.7653958944281527
2.817204301075269
2.8670576735092865
2.9149560117302054
2.9589442815249267
3.0009775171065494
3.040078201368524
3.075268817204301
3.1065493646138806
3.134897360703812
3.157380254154448
3.174975562072336
3.1818181818181817
3.1808406647116323
3.179863147605083
3.174975562072336
3.164222873900293
3.145650048875855
3.118279569892473
3.085043988269794
3.0439882697947214
2.995112414467253
2.93841642228739
2.87683284457478
2.817204301075269
2.757575757575758
2.6940371456500487
2.6295210166177907
2.565982404692082
2.505376344086021
2.447702834799609
2.393939393939394
2.345063538611926
2.2981427174975564
2.2551319648093844
2.2140762463343107
2.174975562072336
2.142717497556207
2.112414467253177
2.0791788856304985
2.04594330400782
2.0117302052785924
1.9765395894428155
1.9393939393939397
1.9012707722385145
1.865102639296188
1.828934506353861
1.793743890518084
1.7595307917888563
1.7302052785923754
1.7057673509286413
1.678396871945259
1.6490713587487782
1.6217008797653958
1.5962854349951123
1.5718475073313782
1.5483870967741935
1.525904203323558
1.504398826979472
1.4838709677419355
1.4652981427174976
1.4467253176930597
1.4330400782013686
1.4213098729227762
1.4076246334310851
1.392961876832845
1.3782991202346042
1.3636363636363635
1.3479960899315735
1.3333333333333333
1.3186705767350928
1.305962854349951
1.2932551319648091
1.2805474095796676
1.273704789833822
1.2727272727272727
1.2776148582600195
1.2903225806451613
1.3157380254154447
1.359726295210166
1.4213098729227762
1.501466275659824
1.6001955034213098
1.7145650048875856
1.8377321603128052
1.9667644183773216
2.0957966764418376
2.2052785923753664
2.302052785923754
2.403714565004888
2.5024437927663734
2.5943304007820136
2.679374389051808
2.7565982404692084
2.8269794721407626
2.889540566959922
2.9472140762463344
3.0009775171065494
3.048875855327468
3.0840664711632453
3.1114369501466275
3.142717497556207
3.1739980449657867
3.204301075268817
3.23069403714565
3.251221896383187
3.2658846529814274
3.274682306940372
3.275659824046921
3.269794721407625
3.2580645161290325
3.239491691104594
3.2140762463343107
3.1837732160312804
3.145650048875855
3.099706744868035
3.046920821114369
2.9872922776148583
2.921798631476051
2.8533724340175954
2.782991202346041
2.7116324535679373
2.6402737047898337
2.5718475073313782
2.512218963831867
2.4574780058651027
2.403714565004888
2.3519061583577714
2.303030303030303
2.2580645161290325
2.2140762463343107
2.1700879765395893
2.126099706744868
2.083088954056696
2.0410557184750733
2.0
1.959921798631476
1.9257086999022484
1.8944281524926687
1.8592375366568916
1.822091886608016
1.7839687194525904
1.7448680351906158
1.7067448680351909
1.6695992179863148
1.6334310850439884
1.5992179863147604
1.5669599217986314
1.5366568914956011
1.512218963831867
1.490713587487781
1.466275659824047
1.4408602150537635
1.414467253176931
1.3890518084066472
1.3655913978494625
1.343108504398827
1.321603128054741
1.3010752688172045
1.281524926686217
1.262952101661779
1.249266862170088
1.2394916911045943
1.2258064516129032
1.2121212121212122
1.1974584555229717
1.1827956989247312
1.1671554252199414
1.1544477028347997
1.1485826001955035
1.1515151515151516
1.166177908113392
1.1964809384164223
1.2434017595307918
1.300097751710655
1.3695014662756595
1.4613880742913
1.5679374389051808
1.6852394916911049
1.8074291300097751
1.9305962854349952
2.0527859237536656
2.1700879765395893
2.280547409579668
2.380254154447703
2.4711632453567938
2.541544477028348
2.60019550342131
2.659824046920821
2.716520039100684
2.7702834799608995
2.820136852394917
2.8670576735092865
2.911045943304008
2.951124144672532
2.986314760508309
3.016617790811339
3.043010752688172
3.064516129032258
3.075268817204301
3.078201368523949
3.0791788856304985
3.0772238514174
3.070381231671554
3.056695992179863
3.035190615835777
3.005865102639296
2.967741935483871
2.9227761485826003
2.870967741935484
2.812316715542522
2.7536656891495603
2.6959921798631474
2.632453567937439
2.5650048875855327
2.4975562072336266
2.43108504398827
2.366568914956012
2.3059628543499517
2.2502443792766376
2.19941348973607
2.1006842619745845
1.981427174975562
1.9042033235581624
1.8533724340175952
1.8162267839687196
1.7810361681329423
1.7448680351906158
1.7096774193548387
1.6735092864125125
1.6363636363636365
1.6001955034213098
1.564027370478983
1.5278592375366569
1.4926686217008798
1.456500488758553
1.426197458455523
1.3998044965786902
1.3695014662756595
1.33822091886608
1.3069403714565004
1.2776148582600195
1.2512218963831867
1.224828934506354
1.1994134897360704
1.1759530791788857
1.152492668621701
1.1300097751710656
1.10752688172043
1.0909090909090908
1.078201368523949
1.0635386119257086
1.0478983382209188
1.0332355816226784
1.018572825024438
1.0048875855327468
0.9912023460410556
0.9794721407624634
0.9657869012707724
0.9511241446725318
0.9364613880742912
0.9286412512218964
0.9247311827956988
0.919843597262952
0.919843597262952
0.9305962854349952
0.9521016617790812
0.9902248289345064
1.04594330400782
1.1202346041055715
1.2101661779081134
1.313782991202346
1.426197458455523
1.542521994134897
1.6451612903225807
1.7390029325513197
1.8406647116324533
1.9403714565004888
2.034213098729228
2.121212121212121
2.20039100684262
2.270772238514174
2.335288367546432
2.3919843597262958
2.4408602150537635
2.4858260019550342
2.5180840664711632
2.5425219941348973
2.56891495601173
2.595307917888563
2.619745845552297
2.643206256109482
2.6637341153470184
2.6803519061583576
2.6911045943304006
2.6959921798631474
2.6940371456500487
2.6832844574780057
2.665689149560117
2.6422287390029324
2.6129032258064515
2.575757575757576
2.532746823069404
2.4819159335288368
2.4252199413489737
2.364613880742913
2.3010752688172045
2.2355816226783967
2.1710654936461387
2.10850439882698
2.0498533724340176
2.0
1.9579667644183771
1.9159335288367547
1.8758553274682308
1.836754643206256
1.7996089931573802
1.7653958944281525
1.7311827956989247
1.696969696969697
1.6637341153470186
1.6304985337243405
1.5972629521016617
1.563049853372434
1.5347018572825024
1.509286412512219
1.478005865102639
1.4437927663734116
1.4086021505376345
1.3724340175953078
1.3362658846529814
1.3020527859237536
1.2688172043010753
1.2365591397849462
1.2052785923753666
1.173998044965787
1.1515151515151516
1.1348973607038124
1.1143695014662756
1.0918866080156402
1.0713587487781036
1.050830889540567
1.0303030303030305
1.010752688172043
0.9931573802541545
0.975562072336266
0.9589442815249268
0.9413489736070382
0.9247311827956988
0.913978494623656
0.906158357771261
0.895405669599218
0.8836754643206256
0.8719452590420332
0.8602150537634409
0.8494623655913979
0.8406647116324536
0.8347996089931574
0.8347996089931574
0.844574780058651
0.8680351906158358
0.9012707722385142
0.946236559139785
1.0087976539589445
1.088954056695992
1.1837732160312806
1.289345063538612
1.4037145650048877
1.521016617790811
1.6373411534701858
1.7497556207233629
1.8563049853372435
1.95405669599218
2.043010752688172
2.112414467253177
2.1681329423264906
2.2218963831867056
2.271749755620724
2.317693059628544
2.3597262952101663
2.398826979472141
2.4349951124144678
2.4672531769305963
2.496578690127077
2.5219941348973607
2.5434995112414467
2.555229716520039
2.5610948191593352
2.5650048875855327
2.5650048875855327
2.560117302052786
2.550342130987292
2.532746823069404
2.506353861192571
2.474095796676442
2.4349951124144678
2.3900293255131966
2.3382209188660803
2.2883675464320627
2.239491691104594
2.1867057673509285
2.131964809384164
2.078201368523949
2.026392961876833
1.9765395894428155
1.9296187683284456
1.8866080156402736
1.847507331378299
1.812316715542522
1.7790811339198436
1.7468230694037146
1.7194525904203324
1.6950146627565983
1.6695992179863148
1.6422287390029326
1.6148582600195502
1.5865102639296187
1.5571847507331378
1.5268817204301075
1.4965786901270772
1.4652981427174976
1.4349951124144673
1.4056695992179864
1.3822091886608017
1.3616813294232648
1.33822091886608
1.313782991202346
1.2883675464320623
1.2649071358748778
1.2434017595307918
1.2228739002932552
1.2023460410557183
1.1837732160312806
1.166177908113392
1.1505376344086022
1.1348973607038124
1.1241446725317692
1.115347018572825
1.1036168132942326
1.0909090909090908
1.078201368523949
1.0664711632453567
1.056695992179863
1.0478983382209188
1.0391006842619743
1.0303030303030305
1.021505376344086
1.0127077223851415
1.0087976539589445
1.0058651026392962
0.9980449657869012
0.989247311827957
0.9794721407624634
0.9706744868035192
0.9628543499511242
0.9589442815249268
0.9618768328445748
0.9745845552297164
1.0009775171065494
1.043010752688172
1.1026392961876832
1.1691104594330402
1.2443792766373412
1.3421309872922775
1.4545454545454546
1.5747800586510263
1.699902248289345
1.823069403714565
1.9413489736070384
2.0527859237536656
2.1544477028347995
2.24633431085044
2.329423264907136
2.393939393939394
2.4457478005865103
2.4995112414467253
2.550342130987292
2.6715542521994133
2.8260019550342133
2.9237536656891496
2.9902248289345064
3.040078201368524
3.080156402737048
3.112414467253177
3.1378299120234603
3.158357771260997
3.167155425219941
3.16911045943304
3.16911045943304
3.164222873900293
3.1524926686217007
3.1358748778103616
3.112414467253177
3.080156402737048
3.040078201368524
2.994134897360704
2.941348973607038
2.881720430107527
2.8240469208211145
2.766373411534702
2.701857282502444
2.636363636363636
2.572825024437928
2.5102639296187683
2.4516129032258065
2.396871945259042
2.347018572825025
2.3010752688172045
2.257086999022483
2.21505376344086
2.174975562072336
2.139784946236559
2.1065493646138806
2.0684261974584555
2.029325513196481
1.991202346041056
1.9530791788856303
1.9149560117302051
1.8758553274682308
1.835777126099707
1.796676441837732
1.758553274682307
1.721407624633431
1.6911045943304008
1.6656891495601174
1.6383186705767352
1.6080156402737047
1.5786901270772238
1.5503421309872922
1.52297165200391
1.4975562072336266
1.4731182795698925
1.4506353861192571
1.4291300097751711
1.4086021505376345
1.391006842619746
1.3792766373411536
1.370478983382209
1.359726295210166
1.3479960899315735
1.3362658846529814
1.324535679374389
1.3128054740957966
1.3010752688172045
1.2883675464320623
1.2766373411534702
1.2649071358748778
1.2551319648093842
1.2512218963831867
1.249266862170088
1.2443792766373412
1.238514173998045
1.2316715542521994
1.2258064516129032
1.2228739002932552
1.2228739002932552
1.2287390029325511
1.2443792766373412
1.273704789833822
1.3206256109481915
1.3870967741935485
1.4594330400782014
1.5405669599217986
1.6441837732160314
1.7653958944281525
1.8963831867057677
2.03128054740958
2.166177908113392
2.2961876832844577
2.419354838709677
2.532746823069404
2.6373411534701856
2.732160312805474
2.8054740957966766
2.865102639296188
2.9286412512218964
2.9902248289345064
3.0498533724340176
3.1065493646138806
3.160312805474096
3.2082111436950145
3.251221896383187
3.290322580645161
3.3255131964809386
3.355816226783969
3.380254154447703
3.3919843597262958
3.3958944281524928
3.39980449657869
3.39980449657869
3.3958944281524928
3.386119257086999
3.36950146627566
3.346041055718475
3.314760508308896
3.275659824046921
3.2297165200391005
3.175953079178885
3.121212121212121
3.0635386119257086
3.0
2.9335288367546437
2.8641251221896384
2.7947214076246336
2.729227761485826
2.665689149560117
2.6050830889540566
2.548387096774193
2.4946236559139785
2.4457478005865103
2.40078201368524
2.3626588465298144
2.3284457478005867
2.2932551319648096
2.2580645161290325
2.2218963831867056
2.1837732160312804
2.144672531769306
2.103616813294233
2.0625610948191597
2.022482893450636
1.9824046920821117
1.9423264907135875
1.9090909090909087
1.878787878787879
1.8455522971652003
1.8113391984359728
1.7771260997067448
1.7438905180840665
1.7116324535679377
1.6793743890518085
1.6490713587487782
1.6207233626588464
1.5933528836754642
1.5679374389051808
1.5493646138807429
1.5347018572825024
1.5161290322580645
1.495601173020528
1.474095796676442
1.452590420332356
1.4320625610948192
1.412512218963832
1.393939393939394
1.3763440860215057
1.3607038123167154
1.346041055718475
1.3304007820136852
1.3186705767350928
1.3098729227761483
1.2961876832844574
1.281524926686217
1.267839687194526
1.2590420332355816
1.2561094819159335
1.262952101661779
1.2834799608993157
1.3206256109481915
1.3773216031280548
1.4535679374389052
1.5347018572825024
1.6226783968719452
1.7311827956989247
1.8514173998044965
1.9765395894428155
2.101661779081134
2.2238514173998043
2.340175953079179
2.44672531769306
2.5434995112414467
2.63049853372434
2.70772238514174
2.777126099706745
2.8299120234604107
2.8719452590420333
2.916911045943304
2.961876832844575
3.004887585532747
3.04594330400782
3.0840664711632453
3.1192570869990224
3.150537634408602
3.176930596285435
3.1974584555229715
3.2111436950146626
3.2140762463343107
3.210166177908113
3.2052785923753664
3.196480938416422
3.1818181818181817
3.160312805474096
3.131964809384164
3.096774193548387
3.0527859237536656
3.0009775171065494
2.9423264907135875
2.877810361681329
2.8084066471163247
2.742913000977517
2.6803519061583576
2.613880742913001
2.547409579667644
2.4819159335288368
2.421309872922776
2.364613880742913
2.312805474095797
2.2658846529814274
2.222873900293255
2.1818181818181817
2.1407624633431084
2.104594330400782
2.070381231671554
2.0332355816226784
1.9960899315738023
1.9579667644183771
1.9178885630498532
1.87683284457478
1.836754643206256
1.7976539589442817
1.758553274682307
1.721407624633431
1.6842619745845553
1.6490713587487782
1.619745845552297
1.5933528836754642
1.563049853372434
1.5317693059628543
1.499511241446725
1.469208211143695
1.4408602150537635
1.4134897360703813
1.3870967741935485
1.3616813294232648
1.281524926686217
1.176930596285435
1.121212121212121
1.0899315738025417
1.0664711632453567
1.0478983382209188
1.032258064516129
1.0175953079178883
1.002932551319648
0.989247311827957
0.9745845552297164
0.9589442815249268
0.9423264907135877
0.927663734115347
0.9149560117302052
0.9081133919843596
0.906158357771261
0.9051808406647116
0.9110459433040078
0.9266862170087976
0.9560117302052786
1.0019550342130987
1.0635386119257086
1.1407624633431086
1.2316715542521994
1.3343108504398826
1.444770283479961
1.5454545454545454
1.6392961876832846
1.7419354838709675
1.8455522971652003
1.9442815249266865
2.0361681329423265
2.1192570869990224
2.1945259042033234
2.26197458455523
2.3225806451612905
2.377321603128055
2.426197458455523
2.4701857282502444
2.5034213098729228
2.529814271749756
2.558162267839687
2.587487781036168
2.613880742913001
2.636363636363636
2.654936461388074
2.668621700879765
2.677419354838709
2.6803519061583576
2.678396871945259
2.668621700879765
2.652003910068426
2.63049853372434
2.603128054740958
2.5698924731182795
2.5288367546432062
2.4809384164222874
2.4281524926686218
2.3704789833822093
2.310850439882698
2.249266862170088
2.1867057673509285
2.126099706744868
2.067448680351906
2.0175953079178885
1.9736070381231672
1.9286412512218964
1.8866080156402736
1.847507331378299
1.812316715542522
1.7781036168132942
1.7448680351906158
1.7126099706744868
1.6793743890518085
1.64613880742913
1.6129032258064515
1.58455522971652
1.5571847507331378
