ppg
1.1202346041055715
1.110459433040078
1.1036168132942326
1.0948191593352885
1.086021505376344
1.0762463343108504
1.0654936461388074
1.0547409579667644
1.04594330400782
1.0381231671554252
1.032258064516129
1.0273704789833822
1.0224828934506354
1.018572825024438
1.018572825024438
1.0195503421309873
1.0156402737047898
1.010752688172043
1.0068426197458455
1.002932551319648
0.9960899315738024
0.9882697947214076
0.9804496578690128
0.9745845552297164
0.9745845552297164
0.9863147605083088
1.0117302052785924
1.0547409579667644
1.126099706744868
1.2287390029325511
1.3607038123167154
1.517106549364614
1.6881720430107527
1.8602150537634408
2.0254154447702835
2.176930596285435
2.3088954056695994
2.419354838709677
2.512218963831867
2.579667644183773
2.6285434995112413
2.673509286412512
2.7145650048875853
2.7497556207233624
2.780058651026393
2.8054740957966766
2.8260019550342133
2.844574780058651
2.8611925708699903
2.873900293255132
2.884652981427175
2.8885630498533725
2.8885630498533725
2.8905180840664717
2.8885630498533725
2.8826979472140764
2.870967741935484
2.8514173998044967
2.8269794721407626
2.7976539589442817
2.7614858260019552
2.716520039100684
2.662756598240469
2.60019550342131
2.5376344086021505
2.4731182795698925
2.398826979472141
2.3196480938416424
2.242424242424242
2.1700879765395893
2.1065493646138806
2.0518084066471163
2.005865102639296
1.9667644183773216
1.932551319648094
1.900293255131965
1.871945259042033
1.8455522971652003
1.81524926686217
1.782991202346041
1.7497556207233629
1.715542521994135
1.683284457478006
1.653958944281525
1.6275659824046922
1.6021505376344083
1.5747800586510263
1.547409579667644
1.525904203323558
1.5053763440860215
1.4809384164222874
1.4545454545454546
1.4281524926686218
1.4027370478983383
1.3782991202346042
1.35386119257087
1.3313782991202343
1.310850439882698
1.29227761485826
1.2766373411534702
1.262952101661779
1.2541544477028348
1.2482893450635386
1.238514173998045
1.2267839687194526
1.2130987292277615
1.1994134897360704
1.1857282502443791
1.1730205278592376
1.1612903225806452
1.1515151515151516
1.142717497556207
1.1358748778103618
1.1329423264907137
1.1319648093841643
1.1270772238514175
1.1202346041055715
1.1133919843597262
1.1055718475073313
1.096774193548387
1.086021505376344
1.0742913000977516
1.06158357771261
1.0488758553274682
1.0391006842619743
1.029325513196481
1.0254154447702837
1.0234604105571847
1.0166177908113392
1.0068426197458455
0.9960899315738024
0.9872922776148584
0.981427174975562
0.9843597262952102
1.0048875855327468
1.0488758553274682
1.1241446725317692
1.2287390029325511
1.3401759530791788
1.4604105571847508
1.6080156402737047
1.7673509286412512
1.9266862170087975
2.0948191593352883
2.259042033235582
2.3919843597262958
2.5004887585532747
2.590420332355816
2.6666666666666665
2.7311827956989245
2.7869012707722387
2.827956989247312
2.857282502443793
2.887585532746823
2.9149560117302054
2.9393939393939394
2.959921798631476
2.9765395894428157
2.988269794721408
2.997067448680352
3.0009775171065494
3.002932551319648
3.0019550342130987
2.994134897360704
2.9804496578690127
2.963831867057673
2.9393939393939394
2.9071358748778104
2.8670576735092865
2.817204301075269
2.757575757575758
2.6881720430107525
2.610948191593353
2.527859237536657
2.441837732160313
2.357771260997068
2.286412512218964
2.2218963831867056
2.157380254154448
2.096774193548387
2.042033235581622
1.9960899315738023
1.9560117302052784
1.9188660801564028
1.884652981427175
1.8533724340175952
1.823069403714565
1.793743890518084
1.7683284457478006
1.7458455522971652
1.7223851417399805
1.696969696969697
1.6695992179863148
1.6392961876832846
1.6099706744868034
1.5826001955034212
1.5562072336265884
1.530791788856305
1.5053763440860215
1.4809384164222874
1.4594330400782014
1.4428152492668622
1.4281524926686218
1.409579667644184
1.388074291300098
1.364613880742913
1.3421309872922775
1.3225806451612905
1.3049853372434017
1.2903225806451613
1.2766373411534702
1.262952101661779
1.2502443792766371
1.2404692082111437
1.2316715542521994
1.219941348973607
1.209188660801564
1.1994134897360704
1.1896383186705768
1.1808406647116323
1.1720430107526882
1.164222873900293
1.155425219941349
1.1466275659824048
1.13880742913001
1.1300097751710656
1.126099706744868
1.1251221896383188
1.121212121212121
1.115347018572825
1.1085043988269794
1.1006842619745845
1.0918866080156402
1.0840664711632453
1.0742913000977516
1.064516129032258
1.056695992179863
1.050830889540567
1.050830889540567
1.0557184750733135
1.06158357771261
1.0694037145650048
1.0791788856304985
1.0869990224828934
1.0909090909090908
1.0899315738025417
1.0850439882697946
1.083088954056696
1.096774193548387
1.1368523949169111
1.2101661779081134
1.3020527859237536
1.41544477028348
1.56891495601173
1.747800586510264
1.9374389051808407
2.1221896383186705
2.29227761485826
2.442815249266862
2.5698924731182795
2.6715542521994133
2.7517106549364616
2.8132942326490715
2.8514173998044967
2.875855327468231
2.8993157380254155
2.9227761485826003
2.9472140762463344
2.970674486803519
2.991202346041056
3.007820136852395
3.0205278592375366
3.026392961876833
3.0254154447702835
3.0175953079178885
3.003910068426197
2.98435972629521
2.959921798631476
2.932551319648094
2.902248289345064
2.8690127077223853
2.83088954056696
2.787878787878788
2.73802541544477
2.679374389051808
2.610948191593353
2.5347018572825024
2.455522971652004
2.3841642228739004
2.318670576735093
2.2482893450635384
2.1818181818181817
2.1221896383186705
2.0684261974584555
2.021505376344086
1.981427174975562
1.943304007820137
1.9042033235581624
1.865102639296188
1.8269794721407624
1.7878787878787878
1.75366568914956
1.7233626588465298
1.6911045943304008
1.656891495601173
1.6236559139784943
1.5923753665689149
1.5620723362658846
1.5327468230694037
1.5034213098729228
1.474095796676442
1.4457478005865103
1.418377321603128
1.3978494623655917
1.380254154447703
1.3587487781036167
1.3372434017595307
1.3176930596285434
1.300097751710655
1.281524926686217
1.2619745845552297
1.241446725317693
1.2218963831867058
1.2043010752688172
1.1896383186705768
1.1808406647116323
1.173998044965787
1.1652003910068427
1.1564027370478984
1.147605083088954
1.1378299120234605
1.1270772238514175
0.989247311827957
0.9951124144672532
1.0166177908113392
1.06158357771261
1.1378299120234605
1.2473118279569892
1.3665689149560116
1.4965786901270772
1.6559139784946235
1.827956989247312
1.9980449657869013
2.155425219941349
2.294232649071359
2.412512218963832
2.5102639296187683
2.591397849462365
2.6608015640273703
2.720430107526881
2.763440860215054
2.7966764418377323
2.832844574780059
2.866080156402737
2.8944281524926687
2.917888563049853
2.9374389051808407
2.952101661779081
2.961876832844575
2.9667644183773216
2.9696969696969697
2.9687194525904204
2.962854349951124
2.9501466275659824
2.9335288367546437
2.9159335288367547
2.89345063538612
2.863147605083089
2.8240469208211145
2.7751710654936463
2.7155425219941347
2.6451612903225805
2.5650048875855327
2.4809384164222874
2.393939393939394
2.3167155425219943
2.251221896383187
2.187683284457478
2.1300097751710654
2.080156402737048
2.035190615835777
1.9951124144672527
1.9589442815249267
1.924731182795699
1.8905180840664717
1.857282502443793
1.825024437927664
1.790811339198436
1.7605083088954057
1.7350928641251222
1.7096774193548387
1.6823069403714566
1.6549364613880744
1.629521016617791
1.6050830889540566
1.5826001955034212
1.5610948191593352
1.5395894428152492
1.5161290322580645
1.4916911045943304
1.474095796676442
1.458455522971652
1.4408602150537635
1.423264907135875
1.4066471163245358
1.3890518084066472
1.370478983382209
1.3509286412512218
1.3313782991202343
1.3128054740957966
1.2932551319648091
1.273704789833822
1.2570869990224829
1.24633431085044
1.2394916911045943
1.2297165200391007
1.219941348973607
1.2111436950146628
1.2023460410557183
1.1935483870967742
1.1867057673509287
1.181818181818182
1.1779081133919844
1.173998044965787
1.1700879765395895
1.1700879765395895
1.1720430107526882
1.1720430107526882
1.1720430107526882
1.1720430107526882
1.1720430107526882
1.1720430107526882
1.1720430107526882
1.1720430107526882
1.1720430107526882
1.1720430107526882
1.1720430107526882
1.1720430107526882
1.1749755620723363
1.1779081133919844
1.1749755620723363
1.1700879765395895
1.164222873900293
1.163245356793744
1.1749755620723363
1.209188660801564
1.2717497556207231
1.3665689149560116
1.4946236559139785
1.6480938416422288
1.793743890518084
1.932551319648094
2.085043988269794
2.2346041055718477
2.36950146627566
2.4858260019550342
2.58455522971652
2.668621700879765
2.739980449657869
2.80058651026393
2.854349951124145
2.900293255131965
2.93841642228739
2.962854349951124
2.9765395894428157
2.9902248289345064
3.0009775171065494
3.0087976539589443
3.01564027370479
3.022482893450636
3.0303030303030303
3.037145650048876
3.043010752688172
3.0449657869012707
3.0391006842619745
3.0254154447702835
3.003910068426197
2.9765395894428157
2.93841642228739
2.889540566959922
2.8299120234604107
2.7595307917888565
2.6823069403714563
2.601173020527859
2.5180840664711632
2.436950146627566
2.357771260997068
2.2854349951124147
2.2267839687194524
2.176930596285435
2.1300097751710654
2.0869990224828934
2.046920821114369
2.0097751710654936
1.975562072336266
1.943304007820137
1.9120234604105573
1.884652981427175
1.8602150537634408
1.8377321603128052
1.8191593352883677
1.8025415444770283
1.7839687194525904
1.7634408602150538
1.7409579667644184
1.7174975562072337
1.6930596285434996
1.6686217008797657
1.643206256109482
1.6158357771260996
1.590420332355816
1.5669599217986314
1.5493646138807429
1.5347018572825024
1.517106549364614
1.498533724340176
1.4809384164222874
1.4643206256109482
1.447702834799609
1.4291300097751711
1.4086021505376345
1.388074291300098
1.367546432062561
1.348973607038123
1.3333333333333333
1.324535679374389
1.321603128054741
1.3176930596285434
1.3128054740957966
1.305962854349951
1.2981427174975562
1.2903225806451613
1.281524926686217
1.273704789833822
1.267839687194526
1.2609970674486803
1.2551319648093842
1.2531769305962854
1.2531769305962854
1.2512218963831867
1.2482893450635386
1.2443792766373412
1.2404692082111437
1.2365591397849462
1.2326490713587488
1.2287390029325511
1.224828934506354
1.219941348973607
1.2160312805474096
1.2121212121212122
1.2111436950146628
1.2111436950146628
1.209188660801564
1.2072336265884651
1.206256109481916
1.209188660801564
1.2228739002932552
1.2570869990224829
1.3206256109481915
1.41544477028348
1.541544477028348
1.6920821114369502
1.835777126099707
1.9745845552297163
2.1280547409579667
2.2795698924731185
2.420332355816227
2.5454545454545454
2.654936461388074
2.745845552297165
2.822091886608016
2.887585532746823
2.941348973607038
2.9853372434017595
3.0234604105571847
3.047898338220919
3.064516129032258
3.083088954056696
3.1006842619745845
3.114369501466276
3.1251221896383186
3.132942326490713
3.136852394916911
3.136852394916911
3.131964809384164
3.12316715542522
3.110459433040078
3.090909090909091
3.065493646138808
3.035190615835777
2.9980449657869013
2.951124144672532
2.895405669599218
2.831867057673509
2.7595307917888565
2.6803519061583576
2.5992179863147604
2.5190615835777126
2.442815249266862
2.3734115347018574
2.315738025415445
2.267839687194526
2.222873900293255
2.1808406647116323
2.142717497556207
2.1094819159335287
2.0772238514174
2.04594330400782
2.0146627565982405
1.9843597262952104
1.95405669599218
1.9237536656891496
1.8973607038123168
1.8748778103616808
1.8504398826979471
1.826001955034213
1.801564027370479
1.775171065493646
1.7487781036168133
1.7233626588465298
1.6979472140762464
1.6735092864125125
1.6490713587487782
1.6265884652981428
1.606060606060606
1.5894428152492668
1.5747800586510263
1.5571847507331378
1.5386119257087
1.5190615835777126
1.4604105571847508
1.3841642228739004
1.3401759530791788
1.3118279569892473
1.2913000977517106
1.273704789833822
1.2570869990224829
1.2443792766373412
1.2336265884652982
1.219941348973607
1.206256109481916
1.1945259042033236
1.1857282502443791
1.1788856304985338
1.1730205278592376
1.1681329423264908
1.1612903225806452
1.1544477028347997
1.1466275659824048
1.1378299120234605
1.1329423264907137
1.1319648093841643
1.1290322580645162
1.126099706744868
1.1221896383186705
1.1173020527859236
1.110459433040078
1.1016617790811338
1.093841642228739
1.0850439882697946
1.0772238514173995
1.0684261974584557
1.0635386119257086
1.0606060606060606
1.0547409579667644
1.0498533724340176
1.0478983382209188
1.0488758553274682
1.0576735092864125
1.0811339198435972
1.1270772238514175
1.2013685239491692
1.305962854349951
1.4389051808406648
1.5933528836754642
1.7390029325513197
1.87683284457478
2.026392961876833
2.172043010752688
2.3059628543499517
2.4242424242424243
2.5268817204301075
2.613880742913001
2.686217008797654
2.748778103616813
2.801564027370479
2.844574780058651
2.8719452590420333
2.8905180840664717
2.9120234604105573
2.930596285434995
2.946236559139785
2.9589442815249267
2.9696969696969697
2.978494623655914
2.983382209188661
2.9853372434017595
2.981427174975562
2.972629521016618
2.9579667644183774
2.935483870967742
2.9042033235581624
2.8641251221896384
2.8152492668621703
2.758553274682307
2.6930596285435
2.619745845552297
2.541544477028348
2.4604105571847508
2.3792766373411536
2.302052785923754
2.23069403714565
2.1710654936461387
2.120234604105572
2.072336265884653
2.0283479960899315
1.986314760508309
1.9472140762463344
1.9071358748778104
1.868035190615836
1.8299120234604105
1.7917888563049853
1.7556207233626588
1.7223851417399805
1.6911045943304008
1.664711632453568
1.6412512218963833
1.6158357771260996
1.5894428152492668
1.564027370478983
1.5386119257087
1.5131964809384164
1.487781036168133
1.4643206256109482
1.4418377321603129
1.418377321603128
1.393939393939394
1.3763440860215057
1.3607038123167154
1.343108504398827
1.324535679374389
1.305962854349951
1.2854349951124144
1.262952101661779
1.2394916911045943
1.2150537634408602
1.1915933528836755
1.1700879765395895
1.152492668621701
1.141739980449658
1.133919843597263
1.1241446725317692
1.1124144672531768
1.1006842619745845
1.088954056695992
1.0791788856304985
1.0703812316715542
1.0635386119257086
1.056695992179863
1.0488758553274682
1.043010752688172
1.0381231671554252
1.0361681329423265
1.035190615835777
1.0303030303030305
1.0234604105571847
1.0156402737047898
1.007820136852395
1.0
0.9931573802541545
0.9882697947214076
0.9863147605083088
0.9853372434017597
0.9833822091886608
0.9833822091886608
0.9833822091886608
0.978494623655914
0.9687194525904204
0.9589442815249268
0.9560117302052786
0.967741935483871
1.002932551319648
1.0664711632453567
1.164222873900293
1.295210166177908
1.4506353861192571
1.6226783968719452
1.7790811339198436
1.920821114369501
2.070381231671554
2.2130987292277613
2.3411534701857284
2.4516129032258065
2.544477028347996
2.621700879765396
2.687194525904203
2.742913000977517
2.788856304985337
2.827956989247312
2.8533724340175954
2.8699902248289346
2.8885630498533725
2.90811339198436
2.9266862170087977
2.9423264907135875
2.9550342130987293
2.964809384164223
2.9696969696969697
2.9687194525904204
2.961876832844575
2.948191593352884
2.9266862170087977
2.897360703812317
2.8611925708699903
2.817204301075269
2.7653958944281527
2.705767350928641
2.6373411534701856
2.5640273704789838
2.487781036168133
2.4115347018572826
2.337243401759531
2.2668621700879767
2.201368523949169
2.147605083088954
2.102639296187683
2.059628543499511
2.0175953079178885
1.9765395894428155
1.9374389051808407
1.8983382209188664
1.8592375366568916
1.822091886608016
1.7869012707722385
1.7526881720430108
1.7204301075268815
1.6901270772238517
1.664711632453568
1.6412512218963833
1.6158357771260996
1.5884652981427174
1.560117302052786
1.530791788856305
1.501466275659824
1.474095796676442
1.4486803519061584
1.426197458455523
1.404692082111437
1.383186705767351
1.367546432062561
1.3548387096774193
1.3372434017595307
1.3196480938416422
1.3020527859237536
1.2854349951124144
1.267839687194526
1.249266862170088
1.2316715542521994
1.2160312805474096
1.2013685239491692
1.1867057673509287
1.1730205278592376
1.164222873900293
1.1573802541544478
1.147605083088954
1.1368523949169111
1.1251221896383188
1.1133919843597262
1.1016617790811338
1.088954056695992
1.0791788856304985
1.0713587487781036
1.0654936461388074
1.0606060606060606
1.0596285434995112
1.0596285434995112
1.0576735092864125
1.0547409579667644
1.050830889540567
1.04594330400782
1.0420332355816226
1.0381231671554252
1.0342130987292275
1.0303030303030305
1.0273704789833822
1.0254154447702837
1.0342130987292275
1.0518084066471165
1.0606060606060606
1.0606060606060606
1.0576735092864125
1.056695992179863
1.0635386119257086
1.0899315738025417
1.141739980449658
1.2228739002932552
1.3362658846529814
1.479960899315738
1.64613880742913
1.7986314760508308
1.9423264907135875
2.0977517106549364
2.249266862170088
2.389051808406647
2.5131964809384164
2.6207233626588464
2.713587487781036
2.793743890518084
2.8641251221896384
2.927663734115347
2.983382209188661
3.032258064516129
3.064516129032258
3.085043988269794
3.102639296187683
3.115347018572825
3.120234604105572
3.120234604105572
3.117302052785924
3.112414467253177
3.10752688172043
3.103616813294233
3.096774193548387
3.0879765395894427
3.071358748778104
3.04594330400782
3.0146627565982405
2.972629521016618
2.917888563049853
2.8514173998044967
2.774193548387097
2.6911045943304006
2.606060606060606
2.5219941348973607
2.441837732160313
2.367546432062561
2.3010752688172045
2.24633431085044
2.19941348973607
2.1544477028347995
2.112414467253177
2.074291300097752
2.0391006842619745
2.005865102639296
1.9716520039100685
1.9364613880742916
1.9012707722385145
1.868035190615836
1.836754643206256
1.8113391984359728
1.7878787878787878
1.7644183773216031
1.7409579667644184
1.718475073313783
1.6950146627565983
1.6705767350928642
1.64613880742913
1.6207233626588464
1.5962854349951123
1.5718475073313782
1.5464320625610948
1.5190615835777126
1.4975562072336266
1.4809384164222874
1.4623655913978495
1.4437927663734116
1.4291300097751711
1.418377321603128
1.4115347018572826
1.4056695992179864
1.4007820136852396
1.3949169110459434
1.3861192570869991
1.3734115347018572
1.3626588465298142
1.3499511241446724
1.332355816226784
1.3147605083088951
1.300097751710655
1.29227761485826
1.2883675464320623
1.2864125122189638
1.2834799608993157
1.273704789833822
1.2649071358748778
1.2688172043010753
1.2883675464320623
1.3333333333333333
1.414467253176931
1.5317693059628543
1.6813294232649072
1.8543499511241448
2.0391006842619745
2.2238514173998043
2.396871945259042
2.552297165200391
2.6881720430107525
2.8044965786901277
2.9042033235581624
2.9765395894428157
3.029325513196481
3.083088954056696
3.132942326490713
3.176930596285435
3.2130987292277613
3.241446725317693
3.260997067448681
3.2737047898338223
3.281524926686217
3.2854349951124147
3.2854349951124147
3.275659824046921
3.26197458455523
3.2502443792766376
3.236559139784946
3.217986314760508
3.1945259042033234
3.1652003910068425
3.1270772238514173
3.0791788856304985
3.0234604105571847
2.959921798631476
2.889540566959922
2.812316715542522
2.7390029325513194
2.667644183773216
2.592375366568915
2.5180840664711632
2.4486803519061584
2.3851417399804498
2.326490713587488
2.274682306940372
2.2297165200391005
2.188660801564027
2.1515151515151514
2.1163245356793743
2.086021505376344
2.0576735092864125
2.027370478983382
1.997067448680352
1.967741935483871
1.93841642228739
1.9090909090909087
1.881720430107527
1.8563049853372435
1.8299120234604105
1.8025415444770283
1.775171065493646
1.7497556207233629
1.7282502443792769
1.7086999022482894
1.6881720430107527
1.6666666666666667
1.6441837732160314
1.624633431085044
1.6041055718475072
1.581622678396872
1.5581622678396871
1.5347018572825024
1.5112414467253177
1.4897360703812317
1.4731182795698925
1.458455522971652
1.4408602150537635
1.4222873900293256
1.4027370478983383
1.383186705767351
1.3636363636363635
1.346041055718475
1.3294232649071358
1.3128054740957966
1.2961876832844574
1.2795698924731185
1.2658846529814272
1.2570869990224829
1.2482893450635386
1.2365591397849462
1.224828934506354
1.2121212121212122
1.198435972629521
1.1857282502443791
1.173998044965787
1.164222873900293
1.1564027370478984
1.1505376344086022
1.144672531769306
1.141739980449658
1.1397849462365592
1.133919843597263
1.1251221896383188
1.115347018572825
1.10752688172043
1.1016617790811338
1.0957966764418376
1.088954056695992
1.0811339198435972
1.072336265884653
1.0635386119257086
1.06158357771261
1.0694037145650048
1.0909090909090908
1.133919843597263
1.2072336265884651
1.3128054740957966
1.4486803519061584
1.607038123167155
1.7790811339198436
1.9560117302052784
2.126099706744868
2.281524926686217
2.4173998044965788
2.5219941348973607
2.606060606060606
2.6881720430107525
2.7624633431085046
2.827956989247312
2.8856304985337244
2.8699902248289346
2.814271749755621
2.798631476050831
2.801564027370479
2.812316715542522
2.8240469208211145
2.835777126099707
2.8406647116324537
2.8406647116324537
2.841642228739003
2.8396871945259043
2.832844574780059
2.822091886608016
2.8044965786901277
2.780058651026393
2.7497556207233624
2.7126099706744866
2.667644183773216
2.613880742913001
2.558162267839687
2.4995112414467253
2.43108504398827
2.358748778103617
2.2873900293255134
2.217986314760508
2.1515151515151514
2.089931573802541
2.0332355816226784
1.9833822091886608
1.9393939393939397
1.8993157380254155
1.8621700879765395
1.83088954056696
1.8005865102639296
1.7673509286412512
1.7331378299120237
1.6979472140762464
1.66177908113392
1.6275659824046922
1.5943304007820136
1.5620723362658846
1.5317693059628543
1.501466275659824
1.4721407624633431
1.4486803519061584
1.4271749755620724
1.4037145650048877
1.3792766373411536
1.356793743890518
1.3343108504398826
1.3128054740957966
1.2913000977517106
1.2717497556207231
1.2541544477028348
1.2375366568914956
1.2218963831867058
1.2111436950146628
1.2013685239491692
1.1896383186705768
1.1759530791788857
1.163245356793744
1.1515151515151516
1.1397849462365592
1.1290322580645162
1.118279569892473
1.1085043988269794
1.099706744868035
1.0928641251221896
1.0869990224828934
1.0850439882697946
1.0850439882697946
1.0821114369501466
1.0772238514173995
1.0703812316715542
1.06158357771261
1.0527859237536656
1.0449657869012707
1.0391006842619743
1.0342130987292275
1.0303030303030305
1.0283479960899315
1.029325513196481
1.032258064516129
1.0303030303030305
1.0263929618768328
1.0205278592375366
1.0127077223851415
1.002932551319648
0.9902248289345064
0.9765395894428152
0.9648093841642228
0.9579667644183774
0.959921798631476
0.9765395894428152
1.0058651026392962
1.0527859237536656
1.1300097751710656
1.2355816226783969
1.3655913978494625
1.512218963831867
1.6686217008797657
1.827956989247312
1.9833822091886608
2.1300097751710654
2.264907135874878
2.3870967741935485
2.4838709677419355
2.5650048875855327
2.6510263929618767
2.7341153470185726
2.814271749755621
2.889540566959922
2.9589442815249267
3.022482893450636
3.081133919843597
3.136852394916911
3.188660801564027
3.236559139784946
3.280547409579668
3.310850439882698
3.333333333333333
3.361681329423265
3.383186705767351
3.391006842619746
3.377321603128055
3.3362658846529816
3.2639296187683287
3.1622678396871944
3.0391006842619745
2.9042033235581624
2.7653958944281527
2.643206256109482
2.5317693059628543
