ppg
2.903225806451613
2.870967741935484
2.831867057673509
2.782991202346041
2.7253176930596283
2.659824046920821
2.587487781036168
2.5112414467253177
2.434017595307918
2.3597262952101663
2.290322580645161
2.2267839687194524
2.16911045943304
2.1192570869990224
2.0791788856304985
2.04594330400782
2.013685239491691
1.9824046920821117
1.951124144672532
1.919843597262952
1.8866080156402736
1.8523949169110456
1.8172043010752688
1.7810361681329423
1.7458455522971652
1.710654936461388
1.6803519061583578
1.6529814271749756
1.624633431085044
1.595307917888563
1.5669599217986314
1.5405669599217986
1.5151515151515151
1.490713587487781
1.4672531769305963
1.4437927663734116
1.4213098729227762
1.3978494623655917
1.3763440860215057
1.359726295210166
1.3450635386119256
1.3284457478005864
1.3118279569892473
1.295210166177908
1.278592375366569
1.2619745845552297
1.24633431085044
1.2326490713587488
1.219941348973607
1.209188660801564
1.198435972629521
1.1906158357771262
1.18475073313783
1.176930596285435
1.1681329423264908
1.1593352883675463
1.1505376344086022
1.1397849462365592
1.1290322580645162
1.1173020527859236
1.1065493646138806
1.0977517106549364
1.088954056695992
1.0821114369501466
1.078201368523949
1.0762463343108504
1.072336265884653
1.067448680351906
1.06158357771261
1.0557184750733135
1.0498533724340176
1.0439882697947214
1.040078201368524
1.0361681329423265
1.0332355816226784
1.0312805474095796
1.032258064516129
1.0361681329423265
1.0391006842619743
1.0410557184750733
1.0439882697947214
1.0488758553274682
1.0557184750733135
1.064516129032258
1.0762463343108504
1.0879765395894427
1.0987292277614855
1.1085043988269794
1.118279569892473
1.1300097751710656
1.1436950146627567
1.163245356793744
1.1935483870967742
1.2404692082111437
1.3079178885630498
1.3978494623655917
1.5112414467253177
1.64613880742913
1.7976539589442817
1.9589442815249267
2.121212121212121
2.2580645161290325
2.3743890518084068
2.4916911045943304
2.5992179863147604
2.69208211143695
2.7673509286412514
2.825024437927664
2.8670576735092865
2.895405669599218
2.9149560117302054
2.9257086999022484
2.929618768328446
2.9266862170087977
2.913978494623656
2.89345063538612
2.8670576735092865
2.832844574780059
2.787878787878788
2.730205278592375
2.662756598240469
2.5855327468230693
2.501466275659824
2.4134897360703813
2.324535679374389
2.2385141739980448
2.1652003910068425
2.101661779081134
2.040078201368524
1.9843597262952104
1.9364613880742916
1.895405669599218
1.8592375366568916
1.8269794721407624
1.796676441837732
1.7683284457478006
1.7390029325513197
1.7096774193548387
1.683284457478006
1.6588465298142718
1.6304985337243405
1.6001955034213098
1.5679374389051808
1.5347018572825024
1.501466275659824
1.469208211143695
1.4379276637341154
1.409579667644184
1.383186705767351
1.3577712609970674
1.335288367546432
1.3186705767350928
1.3049853372434017
1.2903225806451613
1.2766373411534702
1.2639296187683284
1.2512218963831867
1.2394916911045943
1.2297165200391007
1.2150537634408602
1.198435972629521
1.1867057673509287
1.1779081133919844
1.1730205278592376
1.1691104594330402
1.164222873900293
1.1583577712609971
1.1505376344086022
1.141739980449658
1.1329423264907137
1.1231671554252198
1.1124144672531768
1.1016617790811338
1.0918866080156402
1.083088954056696
1.0742913000977516
1.0694037145650048
1.0664711632453567
1.0625610948191593
1.056695992179863
1.050830889540567
1.0449657869012707
1.0391006842619743
1.0342130987292275
1.029325513196481
1.0254154447702837
1.0224828934506354
1.0195503421309873
1.0195503421309873
1.0205278592375366
1.0195503421309873
1.0175953079178883
1.0146627565982405
1.0117302052785924
1.0087976539589445
1.0058651026392962
1.0039100684261977
1.0019550342130987
1.0019550342130987
1.0019550342130987
1.0019550342130987
1.0048875855327468
1.0087976539589445
1.0097751710654936
1.0087976539589445
1.0087976539589445
1.010752688172043
1.0195503421309873
1.0381231671554252
1.0713587487781036
1.1251221896383188
1.2023460410557183
1.3069403714565004
1.4173998044965788
1.5376344086021505
1.689149560117302
1.8592375366568916
2.0361681329423265
2.209188660801564
2.3704789833822093
2.5141739980449658
2.6373411534701856
2.7390029325513194
2.819159335288368
2.8807429130009776
2.9266862170087977
2.952101661779081
2.963831867057673
2.9745845552297165
2.981427174975562
2.981427174975562
2.973607038123167
2.9579667644183774
2.932551319648094
2.8963831867057674
2.8484848484848486
2.788856304985337
2.717497556207233
2.64613880742913
2.5718475073313782
2.489736070381232
2.4056695992179864
2.32355816226784
2.247311827956989
2.1788856304985336
2.118279569892473
2.067448680351906
2.0234604105571847
1.9853372434017595
1.9530791788856303
1.9227761485826005
1.895405669599218
1.8699902248289344
1.842619745845552
1.8132942326490715
1.782991202346041
1.750733137829912
1.715542521994135
1.678396871945259
1.6412512218963833
1.6041055718475072
1.5679374389051808
1.5317693059628543
1.5024437927663734
1.478005865102639
1.4516129032258065
1.426197458455523
1.4027370478983383
1.3812316715542523
1.3616813294232648
1.3440860215053765
1.327468230694037
1.310850439882698
1.2932551319648091
1.2756598240469208
1.2580645161290325
1.2453567937438903
1.2355816226783969
1.2238514173998043
1.2121212121212122
1.2013685239491692
1.1906158357771262
1.1788856304985338
1.1681329423264908
1.1573802541544478
1.1466275659824048
1.1368523949169111
1.1280547409579669
1.1231671554252198
1.1192570869990224
1.1124144672531768
1.1036168132942326
1.093841642228739
1.0850439882697946
1.0772238514173995
1.0703812316715542
1.064516129032258
1.0596285434995112
1.0557184750733135
1.0527859237536656
1.0498533724340176
1.0498533724340176
1.0518084066471165
1.0518084066471165
1.050830889540567
1.0488758553274682
1.0469208211143697
1.0449657869012707
1.043010752688172
1.0410557184750733
1.0391006842619743
1.0371456500488758
1.0371456500488758
1.0391006842619743
1.043010752688172
1.0439882697947214
1.0439882697947214
1.04594330400782
1.0478983382209188
1.0488758553274682
1.0498533724340176
1.050830889540567
1.0518084066471165
1.0547409579667644
1.0606060606060606
1.075268817204301
1.0987292277614855
1.1358748778103618
1.1964809384164223
1.2834799608993157
1.3978494623655917
1.5386119257087
1.699902248289345
1.873900293255132
2.0527859237536656
2.2267839687194524
2.388074291300098
2.5317693059628543
2.6402737047898337
2.7223851417399803
2.7976539589442817
2.8611925708699903
2.9120234604105573
2.9501466275659824
2.9765395894428157
2.994134897360704
3.003910068426197
3.004887585532747
2.9980449657869013
2.9824046920821115
2.956989247311828
2.9237536656891496
2.8826979472140764
2.83088954056696
2.768328445747801
2.6959921798631474
2.6148582600195502
2.527859237536657
2.4389051808406648
2.3519061583577714
2.2688172043010755
2.1915933528836757
2.12316715542522
2.0684261974584555
2.0234604105571847
1.981427174975562
1.943304007820137
1.9090909090909087
1.8778103616813293
1.8465298142717497
1.81524926686217
1.7839687194525904
1.750733137829912
1.715542521994135
1.6793743890518085
1.64613880742913
1.616813294232649
1.58455522971652
1.552297165200391
1.520039100684262
1.487781036168133
1.457478005865103
1.4291300097751711
1.401759530791789
1.375366568914956
1.348973607038123
1.3225806451612905
1.2961876832844574
1.2746823069403714
1.2551319648093842
1.23069403714565
1.2052785923753666
1.1779081133919844
1.1505376344086022
1.1241446725317692
1.099706744868035
1.078201368523949
1.0576735092864125
1.0381231671554252
1.021505376344086
1.0117302052785924
1.0068426197458455
1.0019550342130987
0.997067448680352
0.9931573802541545
0.9902248289345064
0.9902248289345064
0.9921798631476052
0.9951124144672532
1.0
1.0068426197458455
1.0175953079178883
1.0303030303030305
1.0449657869012707
1.0586510263929618
1.0742913000977516
1.0909090909090908
1.1055718475073313
1.118279569892473
1.1300097751710656
1.1397849462365592
1.147605083088954
1.1544477028347997
1.1593352883675463
1.1612903225806452
1.163245356793744
1.164222873900293
1.1622678396871946
1.1573802541544478
1.152492668621701
1.1456500488758554
1.1378299120234605
1.1280547409579669
1.1163245356793745
1.104594330400782
1.0909090909090908
1.0772238514173995
1.0625610948191593
1.0518084066471165
1.0449657869012707
1.0361681329423265
1.029325513196481
1.0273704789833822
1.035190615835777
1.0576735092864125
1.1006842619745845
1.1681329423264908
1.2639296187683284
1.3890518084066472
1.541544477028348
1.689149560117302
1.8387096774193548
2.0146627565982405
2.19941348973607
2.3812316715542523
2.550342130987292
2.7008797653958942
2.8289345063538613
2.9345063538611926
3.018572825024438
3.085043988269794
3.1358748778103616
3.172043010752688
3.190615835777126
3.196480938416422
3.20039100684262
3.198435972629521
3.187683284457478
3.1681329423264906
3.136852394916911
3.09188660801564
3.0332355816226784
2.960899315738025
2.874877810361681
2.780058651026393
2.6901270772238512
2.6041055718475072
2.5141739980449658
2.426197458455523
2.3440860215053765
2.269794721407625
2.2052785923753664
2.1495601173020527
2.099706744868035
2.0557184750733137
2.01564027370479
1.9775171065493649
1.9393939393939397
1.906158357771261
1.8748778103616808
1.839687194525904
1.8035190615835777
1.7663734115347018
1.7302052785923754
1.694037145650049
1.6598240469208212
1.6265884652981428
1.5943304007820136
1.564027370478983
1.5356793743890518
1.512218963831867
1.4916911045943304
1.4701857282502444
1.447702834799609
1.426197458455523
1.4066471163245358
1.3870967741935485
1.3695014662756595
1.3528836754643203
1.3372434017595307
1.3225806451612905
1.3079178885630498
1.295210166177908
1.2864125122189638
1.278592375366569
1.2688172043010753
1.2570869990224829
1.2443792766373412
1.2297165200391007
1.2150537634408602
1.2003910068426198
1.1857282502443791
1.1700879765395895
1.155425219941349
1.141739980449658
1.1329423264907137
1.1251221896383188
1.1143695014662756
1.1016617790811338
1.0899315738025417
1.0791788856304985
1.0703812316715542
1.0625610948191593
1.0557184750733135
1.0488758553274682
1.0439882697947214
1.0410557184750733
1.0381231671554252
1.0391006842619743
1.043010752688172
1.04594330400782
1.0478983382209188
1.0498533724340176
1.0527859237536656
1.0547409579667644
1.056695992179863
1.0586510263929618
1.0606060606060606
1.0635386119257086
1.0654936461388074
1.0694037145650048
1.075268817204301
1.0791788856304985
1.0821114369501466
1.0840664711632453
1.0840664711632453
1.083088954056696
1.0811339198435972
1.0811339198435972
1.086021505376344
1.099706744868035
1.1270772238514175
1.1730205278592376
1.227761485826002
1.2981427174975562
1.3998044965786902
1.5288367546432062
1.6803519061583578
1.8484848484848484
2.0234604105571847
2.1974584555229715
2.361681329423265
2.5112414467253177
2.6402737047898337
2.748778103616813
2.8240469208211145
2.87683284457478
2.924731182795699
2.963831867057673
2.995112414467253
3.018572825024438
3.035190615835777
3.04594330400782
3.0498533724340176
3.04594330400782
3.032258064516129
3.0087976539589443
2.9765395894428157
2.9345063538611926
2.881720430107527
2.817204301075269
2.742913000977517
2.658846529814272
2.56891495601173
2.47702834799609
2.386119257086999
2.2991202346041058
2.218963831867057
2.147605083088954
2.0869990224828934
2.038123167155425
1.9980449657869013
1.9608993157380252
1.9257086999022484
1.8914956011730208
1.858260019550342
1.8269794721407624
1.7947214076246334
1.761485826001955
1.7272727272727273
1.6920821114369502
1.656891495601173
1.6256109481915937
1.5962854349951123
1.564027370478983
1.530791788856305
1.4975562072336266
1.466275659824047
1.436950146627566
1.4086021505376345
1.3822091886608017
1.3587487781036167
1.3372434017595307
1.316715542521994
1.2981427174975562
1.2864125122189638
1.2766373411534702
1.2658846529814272
1.2541544477028348
1.241446725317693
1.227761485826002
1.2150537634408602
1.203323558162268
1.1915933528836755
1.1808406647116323
1.1700879765395895
1.160312805474096
1.1534701857282503
1.1485826001955035
1.141739980449658
1.133919843597263
1.1251221896383188
1.115347018572825
1.1055718475073313
1.0948191593352885
1.0840664711632453
1.0742913000977516
1.0664711632453567
1.0596285434995112
1.0527859237536656
1.0498533724340176
1.0488758553274682
1.0478983382209188
1.04594330400782
1.0439882697947214
1.0420332355816226
1.0391006842619743
1.0361681329423265
1.0342130987292275
1.0312805474095796
1.029325513196481
1.0273704789833822
1.0273704789833822
1.029325513196481
1.0303030303030305
1.029325513196481
1.0283479960899315
1.0283479960899315
1.0283479960899315
1.0303030303030305
1.032258064516129
1.0283479960899315
1.021505376344086
1.0195503421309873
1.0195503421309873
1.0224828934506354
1.0273704789833822
1.0342130987292275
1.0478983382209188
1.0733137829912025
1.115347018572825
1.1798631476050832
1.2688172043010753
1.3812316715542523
1.5151515151515151
1.664711632453568
1.825024437927664
1.9657869012707725
2.090909090909091
2.2238514173998043
2.3499511241446727
2.4613880742913
2.555229716520039
2.63049853372434
2.689149560117302
2.7341153470185726
2.766373411534702
2.788856304985337
2.803519061583578
2.811339198435973
2.8084066471163247
2.7976539589442817
2.7839687194525906
2.764418377321604
2.7370478983382207
2.7008797653958942
2.653958944281525
2.5962854349951123
2.529814271749756
2.455522971652004
2.376344086021505
2.2952101661779083
2.222873900293255
2.157380254154448
2.090909090909091
2.029325513196481
1.9745845552297163
1.9266862170087975
1.8866080156402736
1.8514173998044965
1.8201368523949168
1.790811339198436
1.761485826001955
1.732160312805474
1.7028347996089932
1.6764418377321604
1.6520039100684265
1.6236559139784943
1.5933528836754642
1.5610948191593352
1.5288367546432062
1.4965786901270772
1.4652981427174976
1.4349951124144673
1.4076246334310851
1.3812316715542523
1.356793743890518
1.3362658846529814
1.3196480938416422
1.3010752688172045
1.2825024437927663
1.2649071358748778
1.2473118279569892
1.2316715542521994
1.217008797653959
1.2043010752688172
1.1925708699902249
1.1808406647116323
1.1700879765395895
1.160312805474096
1.1534701857282503
1.147605083088954
1.1397849462365592
1.130987292277615
1.1221896383186705
1.1143695014662756
1.1065493646138806
1.0987292277614855
1.0909090909090908
1.083088954056696
1.075268817204301
1.067448680351906
1.0625610948191593
1.0596285434995112
1.0547409579667644
1.0498533724340176
1.0439882697947214
1.0381231671554252
1.032258064516129
1.0263929618768328
1.021505376344086
1.0175953079178883
1.0146627565982405
1.0117302052785924
1.0097751710654936
1.0097751710654936
1.0117302052785924
1.0117302052785924
1.010752688172043
1.0097751710654936
1.0087976539589445
1.007820136852395
1.007820136852395
1.007820136852395
1.0087976539589445
1.0087976539589445
1.007820136852395
1.0087976539589445
1.010752688172043
1.0117302052785924
1.0117302052785924
1.0117302052785924
1.0127077223851415
1.0146627565982405
1.0195503421309873
1.0273704789833822
1.0420332355816226
1.067448680351906
1.1065493646138806
1.1544477028347997
1.217008797653959
1.3655913978494625
1.4926686217008798
1.6363636363636365
1.8729227761485825
2.032258064516129
2.1837732160312804
2.321603128054741
2.490713587487781
2.5806451612903225
2.6480938416422286
2.727272727272727
2.755620723362659
2.7781036168132944
2.803519061583578
2.806451612903226
2.8025415444770285
2.782991202346041
2.757575757575758
2.721407624633431
2.679374389051808
2.6295210166177907
2.5698924731182795
2.501466275659824
2.4252199413489737
2.346041055718475
2.2668621700879767
2.190615835777126
2.120234604105572
2.056695992179863
2.0009775171065494
1.9530791788856303
1.9120234604105573
1.8797653958944285
1.8523949169110456
1.8240469208211143
1.7956989247311828
1.7663734115347018
1.737047898338221
1.7067448680351909
1.675464320625611
1.6441837732160314
1.611925708699902
1.5806451612903225
1.5493646138807429
1.521994134897361
1.4965786901270772
1.4682306940371457
1.4389051808406648
1.409579667644184
1.3822091886608017
1.356793743890518
1.3333333333333333
1.3128054740957966
1.2942326490713587
1.2766373411534702
1.260019550342131
1.2443792766373412
1.2326490713587488
1.2238514173998043
1.2130987292277615
1.2023460410557183
1.1915933528836755
1.1808406647116323
1.1700879765395895
1.160312805474096
1.1505376344086022
1.1407624633431086
1.130987292277615
1.1231671554252198
1.118279569892473
1.115347018572825
1.1094819159335287
1.1026392961876832
1.0957966764418376
1.0879765395894427
1.0801564027370478
1.0713587487781036
1.0635386119257086
1.056695992179863
1.050830889540567
1.04594330400782
1.0420332355816226
1.0410557184750733
1.0410557184750733
1.0391006842619743
1.035190615835777
1.0303030303030305
1.024437927663734
1.0175953079178883
1.0117302052785924
1.0058651026392962
1.0
0.9951124144672532
0.9921798631476052
0.9921798631476052
0.9941348973607038
0.9941348973607038
0.9931573802541545
0.9931573802541545
0.9931573802541545
0.9941348973607038
0.9960899315738024
0.9980449657869012
1.0
1.0019550342130987
1.0039100684261977
1.007820136852395
1.0156402737047898
1.0273704789833822
1.0449657869012707
1.0742913000977516
1.1192570869990224
1.18475073313783
1.273704789833822
1.3870967741935485
1.521994134897361
1.6744868035190617
1.836754643206256
2.0
2.136852394916911
2.254154447702835
2.3734115347018574
2.5239491691104594
2.6803519061583576
2.790811339198436
2.8690127077223853
2.924731182795699
2.963831867057673
2.992179863147605
3.010752688172043
3.0205278592375366
3.021505376344086
3.010752688172043
2.992179863147605
2.967741935483871
2.9345063538611926
2.889540566959922
2.832844574780059
2.7653958944281527
2.6881720430107525
2.603128054740958
2.512218963831867
2.419354838709677
2.3284457478005867
2.2502443792766376
2.1808406647116323
2.113391984359726
2.0518084066471163
1.9990224828934504
1.9530791788856303
1.9130009775171064
1.878787878787879
1.8465298142717497
1.8162267839687196
1.7859237536656891
1.7556207233626588
1.7253176930596286
1.6979472140762464
1.672531769305963
1.6441837732160314
1.6148582600195502
1.58455522971652
1.555229716520039
1.5268817204301075
1.499511241446725
1.4731182795698925
1.4457478005865103
1.4203323558162269
1.396871945259042
1.3782991202346042
1.3626588465298142
1.346041055718475
1.3304007820136852
1.3147605083088951
1.300097751710655
1.2864125122189638
1.273704789833822
1.2609970674486803
1.249266862170088
1.238514173998045
1.227761485826002
1.217008797653959
1.2101661779081134
1.2043010752688172
1.1974584555229717
1.1886608015640274
1.1788856304985338
1.1681329423264908
1.1564027370478984
1.1436950146627567
1.130987292277615
1.1192570869990224
1.1085043988269794
1.099706744868035
1.0957966764418376
1.0948191593352885
1.093841642228739
1.0928641251221896
1.0928641251221896
1.0928641251221896
1.0918866080156402
1.0909090909090908
1.0879765395894427
1.0850439882697946
1.0811339198435972
1.0772238514173995
1.072336265884653
1.0703812316715542
1.0694037145650048
1.064516129032258
1.0586510263929618
1.0527859237536656
1.04594330400782
1.040078201368524
1.0361681329423265
1.0332355816226784
1.0303030303030305
1.0283479960899315
1.029325513196481
1.032258064516129
1.0381231671554252
1.0439882697947214
1.050830889540567
1.0586510263929618
1.067448680351906
1.0791788856304985
1.0977517106549364
1.126099706744868
1.1710654936461389
1.2355816226783969
1.3235581622678396
1.4173998044965788
1.52297165200391
1.6598240469208212
1.81524926686217
1.981427174975562
2.147605083088954
2.3069403714565007
2.453567937438905
2.5835777126099706
2.6930596285435
2.7839687194525906
2.8563049853372435
2.911045943304008
2.9442815249266863
2.962854349951124
2.979472140762464
2.992179863147605
3.0
3.0019550342130987
2.997067448680352
2.9853372434017595
2.964809384164223
2.935483870967742
2.897360703812317
2.849462365591398
2.7976539589442817
2.739980449657869
2.6715542521994133
2.595307917888563
2.515151515151515
2.4330400782013686
2.35386119257087
2.278592375366569
2.2082111436950145
2.144672531769306
2.0869990224828934
2.035190615835777
1.989247311827957
1.951124144672532
1.9159335288367547
1.8797653958944285
1.844574780058651
1.8093841642228736
1.775171065493646
1.7429130009775171
1.7126099706744868
1.6842619745845553
1.6578690127077225
1.6334310850439884
1.6109481915933528
1.5933528836754642
1.5777126099706744
1.560117302052786
1.542521994134897
1.5239491691104594
1.5034213098729228
1.4819159335288368
1.457478005865103
1.43108504398827
1.4027370478983383
1.3734115347018572
1.3440860215053765
1.3157380254154447
1.2932551319648091
1.273704789833822
1.2512218963831867
1.2297165200391007
1.2101661779081134
1.1935483870967742
1.1798631476050832
1.1671554252199414
1.155425219941349
1.1466275659824048
1.1397849462365592
1.1348973607038124
1.1329423264907137
1.1329423264907137
1.130987292277615
1.1270772238514175
1.121212121212121
1.1133919843597262
1.1026392961876832
1.0899315738025417
1.0762463343108504
1.0625610948191593
1.0498533724340176
1.0371456500488758
1.0254154447702837
1.018572825024438
1.013685239491691
1.0068426197458455
1.0009775171065494
0.9951124144672532
0.9902248289345064
0.9872922776148584
0.9853372434017597
0.9843597262952102
0.9843597262952102
0.9843597262952102
0.9853372434017597
0.9882697947214076
0.9931573802541545
0.9960899315738024
0.9980449657869012
1.0009775171065494
1.002932551319648
1.0039100684261977
1.0048875855327468
1.0068426197458455
1.0087976539589445
1.010752688172043
1.0156402737047898
1.0254154447702837
1.043010752688172
1.0703812316715542
1.115347018572825
1.1827956989247312
1.2766373411534702
1.396871945259042
1.542521994134897
1.7067448680351909
1.881720430107527
2.058651026392962
2.228739002932551
2.3870967741935485
2.5102639296187683
2.6070381231671558
2.6989247311827955
2.779081133919844
2.844574780058651
2.895405669599218
2.9345063538611926
2.962854349951124
2.983382209188661
2.997067448680352
3.003910068426197
3.0019550342130987
2.992179863147605
2.9716520039100685
2.9423264907135875
2.905180840664712
2.857282502443793
2.798631476050831
2.729227761485826
2.6510263929618767
2.5650048875855327
2.4760508308895406
2.3851417399804498
2.297165200391007
2.217986314760508
2.1515151515151514
2.0957966764418376
2.0449657869012707
2.0
1.959921798631476
1.9237536656891496
1.8914956011730208
1.86119257086999
1.83088954056696
1.7996089931573802
1.7673509286412512
1.7341153470185728
1.699902248289345
1.6695992179863148
1.6422287390029326
1.6129032258064515
1.5826001955034212
1.5513196480938416
1.520039100684262
1.4887585532746823
1.458455522971652
1.4291300097751711
1.401759530791789
1.3773216031280548
1.3558162267839686
1.3391984359726294
1.3264907135874875
1.3128054740957966
1.2991202346041055
1.2864125122189638
1.273704789833822
1.2609970674486803
1.249266862170088
1.238514173998045
1.227761485826002
1.2189638318670577
1.2101661779081134
1.2003910068426198
1.1935483870967742
1.187683284457478
1.1788856304985338
1.1681329423264908
1.1564027370478984
1.144672531769306
1.133919843597263
1.1231671554252198
1.1124144672531768
1.1036168132942326
1.093841642228739
1.0850439882697946
1.0811339198435972
1.0791788856304985
1.0762463343108504
1.0733137829912025
1.0703812316715542
1.0684261974584557
1.0664711632453567
1.064516129032258
1.0625610948191593
1.0606060606060606
1.0586510263929618
1.0557184750733135
1.0527859237536656
1.0518084066471165
1.0518084066471165
1.0488758553274682
1.04594330400782
1.0439882697947214
