ppg
1.364613880742913
1.2834799608993157
1.2101661779081134
1.147605083088954
1.096774193548387
1.056695992179863
1.0273704789833822
1.0087976539589445
1.0
0.9990224828934506
1.002932551319648
1.010752688172043
1.0224828934506354
1.040078201368524
1.0606060606060606
1.086021505376344
1.1143695014662756
1.1436950146627567
1.1720430107526882
1.1974584555229717
1.219941348973607
1.241446725317693
1.262952101661779
1.281524926686217
1.2971652003910068
1.3098729227761483
1.3186705767350928
1.321603128054741
1.321603128054741
1.3186705767350928
1.3118279569892473
1.3020527859237536
1.2913000977517106
1.2834799608993157
1.2805474095796676
1.2834799608993157
1.2991202346041055
1.3333333333333333
1.392961876832845
1.479960899315738
1.595307917888563
1.7341153470185728
1.89247311827957
2.0625610948191597
2.2346041055718477
2.3792766373411536
2.501466275659824
2.622678396871945
2.7282502443792764
2.807429130009776
2.8563049853372435
2.874877810361681
2.8641251221896384
2.827956989247312
2.76930596285435
2.6930596285435
2.603128054740958
2.5004887585532747
2.401759530791789
2.303030303030303
2.1925708699902247
2.078201368523949
1.962854349951124
1.8484848484848484
1.739980449657869
1.6344086021505375
1.5327468230694037
1.4379276637341154
1.3519061583577712
1.2746823069403714
1.2160312805474096
1.1691104594330402
1.1251221896383188
1.088954056695992
1.0606060606060606
1.0410557184750733
1.0303030303030305
1.0283479960899315
1.0342130987292275
1.0469208211143697
1.064516129032258
1.086021505376344
1.1124144672531768
1.1397849462365592
1.1671554252199414
1.1945259042033236
1.2228739002932552
1.2512218963831867
1.2795698924731185
1.3049853372434017
1.3264907135874875
1.3440860215053765
1.3577712609970674
1.3685239491691104
1.3743890518084063
1.3782991202346042
1.3792766373411536
1.375366568914956
1.3695014662756595
1.3616813294232648
1.3528836754643203
1.346041055718475
1.3479960899315735
1.3665689149560116
1.4066471163245358
1.4731182795698925
1.5679374389051808
1.6930596285434996
1.818181818181818
1.948191593352884
2.1065493646138806
2.2737047898338223
2.4389051808406648
2.592375366568915
2.7233626588465296
2.8269794721407626
2.9012707722385143
2.9442815249266863
2.956011730205278
2.9393939393939394
2.9042033235581624
2.8514173998044967
2.7781036168132944
2.689149560117302
2.5884652981427174
2.47702834799609
2.358748778103617
2.2375366568914954
2.114369501466276
1.9931573802541545
1.8758553274682308
1.7644183773216031
1.6588465298142718
1.5728250244379276
1.499511241446725
1.4271749755620724
1.3607038123167154
1.3010752688172045
1.2502443792766371
1.2082111436950147
1.173998044965787
1.1466275659824048
1.1270772238514175
1.115347018572825
1.1114369501466277
1.1143695014662756
1.1221896383186705
1.1368523949169111
1.1564027370478984
1.1779081133919844
1.2023460410557183
1.227761485826002
1.2531769305962854
1.2776148582600195
1.3010752688172045
1.3225806451612905
1.3411534701857282
1.356793743890518
1.3685239491691104
1.3782991202346042
1.3851417399804498
1.388074291300098
1.3861192570869991
1.3812316715542523
1.3734115347018572
1.364613880742913
1.3558162267839686
1.3509286412512218
1.35386119257087
1.3724340175953078
1.401759530791789
1.4486803519061584
1.5249266862170088
1.6304985337243405
1.7644183773216031
1.919843597262952
2.090909090909091
2.267839687194526
2.4408602150537635
2.601173020527859
2.739980449657869
2.8475073313782997
2.918866080156403
2.95405669599218
2.960899315738025
2.948191593352884
2.913000977517106
2.857282502443793
2.782013685239492
2.6930596285435
2.593352883675464
2.484848484848485
2.36950146627566
2.251221896383187
2.132942326490713
2.027370478983382
1.9305962854349952
1.828934506353861
1.726295210166178
1.6256109481915937
1.530791788856305
1.4437927663734116
1.3665689149560116
1.2991202346041055
1.2404692082111437
1.1906158357771262
1.1485826001955035
1.1143695014662756
1.0928641251221896
1.0811339198435972
1.0733137829912025
1.0713587487781036
1.075268817204301
1.0850439882697946
1.099706744868035
1.1192570869990224
1.1436950146627567
1.1691104594330402
1.1935483870967742
1.2179863147605083
1.2394916911045943
1.260019550342131
1.2805474095796676
1.300097751710655
1.3157380254154447
1.3264907135874875
1.3333333333333333
1.335288367546432
1.3333333333333333
1.3284457478005864
1.3225806451612905
1.3176930596285434
1.3157380254154447
1.3157380254154447
1.3186705767350928
1.332355816226784
1.364613880742913
1.4203323558162269
1.5034213098729228
1.6148582600195502
1.75366568914956
1.9149560117302051
2.090909090909091
2.270772238514174
2.443792766373412
2.581622678396872
2.689149560117302
2.787878787878788
2.8641251221896384
2.911045943304008
2.929618768328446
2.918866080156403
2.8807429130009776
2.822091886608016
2.745845552297165
2.653958944281525
2.549364613880743
2.4486803519061584
2.347996089931574
2.2346041055718477
2.1163245356793743
1.997067448680352
1.881720430107527
1.7712609970674489
1.6656891495601174
1.5669599217986314
1.4731182795698925
1.3870967741935485
1.3098729227761483
1.241446725317693
1.1896383186705768
1.1495601173020529
1.1124144672531768
1.0821114369501466
1.0596285434995112
1.0449657869012707
1.0381231671554252
1.0381231671554252
1.0469208211143697
1.06158357771261
1.0791788856304985
1.1016617790811338
1.126099706744868
1.152492668621701
1.1808406647116323
1.2082111436950147
1.2336265884652982
1.2561094819159335
1.2776148582600195
1.2971652003910068
1.313782991202346
1.3264907135874875
1.3343108504398826
1.3372434017595307
1.335288367546432
1.332355816226784
1.327468230694037
1.3196480938416422
1.3098729227761483
1.3049853372434017
1.310850439882698
1.332355816226784
1.375366568914956
1.444770283479961
1.541544477028348
1.6637341153470186
1.8084066471163245
1.946236559139785
2.081133919843597
2.236559139784946
2.3958944281524928
2.5454545454545454
2.673509286412512
2.774193548387097
2.844574780058651
2.8836754643206257
2.889540566959922
2.866080156402737
2.8181818181818183
2.748778103616813
2.6715542521994133
2.589442815249267
2.4916911045943304
2.383186705767351
2.267839687194526
2.1485826001955037
2.026392961876833
1.905180840664712
1.7849462365591398
1.6695992179863148
1.560117302052786
1.458455522971652
1.3763440860215057
1.3079178885630498
1.2404692082111437
1.176930596285435
1.121212121212121
1.0742913000977516
1.035190615835777
1.0058651026392962
0.9863147605083088
0.9765395894428152
0.975562072336266
0.981427174975562
0.9941348973607038
1.0117302052785924
1.0332355816226784
1.0576735092864125
1.083088954056696
1.110459433040078
1.1407624633431086
1.1700879765395895
1.1964809384164223
1.2209188660801564
1.2434017595307918
1.262952101661779
1.2776148582600195
1.289345063538612
1.2981427174975562
1.303030303030303
1.303030303030303
1.2991202346041055
1.2913000977517106
1.281524926686217
1.2746823069403714
1.2756598240469208
1.289345063538612
1.321603128054741
1.3773216031280548
1.458455522971652
1.547409579667644
1.6520039100684265
1.790811339198436
1.9521016617790807
2.1251221896383186
2.297165200391007
2.458455522971652
2.601173020527859
2.7155425219941347
2.7976539589442817
2.84652981427175
2.865102639296188
2.8582600195503423
2.827956989247312
2.7751710654936463
2.7038123167155423
2.6148582600195502
2.512218963831867
2.40078201368524
2.281524926686217
2.1593352883675463
2.0361681329423265
1.9149560117302051
1.796676441837732
1.6813294232649072
1.58455522971652
1.499511241446725
1.4115347018572826
1.327468230694037
1.2512218963831867
1.1827956989247312
1.1231671554252198
1.0742913000977516
1.035190615835777
1.0058651026392962
0.9853372434017597
0.9726295210166178
0.9706744868035192
0.9775171065493646
0.9902248289345064
1.0087976539589445
1.0332355816226784
1.0606060606060606
1.0879765395894427
1.115347018572825
1.141739980449658
1.1691104594330402
1.195503421309873
1.219941348973607
1.2434017595307918
1.2639296187683284
1.2834799608993157
1.3010752688172045
1.313782991202346
1.321603128054741
1.324535679374389
1.321603128054741
1.3147605083088951
1.3049853372434017
1.2961876832844574
1.2932551319648091
1.303030303030303
1.3235581622678396
1.359726295210166
1.4252199413489737
1.5190615835777126
1.640273704789834
1.7849462365591398
1.948191593352884
2.121212121212121
2.2932551319648096
2.455522971652004
2.5992179863147604
2.7155425219941347
2.791788856304985
2.833822091886608
2.854349951124145
2.8514173998044967
2.825024437927664
2.7751710654936463
2.705767350928641
2.619745845552297
2.5210166177908118
2.4115347018572826
2.2952101661779083
2.1739980449657867
2.0518084066471163
1.9442815249266865
1.8455522971652003
1.739980449657869
1.6334310850439884
1.5278592375366569
1.4291300097751711
1.3391984359726294
1.2580645161290325
1.1857282502443791
1.1231671554252198
1.0703812316715542
1.0263929618768328
0.997067448680352
0.9794721407624634
0.967741935483871
0.9628543499511242
0.9648093841642228
0.9726295210166178
0.9853372434017597
1.0039100684261977
1.0273704789833822
1.0547409579667644
1.0840664711632453
1.1163245356793745
1.1505376344086022
1.181818181818182
1.2101661779081134
1.2375366568914956
1.2609970674486803
1.2795698924731185
1.2932551319648091
1.3020527859237536
1.3069403714565004
1.3069403714565004
1.3049853372434017
1.3020527859237536
1.2981427174975562
1.2961876832844574
1.2961876832844574
1.300097751710655
1.313782991202346
1.3421309872922775
1.391006842619746
1.4672531769305963
1.5718475073313782
1.7008797653958945
1.8514173998044965
2.027370478983382
2.2130987292277613
2.3841642228739004
2.5180840664711632
2.622678396871945
2.717497556207233
2.789833822091887
2.834799608993157
2.849462365591398
2.8367546432062563
2.7996089931573804
2.739980449657869
2.66177908113392
2.56891495601173
2.4652981427174976
2.3655913978494625
2.267839687194526
2.158357771260997
2.0439882697947214
1.9286412512218964
1.8142717497556209
1.7018572825024438
1.5933528836754642
1.490713587487781
1.3978494623655917
1.3157380254154447
1.2434017595307918
1.1827956989247312
1.1397849462365592
1.1094819159335287
1.0821114369501466
1.0606060606060606
1.04594330400782
1.0381231671554252
1.0381231671554252
1.0449657869012707
1.0586510263929618
1.0791788856304985
1.104594330400782
1.1329423264907137
1.1622678396871946
1.1945259042033236
1.2297165200391007
1.2658846529814272
1.3010752688172045
1.3333333333333333
1.3626588465298142
1.3890518084066472
1.4115347018572826
1.4291300097751711
1.4418377321603129
1.4496578690127078
1.452590420332356
1.4535679374389052
1.4516129032258065
1.447702834799609
1.444770283479961
1.447702834799609
1.4623655913978495
1.4936461388074291
1.5464320625610948
1.624633431085044
1.729227761485826
1.86119257086999
2.016617790811339
2.161290322580645
2.300097751710655
2.4574780058651027
2.613880742913001
2.7565982404692084
2.874877810361681
2.962854349951124
3.0195503421309877
3.0439882697947214
3.0391006842619745
3.006842619745845
2.951124144672532
2.875855327468231
2.795698924731183
2.7096774193548385
2.608993157380254
2.4995112414467253
2.383186705767351
2.2639296187683287
2.1417399804496577
2.022482893450636
1.90811339198436
1.7986314760508308
1.6959921798631477
1.6021505376344083
1.5278592375366569
1.4672531769305963
1.409579667644184
1.3577712609970674
1.313782991202346
1.278592375366569
1.252199413489736
1.2346041055718475
1.2258064516129032
1.2258064516129032
1.2336265884652982
1.2473118279569892
1.2668621700879763
1.2883675464320623
1.310850439882698
1.3362658846529814
1.364613880742913
1.392961876832845
1.4193548387096775
1.444770283479961
1.4672531769305963
1.4848484848484849
1.4965786901270772
1.5024437927663734
1.5034213098729228
1.5034213098729228
1.501466275659824
1.4946236559139785
1.4848484848484849
1.4711632453567938
1.458455522971652
1.447702834799609
1.4418377321603129
1.4467253176930597
1.469208211143695
1.5151515151515151
1.5894428152492668
1.694037145650049
1.804496578690127
1.9257086999022484
2.080156402737048
2.254154447702835
2.4330400782013686
2.6050830889540566
2.760508308895406
2.889540566959922
2.988269794721408
3.0527859237536656
3.0821114369501466
3.0791788856304985
3.050830889540567
3.002932551319648
2.932551319648094
2.84652981427175
2.745845552297165
2.633431085043988
2.5141739980449658
2.391006842619746
2.2639296187683287
2.1358748778103616
2.0087976539589443
1.8866080156402736
1.772238514173998
1.678396871945259
1.5962854349951123
1.5131964809384164
1.4349951124144673
1.3655913978494625
1.3049853372434017
1.2551319648093842
1.2150537634408602
1.18475073313783
1.1622678396871946
1.1466275659824048
1.1378299120234605
1.1368523949169111
1.142717497556207
1.152492668621701
1.166177908113392
1.18475073313783
1.206256109481916
1.2297165200391007
1.2531769305962854
1.2756598240469208
1.2971652003910068
1.3176930596285434
1.3362658846529814
1.3519061583577712
1.364613880742913
1.3724340175953078
1.3763440860215057
1.3782991202346042
1.3782991202346042
1.3763440860215057
1.3734115347018572
1.3685239491691104
1.3616813294232648
1.356793743890518
1.3587487781036167
1.3714565004887584
1.393939393939394
1.4330400782013686
1.499511241446725
1.5943304007820136
1.7165200391006843
1.8621700879765395
2.0254154447702835
2.1974584555229715
2.3685239491691106
2.527859237536657
2.665689149560117
2.776148582600196
2.8484848484848486
2.8885630498533725
2.90811339198436
2.9042033235581624
2.874877810361681
2.820136852394917
2.744868035190616
2.652003910068426
2.5464320625610948
2.432062561094819
2.3118279569892475
2.190615835777126
2.0684261974584555
1.959921798631476
1.8621700879765395
1.7575757575757576
1.6520039100684265
1.5503421309872922
1.455522971652004
1.370478983382209
1.2961876832844574
1.23069403714565
1.173998044965787
1.1270772238514175
1.0899315738025417
1.0654936461388074
1.0488758553274682
1.0342130987292275
1.024437927663734
1.0205278592375366
1.0234604105571847
1.0332355816226784
1.0488758553274682
1.0703812316715542
1.093841642228739
1.118279569892473
1.1466275659824048
1.1749755620723363
1.2013685239491692
1.2258064516129032
1.249266862170088
1.2717497556207231
1.29227761485826
1.3088954056695992
1.3225806451612905
1.3313782991202343
1.335288367546432
1.3343108504398826
1.3284457478005864
1.3196480938416422
1.3118279569892473
1.3049853372434017
1.2971652003910068
1.2942326490713587
1.295210166177908
1.3079178885630498
1.346041055718475
1.4105571847507332
1.499511241446725
1.611925708699902
1.7458455522971652
1.8934506353861196
2.046920821114369
2.177908113391984
2.29227761485826
2.406647116324536
2.50733137829912
2.58455522971652
2.633431085043988
2.654936461388074
2.649071358748778
2.6177908113391983
2.5640273704789838
2.4916911045943304
2.404692082111437
2.3167155425219943
2.225806451612903
2.121212121212121
2.007820136852395
1.8905180840664717
1.7732160312805474
1.6598240469208212
1.5542521994134897
1.4545454545454546
1.3626588465298142
1.2795698924731185
1.2052785923753666
1.13880742913001
1.088954056695992
1.050830889540567
1.0146627565982405
0.9853372434017597
0.9628543499511242
0.9491691104594332
0.9442815249266864
0.9472140762463344
0.9579667644183774
0.9726295210166178
0.9912023460410556
1.013685239491691
1.0381231671554252
1.0625610948191593
1.0869990224828934
1.110459433040078
1.1358748778103618
1.164222873900293
1.1925708699902249
1.2189638318670577
1.241446725317693
1.260019550342131
1.2756598240469208
1.2873900293255132
1.2942326490713587
1.2981427174975562
1.300097751710655
1.2991202346041055
1.295210166177908
1.2873900293255132
1.2776148582600195
1.2688172043010753
1.2649071358748778
1.2717497556207231
1.2942326490713587
1.33822091886608
1.4086021505376345
1.487781036168133
1.5796676441837731
1.7038123167155426
1.8494623655913975
2.005865102639296
2.1622678396871944
2.310850439882698
2.442815249266862
2.550342130987292
2.6285434995112413
2.677419354838709
2.6959921798631474
2.686217008797654
2.656891495601173
2.611925708699902
2.547409579667644
2.466275659824047
2.372434017595308
2.2688172043010755
2.157380254154448
2.042033235581622
1.9257086999022484
1.8103616813294232
1.6979472140762464
1.5923753665689149
1.504398826979472
1.4291300097751711
1.3509286412512218
1.2766373411534702
1.2082111436950147
1.1485826001955035
1.0977517106549364
1.0547409579667644
1.0205278592375366
0.9960899315738024
0.9804496578690128
0.9736070381231672
0.975562072336266
0.9853372434017597
1.0
1.018572825024438
1.0410557184750733
1.067448680351906
1.0977517106549364
1.1270772238514175
1.155425219941349
1.181818181818182
1.206256109481916
1.2287390029325511
1.2502443792766371
1.2697947214076246
1.2873900293255132
1.3040078201368523
1.3186705767350928
1.3294232649071358
1.3362658846529814
1.33822091886608
1.3372434017595307
1.3333333333333333
1.3255131964809383
1.3157380254154447
1.3049853372434017
1.2971652003910068
1.2961876832844574
1.3069403714565004
1.3362658846529814
1.388074291300098
1.4643206256109482
1.5679374389051808
1.6979472140762464
1.847507331378299
2.0087976539589443
2.1730205278592374
2.332355816226784
2.4760508308895406
2.581622678396872
2.6578690127077222
2.720430107526881
2.7595307917888565
2.7722385141739982
2.758553274682307
2.7223851417399803
2.664711632453568
2.589442815249267
2.498533724340176
2.396871945259042
2.2883675464320627
2.188660801564027
2.093841642228739
1.988269794721408
1.8778103616813293
1.7673509286412512
1.6588465298142718
1.555229716520039
1.458455522971652
1.3695014662756595
1.2903225806451613
1.2218963831867058
1.164222873900293
1.1163245356793745
1.0821114369501466
1.0596285434995112
1.0410557184750733
1.0273704789833822
1.0205278592375366
1.021505376344086
1.029325513196481
1.043010752688172
1.0606060606060606
1.083088954056696
1.1085043988269794
1.1378299120234605
1.1681329423264908
1.1974584555229717
1.2287390029325511
1.260019550342131
1.2883675464320623
1.3157380254154447
1.33822091886608
1.3577712609970674
1.3743890518084063
1.3870967741935485
1.3958944281524928
1.3988269794721409
1.3978494623655917
1.3949169110459434
1.3919843597262953
1.3851417399804498
1.3773216031280548
1.3695014662756595
1.3655913978494625
1.3724340175953078
1.3958944281524928
1.4408602150537635
1.5102639296187683
1.6050830889540566
1.7253176930596286
1.844574780058651
1.9667644183773216
2.112414467253177
2.264907135874878
2.4134897360703813
2.548387096774193
2.66177908113392
2.748778103616813
2.809384164222874
2.8426197458455524
2.84652981427175
2.825024437927664
2.780058651026393
2.7233626588465296
2.6559139784946235
2.570869990224829
2.474095796676442
2.3685239491691106
2.2580645161290325
2.145650048875855
2.03128054740958
1.9178885630498532
1.8074291300097751
1.7018572825024438
1.6041055718475072
1.52297165200391
1.4545454545454546
1.3870967741935485
1.324535679374389
1.2688172043010753
1.2228739002932552
1.1867057673509287
1.1593352883675463
1.1397849462365592
1.1280547409579669
1.1241446725317692
1.1270772238514175
1.1368523949169111
1.152492668621701
1.1720430107526882
1.1964809384164223
1.2228739002932552
1.252199413489736
1.2805474095796676
1.3088954056695992
1.335288367546432
1.359726295210166
1.3841642228739004
1.4252199413489737
1.4721407624633431
1.500488758553275
1.5190615835777126
1.5298142717497556
1.5356793743890518
1.5376344086021505
1.5356793743890518
1.530791788856305
1.5239491691104594
1.5180840664711632
1.5161290322580645
1.5239491691104594
1.5454545454545454
1.585532746823069
1.6373411534701858
1.7057673509286413
1.8084066471163245
1.93841642228739
2.089931573802541
2.2551319648093844
2.426197458455523
2.591397849462365
2.742913000977517
2.874877810361681
2.981427174975562
3.056695992179863
3.0948191593352883
3.1065493646138806
3.0977517106549364
3.0664711632453567
3.0117302052785924
2.93841642228739
2.849462365591398
2.747800586510264
2.636363636363636
2.517106549364614
2.393939393939394
2.2688172043010755
2.145650048875855
2.0391006842619745
1.943304007820137
1.842619745845552
1.7438905180840665
1.6520039100684265
1.5679374389051808
1.4916911045943304
1.423264907135875
1.364613880742913
1.3157380254154447
1.2766373411534702
1.2482893450635386
1.2316715542521994
1.224828934506354
1.2238514173998043
1.23069403714565
1.2424242424242424
1.2590420332355816
1.2805474095796676
1.3049853372434017
1.332355816226784
1.3607038123167154
1.388074291300098
1.4134897360703813
1.4379276637341154
1.4604105571847508
1.4809384164222874
1.501466275659824
1.5180840664711632
1.5317693059628543
1.5405669599217986
1.544477028347996
1.544477028347996
1.5405669599217986
1.5327468230694037
1.521994134897361
1.512218963831867
1.5063538611925709
1.5063538611925709
1.5161290322580645
1.542521994134897
1.5913978494623655
1.6656891495601174
1.7683284457478006
1.9012707722385145
2.056695992179863
2.2267839687194524
2.404692082111437
2.579667644183773
2.740957966764418
2.865102639296188
2.959921798631476
3.043010752688172
3.101661779081134
3.132942326490713
3.136852394916911
3.114369501466276
3.067448680351906
3.0009775171065494
2.916911045943304
2.820136852394917
2.7116324535679373
2.608993157380254
2.509286412512219
2.398826979472141
2.2825024437927666
2.164222873900293
2.048875855327468
1.93841642228739
1.8328445747800584
1.7331378299120237
1.6412512218963833
1.5571847507331378
1.4838709677419355
1.4281524926686218
1.3841642228739004
1.3411534701857282
1.3049853372434017
1.2756598240469208
1.2541544477028348
1.241446725317693
1.2375366568914956
1.241446725317693
1.2531769305962854
1.2717497556207231
1.295210166177908
1.321603128054741
1.3470185728250244
1.3724340175953078
1.3978494623655917
1.4222873900293256
1.4457478005865103
1.469208211143695
1.4897360703812317
1.5073313782991202
1.5239491691104594
1.5376344086021505
1.5454545454545454
1.5483870967741935
1.5483870967741935
1.5464320625610948
1.5405669599217986
1.530791788856305
1.520039100684262
1.512218963831867
1.5102639296187683
1.520039100684262
1.5464320625610948
1.595307917888563
1.6705767350928642
1.775171065493646
1.9071358748778104
2.0361681329423265
2.16911045943304
2.329423264907136
2.4995112414467253
2.664711632453568
2.812316715542522
2.935483870967742
3.029325513196481
3.09188660801564
3.124144672531769
3.129032258064516
3.1065493646138806
3.065493646138808
3.0087976539589443
2.9315738025415445
2.838709677419355
2.7341153470185726
2.6207233626588464
2.4995112414467253
2.3743890518084068
2.2482893450635384
2.1251221896383186
2.004887585532747
1.8905180840664717
1.7849462365591398
1.6979472140762464
1.6236559139784943
1.5483870967741935
1.478983382209189
1.41544477028348
1.359726295210166
1.313782991202346
1.278592375366569
1.2531769305962854
1.2365591397849462
1.2287390029325511
1.2297165200391007
1.2375366568914956
1.2512218963831867
1.270772238514174
1.2942326490713587
1.3206256109481915
1.3509286412512218
1.3822091886608017
1.4105571847507332
1.435972629521017
1.4594330400782014
1.478983382209189
1.495601173020528
1.5083088954056696
1.5190615835777126
1.5268817204301075
1.5317693059628543
1.533724340175953
1.5317693059628543
1.5249266862170088
1.512218963831867
1.4946236559139785
1.4750733137829912
1.457478005865103
1.444770283479961
1.4428152492668622
1.452590420332356
1.479960899315738
1.5347018572825024
1.619745845552297
1.7341153470185728
1.8748778103616808
2.037145650048876
2.2130987292277613
2.393939393939394
2.56891495601173
2.729227761485826
2.868035190615836
2.978494623655914
3.050830889540567
3.090909090909091
3.112414467253177
3.1094819159335287
3.080156402737048
3.027370478983382
2.956011730205278
