ppg
2.8729227761485827
2.919843597262952
2.962854349951124
3.0
3.029325513196481
3.0498533724340176
3.059628543499511
3.059628543499511
3.047898338220919
3.024437927663734
2.991202346041056
2.951124144672532
2.902248289345064
2.8455522971652005
2.7839687194525906
2.718475073313783
2.653958944281525
2.590420332355816
2.529814271749756
2.4731182795698925
2.421309872922776
2.3743890518084068
2.3313782991202348
2.294232649071359
2.259042033235582
2.222873900293255
2.185728250244379
2.1485826001955037
2.110459433040078
2.072336265884653
2.034213098729228
1.997067448680352
1.9237536656891496
1.8328445747800584
1.7712609970674489
1.7272727272727273
1.6930596285434996
1.6588465298142718
1.624633431085044
1.590420332355816
1.5571847507331378
1.525904203323558
1.495601173020528
1.4672531769305963
1.439882697947214
1.414467253176931
1.391006842619746
1.3685239491691104
1.3519061583577712
1.3372434017595307
1.3196480938416422
1.3010752688172045
1.2834799608993157
1.2658846529814272
1.2482893450635386
1.2316715542521994
1.2160312805474096
1.2013685239491692
1.187683284457478
1.1749755620723363
1.1652003910068427
1.1573802541544478
1.147605083088954
1.1358748778103618
1.1241446725317692
1.1133919843597262
1.1026392961876832
1.0928641251221896
1.083088954056696
1.0733137829912025
1.064516129032258
1.0576735092864125
1.050830889540567
1.0478983382209188
1.0469208211143697
1.043010752688172
1.0381231671554252
1.0332355816226784
1.0283479960899315
1.0234604105571847
1.018572825024438
1.013685239491691
1.0087976539589445
1.0039100684261977
1.0
1.0
1.0039100684261977
1.0117302052785924
1.029325513196481
1.0596285434995112
1.10752688172043
1.173998044965787
1.260019550342131
1.3636363636363635
1.4809384164222874
1.606060606060606
1.7341153470185728
1.8602150537634408
1.9657869012707725
2.056695992179863
2.1515151515151514
2.242424242424242
2.3274682306940373
2.4056695992179864
2.47702834799609
2.5434995112414467
2.6041055718475072
2.659824046920821
2.7096774193548385
2.7536656891495603
2.782991202346041
2.8025415444770285
2.820136852394917
2.832844574780059
2.8367546432062563
2.831867057673509
2.8152492668621703
2.787878787878788
2.748778103616813
2.7008797653958942
2.6451612903225805
2.58455522971652
2.525904203323558
2.469208211143695
2.410557184750733
2.3528836754643208
2.297165200391007
2.24633431085044
2.19941348973607
2.157380254154448
2.118279569892473
2.081133919843597
2.0449657869012707
2.0087976539589443
1.9736070381231672
1.9413489736070384
1.911045943304008
1.8778103616813293
1.842619745845552
1.8064516129032255
1.7702834799608993
1.7341153470185728
1.6979472140762464
1.6637341153470186
1.629521016617791
1.5972629521016617
1.565982404692082
1.5405669599217986
1.5180840664711632
1.4936461388074291
1.469208211143695
1.4457478005865103
1.423264907135875
1.401759530791789
1.3812316715542523
1.3616813294232648
1.3421309872922775
1.3225806451612905
1.3040078201368523
1.2854349951124144
1.2717497556207231
1.260019550342131
1.24633431085044
1.2326490713587488
1.2189638318670577
1.2052785923753666
1.1915933528836755
1.1788856304985338
1.166177908113392
1.1544477028347997
1.142717497556207
1.1319648093841643
1.1251221896383188
1.1202346041055715
1.1124144672531768
1.1036168132942326
1.0948191593352885
1.086021505376344
1.078201368523949
1.0713587487781036
1.064516129032258
1.0576735092864125
1.0518084066471165
1.04594330400782
1.040078201368524
1.0381231671554252
1.0381231671554252
1.0361681329423265
1.032258064516129
1.0273704789833822
1.0224828934506354
1.0175953079178883
1.0146627565982405
1.0146627565982405
1.0224828934506354
1.0420332355816226
1.0762463343108504
1.1192570869990224
1.1759530791788857
1.2551319648093842
1.35386119257087
1.4672531769305963
1.5913978494623655
1.721407624633431
1.913978494623656
2.0361681329423265
2.1495601173020527
2.304007820136853
2.393939393939394
2.463343108504399
2.5210166177908118
2.6099706744868034
2.667644183773216
2.721407624633431
2.814271749755621
2.8514173998044967
2.881720430107527
2.916911045943304
2.917888563049853
2.90811339198436
2.877810361681329
2.844574780058651
2.8025415444770285
2.7517106549364616
2.6940371456500487
2.631476050830889
2.5669599217986314
2.5024437927663734
2.439882697947214
2.380254154447703
2.324535679374389
2.2766373411534704
2.233626588465298
2.190615835777126
2.1495601173020527
2.110459433040078
2.072336265884653
2.034213098729228
1.997067448680352
1.9589442815249267
1.920821114369501
1.8826979472140764
1.8455522971652003
1.812316715542522
1.7820136852394917
1.747800586510264
1.7126099706744868
1.6774193548387095
1.6422287390029326
1.607038123167155
1.5718475073313782
1.5386119257087
1.5073313782991202
1.47702834799609
1.4486803519061584
1.4213098729227762
1.3998044965786902
1.3812316715542523
1.3607038123167154
1.3401759530791788
1.3206256109481915
1.3010752688172045
1.2825024437927663
1.2649071358748778
1.2473118279569892
1.23069403714565
1.2140762463343109
1.198435972629521
1.1867057673509287
1.1779081133919844
1.166177908113392
1.1544477028347997
1.141739980449658
1.1290322580645162
1.1173020527859236
1.1055718475073313
1.0948191593352885
1.0850439882697946
1.0762463343108504
1.0684261974584557
1.0606060606060606
1.056695992179863
1.0547409579667644
1.050830889540567
1.0478983382209188
1.04594330400782
1.0410557184750733
1.035190615835777
1.029325513196481
1.0234604105571847
1.0195503421309873
1.0156402737047898
1.0156402737047898
1.0156402737047898
1.0156402737047898
1.0156402737047898
1.0156402737047898
1.0156402737047898
1.0048875855327468
1.013685239491691
1.0342130987292275
1.0703812316715542
1.126099706744868
1.2023460410557183
1.2981427174975562
1.4115347018572826
1.521016617790811
1.629521016617791
1.75366568914956
1.8826979472140764
2.010752688172043
2.131964809384164
2.243401759530792
2.346041055718475
2.4389051808406648
2.5239491691104594
2.6021505376344085
2.673509286412512
2.7282502443792764
2.7722385141739982
2.8211143695014664
2.8690127077223853
2.9120234604105573
2.948191593352884
2.9765395894428157
2.995112414467253
3.003910068426197
3.0019550342130987
2.988269794721408
2.963831867057673
2.927663734115347
2.884652981427175
2.834799608993157
2.776148582600196
2.7116324535679373
2.6422287390029324
2.5718475073313782
2.5024437927663734
2.4359726295210167
2.3734115347018574
2.314760508308896
2.259042033235582
2.204301075268817
2.155425219941349
2.1094819159335287
2.059628543499511
2.006842619745845
1.9521016617790807
1.8983382209188664
1.844574780058651
1.7917888563049853
1.739980449657869
1.6901270772238517
1.640273704789834
1.5923753665689149
1.5513196480938416
1.5151515151515151
1.4750733137829912
1.4349951124144673
1.396871945259042
1.3607038123167154
1.327468230694037
1.2961876832844574
1.2668621700879763
1.2404692082111437
1.2150537634408602
1.1906158357771262
1.1681329423264908
1.1505376344086022
1.1368523949169111
1.121212121212121
1.1055718475073313
1.0899315738025417
1.075268817204301
1.0606060606060606
1.0469208211143697
1.032258064516129
1.0175953079178883
1.002932551319648
0.9882697947214076
0.978494623655914
0.9706744868035192
0.9589442815249268
0.946236559139785
0.9335288367546432
0.9208211143695014
0.9090909090909092
0.8983382209188661
0.8885630498533724
0.8807429130009775
0.873900293255132
0.8690127077223851
0.8660801564027371
0.8680351906158358
0.8719452590420332
0.873900293255132
0.8758553274682307
0.8768328445747801
0.8787878787878788
0.8807429130009775
0.884652981427175
0.8895405669599218
0.8944281524926686
0.8993157380254154
0.9042033235581622
0.9120234604105572
0.9217986314760508
0.9315738025415444
0.946236559139785
0.9696969696969696
1.007820136852395
1.064516129032258
1.141739980449658
1.2394916911045943
1.3548387096774193
1.4838709677419355
1.6217008797653958
1.761485826001955
1.881720430107527
1.988269794721408
2.101661779081134
2.2111436950146626
2.313782991202346
2.407624633431085
2.49266862170088
2.570869990224829
2.643206256109482
2.7096774193548385
2.7702834799608995
2.8260019550342133
2.8670576735092865
2.897360703812317
2.9286412512218964
2.956989247311828
2.9775171065493646
2.989247311827957
2.9902248289345064
2.978494623655914
2.95405669599218
2.917888563049853
2.870967741935484
2.817204301075269
2.757575757575758
2.699902248289345
2.643206256109482
2.5855327468230693
2.5288367546432062
2.4750733137829912
2.426197458455523
2.380254154447703
2.3382209188660803
2.2981427174975564
2.260019550342131
2.2218963831867056
2.1837732160312804
2.1485826001955037
2.114369501466276
2.0772238514174
2.037145650048876
1.9960899315738023
1.9550342130987293
1.9130009775171064
1.870967741935484
1.8299120234604105
1.7888563049853372
1.7497556207233629
1.7116324535679377
1.675464320625611
1.6451612903225807
1.6187683284457477
1.590420332355816
1.5620723362658846
1.5347018572825024
1.5083088954056696
1.4838709677419355
1.4604105571847508
1.4379276637341154
1.4164222873900294
1.3949169110459434
1.375366568914956
1.359726295210166
1.3470185728250244
1.332355816226784
1.316715542521994
1.3010752688172045
1.2854349951124144
1.270772238514174
1.2561094819159335
1.241446725317693
1.227761485826002
1.2150537634408602
1.2023460410557183
1.1896383186705768
1.1808406647116323
1.173998044965787
1.1652003910068427
1.155425219941349
1.144672531769306
1.133919843597263
1.1241446725317692
1.115347018572825
1.1065493646138806
1.0987292277614855
1.0918866080156402
1.086021505376344
1.0840664711632453
1.083088954056696
1.0811339198435972
1.0791788856304985
1.0772238514173995
1.0742913000977516
1.0703812316715542
1.0664711632453567
1.06158357771261
1.0576735092864125
1.0557184750733135
1.0596285434995112
1.0733137829912025
1.096774193548387
1.1329423264907137
1.1896383186705768
1.267839687194526
1.367546432062561
1.4858260019550342
1.616813294232649
1.7556207233626588
1.8963831867057677
2.0332355816226784
2.163245356793744
2.2844574780058653
2.380254154447703
2.4604105571847508
2.5425219941348973
2.622678396871945
2.697947214076246
2.7673509286412514
2.83088954056696
2.8885630498533725
2.941348973607038
2.9872922776148583
3.013685239491691
3.0254154447702835
3.0391006842619745
3.043010752688172
3.040078201368524
3.034213098729228
3.0205278592375366
2.9980449657869013
2.9657869012707723
2.9237536656891496
2.873900293255132
2.817204301075269
2.755620723362659
2.6901270772238512
2.624633431085044
2.5650048875855327
2.5102639296187683
2.4545454545454546
2.401759530791789
2.3519061583577714
2.3059628543499517
2.2629521016617797
2.222873900293255
2.1847507331378297
2.147605083088954
2.1114369501466275
2.074291300097752
2.0410557184750733
2.0087976539589443
1.9736070381231672
1.9374389051808407
1.900293255131965
1.8631476050830889
1.8269794721407624
1.790811339198436
1.7556207233626588
1.721407624633431
1.6881720430107527
1.6559139784946235
1.624633431085044
1.598240469208211
1.5757575757575757
1.5513196480938416
1.5268817204301075
1.5024437927663734
1.479960899315738
1.458455522971652
1.4379276637341154
1.4173998044965788
1.3978494623655917
1.3792766373411536
1.3607038123167154
1.3470185728250244
1.3362658846529814
1.3235581622678396
1.3098729227761483
1.2961876832844574
1.2834799608993157
1.2697947214076246
1.2570869990224829
1.2443792766373412
1.2326490713587488
1.2218963831867058
1.2121212121212122
1.2023460410557183
1.1964809384164223
1.1925708699902249
1.1867057673509287
1.1798631476050832
1.1720430107526882
1.164222873900293
1.1573802541544478
1.1515151515151516
1.1456500488758554
1.1407624633431086
1.1358748778103618
1.1319648093841643
1.130987292277615
1.130987292277615
1.1290322580645162
1.1251221896383188
1.1202346041055715
1.115347018572825
1.1114369501466277
1.110459433040078
1.1143695014662756
1.1270772238514175
1.1534701857282503
1.1964809384164223
1.2580645161290325
1.3264907135874875
1.4056695992179864
1.5063538611925709
1.6217008797653958
1.7458455522971652
1.871945259042033
1.9951124144672527
2.112414467253177
2.220918866080156
2.3196480938416424
2.4086021505376345
2.489736070381232
2.552297165200391
2.6041055718475072
2.659824046920821
2.7145650048875853
2.766373411534702
2.814271749755621
2.855327468230694
2.8905180840664717
2.917888563049853
2.936461388074292
2.945259042033236
2.9442815249266863
2.9335288367546437
2.9120234604105573
2.8826979472140764
2.8455522971652005
2.80058651026393
2.748778103616813
2.6911045943304006
2.6295210166177907
2.5669599217986314
2.505376344086021
2.4457478005865103
2.391006842619746
2.3411534701857284
2.2991202346041058
2.26197458455523
2.2248289345063537
2.188660801564027
2.1524926686217007
2.117302052785924
2.0821114369501466
2.04594330400782
2.0097751710654936
1.9736070381231672
1.9374389051808407
1.9012707722385145
1.865102639296188
1.8328445747800584
1.8035190615835777
1.772238514173998
1.7390029325513197
1.7057673509286413
1.6735092864125125
1.6412512218963833
1.6109481915933528
1.5826001955034212
1.555229716520039
1.5288367546432062
1.5034213098729228
1.4838709677419355
1.4682306940371457
1.4496578690127078
1.43108504398827
1.412512218963832
1.3958944281524928
1.3792766373411536
1.364613880742913
1.3509286412512218
1.3372434017595307
1.3235581622678396
1.3098729227761483
1.2961876832844574
1.2864125122189638
1.278592375366569
1.2688172043010753
1.2580645161290325
1.2473118279569892
1.2365591397849462
1.2267839687194526
1.217008797653959
1.2072336265884651
1.198435972629521
1.1896383186705768
1.1808406647116323
1.1759530791788857
1.173998044965787
1.1691104594330402
1.164222873900293
1.1593352883675463
1.1534701857282503
1.1485826001955035
1.144672531769306
1.1407624633431086
1.1378299120234605
1.133919843597263
1.130987292277615
1.1270772238514175
1.126099706744868
1.1270772238514175
1.126099706744868
1.126099706744868
1.1319648093841643
1.147605083088954
1.176930596285435
1.2228739002932552
1.2883675464320623
1.3734115347018572
1.4760508308895406
1.5913978494623655
1.6989247311827955
1.801564027370479
1.9159335288367547
2.032258064516129
2.1436950146627565
2.247311827956989
2.3411534701857284
2.426197458455523
2.5024437927663734
2.5718475073313782
2.635386119257087
2.6930596285435
2.745845552297165
2.78494623655914
2.814271749755621
2.8455522971652005
2.873900293255132
2.897360703812317
2.913000977517106
2.918866080156403
2.913978494623656
2.898338220918866
2.8719452590420333
2.833822091886608
2.7869012707722387
2.7370478983382207
2.6852394916911044
2.6265884652981426
2.5650048875855327
2.5034213098729228
2.443792766373412
2.389051808406647
2.3382209188660803
2.291300097751711
2.249266862170088
2.210166177908113
2.1730205278592374
2.1378299120234603
2.1065493646138806
2.0762463343108504
2.043010752688172
2.0087976539589443
1.9726295210166176
1.9364613880742916
1.900293255131965
1.865102639296188
1.8299120234604105
1.7956989247311828
1.761485826001955
1.7272727272727273
1.6989247311827955
1.6735092864125125
1.6451612903225807
1.616813294232649
1.5650048875855327
1.5024437927663734
1.457478005865103
1.4222873900293256
1.392961876832845
1.367546432062561
1.3440860215053765
1.3225806451612905
1.3069403714565004
1.2942326490713587
1.2795698924731185
1.2639296187683284
1.2482893450635386
1.2326490713587488
1.2179863147605083
1.203323558162268
1.1886608015640274
1.1749755620723363
1.1612903225806452
1.147605083088954
1.1348973607038124
1.1270772238514175
1.121212121212121
1.1133919843597262
1.104594330400782
1.0957966764418376
1.0869990224828934
1.078201368523949
1.0703812316715542
1.0625610948191593
1.0547409579667644
1.0469208211143697
1.0410557184750733
1.0391006842619743
1.0391006842619743
1.0371456500488758
1.035190615835777
1.032258064516129
1.029325513196481
1.0254154447702837
1.021505376344086
1.0175953079178883
1.013685239491691
1.0097751710654936
1.0058651026392962
1.0039100684261977
1.0058651026392962
1.013685239491691
1.0263929618768328
1.0498533724340176
1.088954056695992
1.147605083088954
1.2258064516129032
1.324535679374389
1.439882697947214
1.5669599217986314
1.699902248289345
1.833822091886608
1.9472140762463344
2.046920821114369
2.150537634408602
2.251221896383187
2.345063538611926
2.43108504398827
2.509286412512219
2.582600195503421
2.649071358748778
2.710654936461388
2.766373411534702
2.81622678396872
2.859237536656892
2.887585532746823
2.905180840664712
2.9227761485826003
2.9345063538611926
2.9393939393939394
2.9345063538611926
2.919843597262952
2.8944281524926687
2.8582600195503423
2.812316715542522
2.757575757575758
2.695014662756598
2.634408602150537
2.573802541544477
2.5083088954056696
2.441837732160313
2.378299120234604
2.317693059628544
2.26197458455523
2.210166177908113
2.161290322580645
2.114369501466276
2.067448680351906
2.021505376344086
1.9745845552297163
1.932551319648094
1.8934506353861196
1.8514173998044965
1.8074291300097751
1.7624633431085044
1.718475073313783
1.6764418377321604
1.6344086021505375
1.5933528836754642
1.5532746823069403
1.5141739980449658
1.478005865102639
1.4496578690127078
1.426197458455523
1.4007820136852396
1.375366568914956
1.3509286412512218
1.327468230694037
1.305962854349951
1.2854349951124144
1.2658846529814272
1.2473118279569892
1.2287390029325511
1.2121212121212122
1.1964809384164223
1.1857282502443791
1.1779081133919844
1.1671554252199414
1.1564027370478984
1.1456500488758554
1.1348973607038124
1.1251221896383188
1.115347018572825
1.1055718475073313
1.096774193548387
1.0869990224828934
1.078201368523949
1.0733137829912025
1.0713587487781036
1.067448680351906
1.0635386119257086
1.0586510263929618
1.0527859237536656
1.0478983382209188
1.0420332355816226
1.0361681329423265
1.0312805474095796
1.0263929618768328
1.0234604105571847
1.021505376344086
1.0234604105571847
1.0283479960899315
1.032258064516129
1.035190615835777
1.0361681329423265
1.0371456500488758
1.0361681329423265
1.035190615835777
1.0332355816226784
1.0332355816226784
1.0371456500488758
1.0478983382209188
1.067448680351906
1.0977517106549364
1.144672531769306
1.2111436950146628
1.2971652003910068
1.401759530791789
1.520039100684262
1.6480938416422288
1.780058651026393
1.911045943304008
2.037145650048876
2.15347018572825
2.260997067448681
2.345063538611926
2.4144672531769307
2.486803519061584
2.557184750733138
2.6236559139784945
2.684261974584555
2.739980449657869
2.790811339198436
2.835777126099707
2.873900293255132
2.905180840664712
2.9286412512218964
2.9393939393939394
2.9393939393939394
2.9345063538611926
2.920821114369501
2.897360703812317
2.863147605083089
2.819159335288368
2.766373411534702
2.70772238514174
2.6451612903225805
2.5806451612903225
2.5161290322580645
2.4545454545454546
2.40078201368524
2.3528836754643208
2.3059628543499517
2.260997067448681
2.218963831867057
2.177908113391984
2.1388074291300097
2.1006842619745845
2.0625610948191597
2.0254154447702835
1.9872922776148585
1.949169110459433
1.9149560117302051
1.8826979472140764
1.847507331378299
1.8113391984359728
1.775171065493646
1.7390029325513197
1.7028347996089932
1.667644183773216
1.632453567937439
1.598240469208211
1.565982404692082
1.5347018572825024
1.509286412512219
1.4868035190615836
1.4623655913978495
1.436950146627566
1.412512218963832
1.388074291300098
1.3655913978494625
1.3450635386119256
1.3255131964809383
1.3069403714565004
1.289345063538612
1.2717497556207231
1.2551319648093842
1.2434017595307918
1.2326490713587488
1.219941348973607
1.2052785923753666
1.1915933528836755
1.1779081133919844
1.164222873900293
1.1505376344086022
1.1378299120234605
1.126099706744868
1.115347018572825
1.1055718475073313
1.099706744868035
1.0957966764418376
1.088954056695992
1.0811339198435972
1.0733137829912025
1.0654936461388074
1.0576735092864125
1.0498533724340176
1.043010752688172
1.0381231671554252
1.0332355816226784
1.0283479960899315
1.0234604105571847
1.0224828934506354
1.0234604105571847
1.021505376344086
1.018572825024438
1.0146627565982405
1.010752688172043
1.0068426197458455
1.0039100684261977
1.0048875855327468
1.0127077223851415
1.032258064516129
1.0684261974584557
1.1133919843597262
1.1730205278592376
1.2561094819159335
1.3607038123167154
1.4819159335288368
1.6138807429130009
1.7497556207233629
1.8856304985337244
2.016617790811339
2.1388074291300097
2.2521994134897363
2.355816226783969
2.449657869012708
2.5219941348973607
2.582600195503421
2.64613880742913
2.7096774193548385
2.7702834799608995
2.8269794721407626
2.878787878787879
2.9237536656891496
2.960899315738025
2.989247311827957
3.0087976539589443
3.018572825024438
3.01564027370479
3.0019550342130987
2.981427174975562
2.952101661779081
2.913000977517106
2.8641251221896384
2.806451612903226
2.742913000977517
2.674486803519061
2.6041055718475072
2.5347018572825024
2.4682306940371457
2.4056695992179864
2.3519061583577714
2.304985337243402
2.2580645161290325
2.2140762463343107
2.1710654936461387
2.1300097751710654
2.089931573802541
2.050830889540567
2.0117302052785924
1.9736070381231672
1.9345063538611929
1.895405669599218
1.8602150537634408
1.827956989247312
1.7927663734115349
1.7565982404692082
1.7194525904203324
1.683284457478006
1.6471163245356797
1.6129032258064515
1.5786901270772238
1.5454545454545454
1.5131964809384164
1.482893450635386
1.4535679374389052
1.4301075268817205
1.4105571847507332
1.3900293255131966
1.3695014662756595
1.348973607038123
1.3284457478005864
1.3088954056695992
1.2903225806451613
1.2717497556207231
1.2541544477028348
1.2375366568914956
1.2218963831867058
1.2101661779081134
1.2013685239491692
1.1896383186705768
1.176930596285435
1.164222873900293
1.1515151515151516
1.13880742913001
1.1280547409579669
1.1173020527859236
1.10752688172043
1.0977517106549364
1.088954056695992
1.0801564027370478
1.075268817204301
1.072336265884653
1.067448680351906
1.0625610948191593
1.056695992179863
1.0498533724340176
1.0439882697947214
1.0391006842619743
1.0342130987292275
1.029325513196481
1.0254154447702837
1.0224828934506354
1.0234604105571847
1.0254154447702837
1.0254154447702837
1.0234604105571847
1.0205278592375366
1.0175953079178883
1.0175953079178883
1.021505376344086
1.0332355816226784
1.056695992179863
1.0957966764418376
1.1534701857282503
1.2316715542521994
1.3147605083088951
1.4056695992179864
1.520039100684262
1.6471163245356797
1.780058651026393
1.9120234604105573
2.038123167155425
2.155425219941349
2.2629521016617797
2.3597262952101663
2.447702834799609
2.5268817204301075
2.587487781036168
2.6373411534701856
2.6911045943304006
2.7438905180840663
2.792766373411535
2.8367546432062563
2.874877810361681
2.906158357771261
2.929618768328446
2.9442815249266863
2.948191593352884
2.941348973607038
2.9227761485826003
2.89345063538612
2.855327468230694
2.807429130009776
2.750733137829912
2.687194525904203
2.619745845552297
2.5513196480938416
2.4838709677419355
2.418377321603128
2.357771260997068
2.303030303030303
2.2531769305962857
2.2111436950146626
2.1739980449657867
2.136852394916911
2.1006842619745845
2.064516129032258
2.0283479960899315
1.991202346041056
1.95405669599218
1.9159335288367547
1.87683284457478
1.8377321603128052
1.7996089931573802
1.761485826001955
1.729227761485826
1.6989247311827955
1.6656891495601174
1.6314760508308896
1.5972629521016617
1.564027370478983
1.530791788856305
1.499511241446725
1.469208211143695
1.439882697947214
1.412512218963832
1.3870967741935485
1.367546432062561
1.3509286412512218
1.332355816226784
1.313782991202346
1.295210166177908
1.2776148582600195
1.260019550342131
1.2434017595307918
1.227761485826002
