ppg
2.432062561094819
2.535679374389052
2.616813294232649
2.6959921798631474
2.766373411534702
2.8260019550342133
2.875855327468231
2.916911045943304
2.9501466275659824
2.9775171065493646
2.9980449657869013
3.0127077223851417
3.0195503421309877
3.0175953079178885
3.003910068426197
2.981427174975562
2.9501466275659824
2.90811339198436
2.855327468230694
2.792766373411535
2.720430107526881
2.641251221896383
2.5591397849462365
2.4760508308895406
2.396871945259042
2.3225806451612905
2.260019550342131
2.206256109481916
2.155425219941349
2.10850439882698
2.0664711632453567
2.029325513196481
1.9951124144672527
1.9618768328445748
1.9286412512218964
1.8944281524926687
1.8602150537634408
1.8240469208211143
1.7859237536656891
1.7526881720430108
1.721407624633431
1.6871945259042034
1.6520039100684265
1.616813294232649
1.581622678396872
1.547409579667644
1.5151515151515151
1.4838709677419355
1.452590420332356
1.423264907135875
1.3958944281524928
1.3734115347018572
1.3558162267839686
1.3362658846529814
1.316715542521994
1.2971652003910068
1.2795698924731185
1.2619745845552297
1.24633431085044
1.23069403714565
1.2160312805474096
1.2013685239491692
1.1867057673509287
1.1730205278592376
1.164222873900293
1.1573802541544478
1.147605083088954
1.1368523949169111
1.1270772238514175
1.1173020527859236
1.1085043988269794
1.099706744868035
1.0918866080156402
1.0840664711632453
1.0762463343108504
1.0684261974584557
1.0654936461388074
1.064516129032258
1.0625610948191593
1.0596285434995112
1.056695992179863
1.053763440860215
1.0498533724340176
1.04594330400782
1.0420332355816226
1.0381231671554252
1.0342130987292275
1.032258064516129
1.0312805474095796
1.0332355816226784
1.0361681329423265
1.0371456500488758
1.040078201368524
1.0488758553274682
1.0684261974584557
1.1036168132942326
1.1593352883675463
1.2404692082111437
1.3470185728250244
1.47702834799609
1.6265884652981428
1.7663734115347018
1.8993157380254155
2.048875855327468
2.198435972629521
2.3382209188660803
2.464320625610948
2.573802541544477
2.6666666666666665
2.744868035190616
2.8103616813294234
2.865102639296188
2.911045943304008
2.951124144672532
2.9765395894428157
2.992179863147605
3.0087976539589443
3.021505376344086
3.0283479960899315
3.026392961876833
3.0146627565982405
2.991202346041056
2.956011730205278
2.909090909090909
2.850439882697948
2.782013685239492
2.7126099706744866
2.641251221896383
2.5610948191593352
2.47702834799609
2.393939393939394
2.315738025415445
2.244379276637341
2.179863147605083
2.12316715542522
2.072336265884653
2.0283479960899315
1.988269794721408
1.951124144672532
1.919843597262952
1.8905180840664717
1.8592375366568916
1.825024437927664
1.7888563049853372
1.7517106549364614
1.7135874877810362
1.675464320625611
1.6373411534701858
1.5992179863147604
1.5542521994134897
1.5063538611925709
1.4701857282502444
1.4408602150537635
1.4105571847507332
1.380254154447703
1.3528836754643203
1.3284457478005864
1.3069403714565004
1.2873900293255132
1.2697947214076246
1.2531769305962854
1.238514173998045
1.227761485826002
1.2238514173998043
1.227761485826002
1.2424242424242424
1.2727272727272727
1.321603128054741
1.3900293255131966
1.4760508308895406
1.5777126099706744
1.689149560117302
1.8035190615835777
1.9149560117302051
2.0175953079178885
2.1065493646138806
2.1730205278592374
2.2218963831867056
2.2639296187683287
2.294232649071359
2.312805474095797
2.318670576735093
2.312805474095797
2.2961876832844577
2.267839687194526
2.228739002932551
2.179863147605083
2.12316715542522
2.067448680351906
2.010752688172043
1.946236559139785
1.8797653958944285
1.8162267839687196
1.7575757575757576
1.7067448680351909
1.6656891495601174
1.6344086021505375
1.6099706744868034
1.5913978494623655
1.5777126099706744
1.5650048875855327
1.5542521994134897
1.543499511241447
1.5288367546432062
1.5102639296187683
1.487781036168133
1.4623655913978495
1.434017595307918
1.4027370478983383
1.3685239491691104
1.3343108504398826
1.300097751710655
1.267839687194526
1.2424242424242424
1.2209188660801564
1.1964809384164223
1.1720430107526882
1.1495601173020529
1.1290322580645162
1.1094819159335287
1.0918866080156402
1.0762463343108504
1.06158357771261
1.0478983382209188
1.0361681329423265
1.0254154447702837
1.018572825024438
1.0146627565982405
1.0087976539589445
1.0039100684261977
0.9980449657869012
0.9921798631476052
0.9872922776148584
0.9824046920821116
0.9775171065493646
0.9716520039100685
0.9667644183773216
0.9618768328445748
0.9608993157380256
0.9608993157380256
0.956989247311828
0.9521016617790812
0.946236559139785
0.9403714565004888
0.935483870967742
0.9296187683284456
0.9247311827956988
0.9208211143695014
0.9178885630498532
0.9149560117302052
0.9120234604105572
0.9130009775171064
0.9159335288367546
0.916911045943304
0.9178885630498532
0.9178885630498532
0.9178885630498532
0.9178885630498532
0.9178885630498532
0.9178885630498532
0.9178885630498532
0.9178885630498532
0.9188660801564028
0.9227761485826002
0.927663734115347
0.9315738025415444
0.9345063538611924
0.93841642228739
0.9423264907135877
0.946236559139785
0.9511241446725318
0.9550342130987292
0.9589442815249268
0.9628543499511242
0.9657869012707724
0.9687194525904204
0.9736070381231672
0.9804496578690128
0.9863147605083088
0.9921798631476052
0.9980449657869012
1.002932551319648
1.0068426197458455
1.0097751710654936
1.0117302052785924
1.0146627565982405
1.0195503421309873
1.032258064516129
1.0518084066471165
1.0850439882697946
1.141739980449658
1.227761485826002
1.346041055718475
1.4965786901270772
1.6735092864125125
1.869012707722385
2.072336265884653
2.272727272727273
2.4604105571847508
2.6295210166177907
2.776148582600196
2.8836754643206257
2.962854349951124
3.0391006842619745
3.1055718475073317
3.1622678396871944
3.210166177908113
3.2482893450635384
3.2795698924731185
3.303030303030303
3.317693059628544
3.3225806451612905
3.3167155425219943
3.2981427174975564
3.2688172043010755
3.231671554252199
3.1847507331378297
3.1280547409579667
3.060606060606061
2.98435972629521
2.902248289345064
2.8152492668621703
2.727272727272727
2.641251221896383
2.560117302052786
2.486803519061584
2.4252199413489737
2.372434017595308
2.3225806451612905
2.275659824046921
2.231671554252199
2.189638318670577
2.1485826001955037
2.10752688172043
2.0664711632453567
2.0234604105571847
1.9794721407624636
1.9345063538611929
1.8944281524926687
1.8563049853372435
1.81524926686217
1.7741935483870968
1.7331378299120237
1.6930596285434996
1.653958944281525
1.6158357771260996
1.5796676441837731
1.544477028347996
1.5112414467253177
1.479960899315738
1.4506353861192571
1.4271749755620724
1.4076246334310851
1.3870967741935485
1.3665689149560116
1.3470185728250244
1.327468230694037
1.3088954056695992
1.2913000977517106
1.2746823069403714
1.2590420332355816
1.2434017595307918
1.2287390029325511
1.2179863147605083
1.2082111436950147
1.1964809384164223
1.1837732160312806
1.1700879765395895
1.1564027370478984
1.144672531769306
1.133919843597263
1.1241446725317692
1.1143695014662756
1.104594330400782
1.0957966764418376
1.0879765395894427
1.0840664711632453
1.0811339198435972
1.0762463343108504
1.0713587487781036
1.0654936461388074
1.0586510263929618
1.0527859237536656
1.0478983382209188
1.043010752688172
1.0381231671554252
1.0342130987292275
1.0303030303030305
1.0303030303030305
1.032258064516129
1.0332355816226784
1.035190615835777
1.0361681329423265
1.0371456500488758
1.0371456500488758
1.0381231671554252
1.040078201368524
1.04594330400782
1.0596285434995112
1.0850439882697946
1.1290322580645162
1.1827956989247312
1.252199413489736
1.3499511241446724
1.4731182795698925
1.5972629521016617
1.7174975562072337
1.844574780058651
1.970674486803519
2.088954056695992
2.1955034213098727
2.289345063538612
2.3685239491691106
2.4252199413489737
2.4672531769305963
2.50733137829912
2.5425219941348973
2.572825024437928
2.598240469208211
2.6177908113391983
2.633431085043988
2.643206256109482
2.6471163245356792
2.644183773216031
2.632453567937439
2.611925708699902
2.5835777126099706
2.5464320625610948
2.5004887585532747
2.44672531769306
2.3870967741935485
2.32355816226784
2.259042033235582
2.196480938416422
2.1378299120234603
2.0840664711632453
2.035190615835777
1.992179863147605
1.9560117302052784
1.924731182795699
1.8944281524926687
1.866080156402737
1.8387096774193548
1.8103616813294232
1.7820136852394917
1.75366568914956
1.7243401759530792
1.6950146627565983
1.6637341153470186
1.632453567937439
1.6050830889540566
1.5796676441837731
1.552297165200391
1.52297165200391
1.4936461388074291
1.4652981427174976
1.4379276637341154
1.4115347018572826
1.3870967741935485
1.3636363636363635
1.343108504398827
1.3235581622678396
1.305962854349951
1.29227761485826
1.2805474095796676
1.267839687194526
1.2551319648093842
1.2424242424242424
1.2297165200391007
1.2179863147605083
1.206256109481916
1.1964809384164223
1.1867057673509287
1.1779081133919844
1.1700879765395895
1.164222873900293
1.160312805474096
1.1544477028347997
1.1485826001955035
1.141739980449658
1.1348973607038124
1.1280547409579669
1.1221896383186705
1.1163245356793745
1.110459433040078
1.104594330400782
1.0987292277614855
1.093841642228739
1.0918866080156402
1.0918866080156402
1.0899315738025417
1.0879765395894427
1.0850439882697946
1.0821114369501466
1.0791788856304985
1.078201368523949
1.0772238514173995
1.0772238514173995
1.0772238514173995
1.0772238514173995
1.0791788856304985
1.0811339198435972
1.0811339198435972
1.0811339198435972
1.083088954056696
1.0899315738025417
1.1065493646138806
1.1358748778103618
1.181818181818182
1.2482893450635386
1.335288367546432
1.4408602150537635
1.560117302052786
1.6715542521994136
1.7781036168132942
1.8973607038123168
2.016617790811339
2.129032258064516
2.23069403714565
2.318670576735093
2.3929618768328447
2.4545454545454546
2.505376344086021
2.5464320625610948
2.5806451612903225
2.6021505376344085
2.6158357771261
2.631476050830889
2.6451612903225805
2.654936461388074
2.6578690127077222
2.6529814271749754
2.6392961876832843
2.6158357771261
2.581622678396872
2.536656891495601
2.4838709677419355
2.423264907135875
2.364613880742913
2.3069403714565007
2.24633431085044
2.185728250244379
2.129032258064516
2.0772238514174
2.03128054740958
1.9902248289345064
1.9530791788856303
1.919843597262952
1.889540566959922
1.8602150537634408
1.833822091886608
1.8084066471163245
1.7810361681329423
1.7517106549364614
1.721407624633431
1.6911045943304008
1.6598240469208212
1.629521016617791
1.598240469208211
1.5679374389051808
1.5386119257087
1.5102639296187683
1.482893450635386
1.4604105571847508
1.4408602150537635
1.4193548387096775
1.3978494623655917
1.3763440860215057
1.356793743890518
1.33822091886608
1.3206256109481915
1.3040078201368523
1.2873900293255132
1.2717497556207231
1.2590420332355816
1.2502443792766371
1.2424242424242424
1.2326490713587488
1.2218963831867058
1.2101661779081134
1.1974584555229717
1.18475073313783
1.1720430107526882
1.1593352883675463
1.147605083088954
1.1368523949169111
1.1270772238514175
1.118279569892473
1.1133919843597262
1.1094819159335287
1.104594330400782
1.0987292277614855
1.0928641251221896
1.0879765395894427
1.0840664711632453
1.0811339198435972
1.078201368523949
1.075268817204301
1.0733137829912025
1.072336265884653
1.0742913000977516
1.0772238514173995
1.0791788856304985
1.0801564027370478
1.0811339198435972
1.0811339198435972
1.0811339198435972
1.0811339198435972
1.0811339198435972
1.0840664711632453
1.0918866080156402
1.1085043988269794
1.1378299120234605
1.1759530791788857
1.2267839687194526
1.300097751710655
1.3958944281524928
1.509286412512219
1.635386119257087
1.7683284457478006
1.903225806451613
2.032258064516129
2.1515151515151514
2.2580645161290325
2.3489736070381237
2.41544477028348
2.4652981427174976
2.5131964809384164
2.5562072336265884
2.593352883675464
2.625610948191593
2.653958944281525
2.677419354838709
2.6959921798631474
2.7096774193548385
2.7155425219941347
2.7145650048875853
2.704789833822092
2.686217008797654
2.658846529814272
2.622678396871945
2.5777126099706744
2.5249266862170088
2.464320625610948
2.3978494623655915
2.329423264907136
2.260019550342131
2.193548387096774
2.132942326490713
2.0772238514174
2.03128054740958
1.9931573802541545
1.956989247311828
1.9237536656891496
1.8934506353861196
1.8641251221896384
1.835777126099707
1.8074291300097751
1.7771260997067448
1.7448680351906158
1.710654936461388
1.6852394916911049
1.667644183773216
1.6412512218963833
1.603128054740958
1.560117302052786
1.5151515151515151
1.4711632453567938
1.4291300097751711
1.3900293255131966
1.3528836754643203
1.3186705767350928
1.2864125122189638
1.2561094819159335
1.227761485826002
1.206256109481916
1.1886608015640274
1.1691104594330402
1.1505376344086022
1.133919843597263
1.1202346041055715
1.1085043988269794
1.099706744868035
1.093841642228739
1.0909090909090908
1.088954056695992
1.0879765395894427
1.0899315738025417
1.093841642228739
1.0957966764418376
1.096774193548387
1.096774193548387
1.0948191593352885
1.0928641251221896
1.0909090909090908
1.0879765395894427
1.0850439882697946
1.0821114369501466
1.0791788856304985
1.0762463343108504
1.0762463343108504
1.0762463343108504
1.0733137829912025
1.0664711632453567
1.0576735092864125
1.0469208211143697
1.0361681329423265
1.0254154447702837
1.0146627565982405
1.0048875855327468
0.9951124144672532
0.9863147605083088
0.981427174975562
0.978494623655914
0.9736070381231672
0.9696969696969696
0.967741935483871
0.9706744868035192
0.9843597262952102
1.0127077223851415
1.06158357771261
1.133919843597263
1.2316715542521994
1.3548387096774193
1.499511241446725
1.6363636363636365
1.7712609970674489
1.9257086999022484
2.0840664711632453
2.236559139784946
2.377321603128055
2.501466275659824
2.6080156402737047
2.697947214076246
2.7722385141739982
2.833822091886608
2.8856304985337244
2.919843597262952
2.9442815249266863
2.9687194525904204
2.9902248289345064
3.005865102639296
3.0146627565982405
3.01564027370479
3.004887585532747
2.9824046920821115
2.9472140762463344
2.898338220918866
2.8377321603128056
2.7673509286412514
2.6959921798631474
2.624633431085044
2.5464320625610948
2.4672531769305963
2.3900293255131966
2.318670576735093
2.254154447702835
2.1974584555229715
2.1485826001955037
2.1055718475073317
2.0664711632453567
2.0303030303030303
1.9980449657869013
1.967741935483871
1.9345063538611929
1.8993157380254155
1.8631476050830889
1.825024437927664
1.7859237536656891
1.7458455522971652
1.7067448680351909
1.6686217008797657
1.6304985337243405
1.5923753665689149
1.5542521994134897
1.52297165200391
1.495601173020528
1.4652981427174976
1.4349951124144673
1.4056695992179864
1.3773216031280548
1.3509286412512218
1.3255131964809383
1.303030303030303
1.281524926686217
1.2619745845552297
1.2443792766373412
1.2326490713587488
1.224828934506354
1.2160312805474096
1.206256109481916
1.195503421309873
1.18475073313783
1.173998044965787
1.163245356793744
1.1534701857282503
1.144672531769306
1.1368523949169111
1.1300097751710656
1.1221896383186705
1.118279569892473
1.115347018572825
1.1085043988269794
1.1006842619745845
1.0918866080156402
1.0840664711632453
1.075268817204301
1.067448680351906
1.0596285434995112
1.0518084066471165
1.0439882697947214
1.0371456500488758
1.0332355816226784
1.032258064516129
1.0303030303030305
1.0263929618768328
1.0224828934506354
1.0195503421309873
1.0175953079178883
1.0156402737047898
1.0146627565982405
1.0156402737047898
1.021505376344086
1.0371456500488758
1.067448680351906
1.1094819159335287
1.1671554252199414
1.252199413489736
1.364613880742913
1.499511241446725
1.6529814271749756
1.8172043010752688
1.9824046920821117
2.1407624633431084
2.2883675464320627
2.420332355816227
2.535679374389052
2.6207233626588464
2.684261974584555
2.7468230694037143
2.8025415444770285
2.8514173998044967
2.89345063538612
2.929618768328446
2.9589442815249267
2.9824046920821115
3.0
3.010752688172043
3.0127077223851417
3.004887585532747
2.986314760508309
2.956989247311828
2.917888563049853
2.868035190615836
2.806451612903226
2.735092864125122
2.6559139784946235
2.5718475073313782
2.4858260019550342
2.40078201368524
2.3196480938416424
2.2453567937438903
2.182795698924731
2.1300097751710654
2.0791788856304985
2.032258064516129
1.989247311827957
1.9501466275659824
1.9130009775171064
1.8778103616813293
1.8435972629521016
1.8093841642228736
1.7732160312805474
1.7360703812316716
1.7028347996089932
1.6715542521994136
1.635386119257087
1.5972629521016617
1.5591397849462365
1.521016617790811
1.4838709677419355
1.4486803519061584
1.41544477028348
1.383186705767351
1.3528836754643203
1.324535679374389
1.2981427174975562
1.278592375366569
1.2619745845552297
1.2424242424242424
1.2218963831867058
1.2023460410557183
1.1837732160312806
1.166177908113392
1.1495601173020529
1.1329423264907137
1.1173020527859236
1.1026392961876832
1.088954056695992
1.0801564027370478
1.0733137829912025
1.0654936461388074
1.056695992179863
1.0469208211143697
1.0381231671554252
1.0303030303030305
1.0234604105571847
1.0166177908113392
1.0097751710654936
1.002932551319648
0.9960899315738024
0.9882697947214076
0.9843597262952102
0.9833822091886608
0.9794721407624634
0.9745845552297164
0.9687194525904204
0.9736070381231672
0.9843597262952102
0.9882697947214076
0.989247311827957
0.989247311827957
0.9902248289345064
0.9912023460410556
0.9951124144672532
1.0
1.0019550342130987
1.002932551319648
1.0039100684261977
1.0068426197458455
1.0156402737047898
1.0342130987292275
1.0694037145650048
1.1241446725317692
1.2023460410557183
1.3049853372434017
1.4291300097751711
1.5513196480938416
1.6744868035190617
1.818181818181818
1.967741935483871
2.114369501466276
2.251221896383187
2.372434017595308
2.4760508308895406
2.563049853372434
2.634408602150537
2.6930596285435
2.739980449657869
2.771260997067449
2.792766373411535
2.814271749755621
2.832844574780059
2.84652981427175
2.855327468230694
2.8563049853372435
2.8484848484848486
2.8299120234604107
2.7996089931573804
2.757575757575758
2.7038123167155423
2.6402737047898337
2.5747800586510263
2.5083088954056696
2.434017595307918
2.357771260997068
2.2844574780058653
2.2160312805474094
2.1544477028347995
2.099706744868035
2.0518084066471163
2.010752688172043
1.9745845552297163
1.9403714565004888
1.911045943304008
1.884652981427175
1.855327468230694
1.823069403714565
1.7898338220918866
1.7556207233626588
1.7204301075268815
1.6842619745845553
1.6480938416422288
1.611925708699902
1.5757575757575757
1.5405669599217986
1.5063538611925709
1.478005865102639
1.4545454545454546
1.4281524926686218
1.401759530791789
1.3763440860215057
1.3519061583577712
1.3284457478005864
1.3069403714565004
1.2873900293255132
1.2688172043010753
1.252199413489736
1.2375366568914956
1.227761485826002
1.219941348973607
1.2111436950146628
1.2013685239491692
1.1915933528836755
1.1827956989247312
1.1749755620723363
1.1671554252199414
1.160312805474096
1.1534701857282503
1.1466275659824048
1.1407624633431086
1.1348973607038124
1.1319648093841643
1.1300097751710656
1.1251221896383188
1.1192570869990224
1.1124144672531768
1.1055718475073313
1.099706744868035
1.093841642228739
1.0899315738025417
1.086021505376344
1.083088954056696
1.0801564027370478
1.0811339198435972
1.0840664711632453
1.088954056695992
1.1006842619745845
1.1231671554252198
1.1612903225806452
1.2189638318670577
1.2991202346041055
1.401759530791789
1.52297165200391
1.6598240469208212
1.804496578690127
1.9501466275659824
2.072336265884653
2.176930596285435
2.283479960899316
2.3822091886608017
2.4682306940371457
2.5405669599217986
2.60019550342131
2.649071358748778
2.689149560117302
2.721407624633431
2.747800586510264
2.7673509286412514
2.7751710654936463
2.774193548387097
2.7702834799608995
2.758553274682307
2.73802541544477
2.7067448680351904
2.6637341153470184
2.6099706744868034
2.5464320625610948
2.4760508308895406
2.401759530791789
2.3255131964809386
2.251221896383187
2.1867057673509285
2.1300097751710654
2.075268817204301
2.026392961876833
1.9833822091886608
1.945259042033236
1.911045943304008
1.878787878787879
1.8484848484848484
1.818181818181818
1.7869012707722385
1.7556207233626588
1.7272727272727273
1.699902248289345
1.6695992179863148
1.6363636363636365
1.6021505376344083
1.5679374389051808
1.533724340175953
1.499511241446725
1.4672531769305963
1.4349951124144673
1.4037145650048877
1.3743890518084063
1.3479960899315735
1.327468230694037
1.310850439882698
1.2932551319648091
1.2746823069403714
1.2570869990224829
1.2404692082111437
1.224828934506354
1.2111436950146628
1.1974584555229717
1.1837732160312806
1.1720430107526882
1.1612903225806452
1.1544477028347997
1.1505376344086022
1.1436950146627567
1.1358748778103618
1.1280547409579669
1.1192570869990224
1.1094819159335287
1.099706744868035
1.0899315738025417
1.0811339198435972
1.072336265884653
1.064516129032258
1.0606060606060606
1.0586510263929618
1.053763440860215
1.0478983382209188
1.0420332355816226
1.0361681329423265
1.0312805474095796
1.0273704789833822
1.0234604105571847
1.0205278592375366
1.0175953079178883
1.0156402737047898
1.013685239491691
1.0146627565982405
1.0175953079178883
1.018572825024438
1.018572825024438
1.0175953079178883
1.0166177908113392
1.0166177908113392
1.0166177908113392
1.0166177908113392
1.0166177908113392
1.0166177908113392
1.0166177908113392
1.0195503421309873
1.0234604105571847
1.0254154447702837
1.0263929618768328
1.0283479960899315
1.0342130987292275
1.0478983382209188
1.0762463343108504
1.1231671554252198
1.1945259042033236
1.29227761485826
1.4164222873900294
1.563049853372434
1.7028347996089932
1.8406647116324533
1.9980449657869013
2.1593352883675463
2.313782991202346
2.4545454545454546
2.5777126099706744
2.6823069403714563
2.76930596285435
2.8406647116324537
2.900293255131965
2.9501466275659824
2.983382209188661
3.005865102639296
3.03128054740958
3.0547409579667644
3.074291300097752
3.0879765395894427
3.0928641251221896
3.0869990224828934
3.069403714565005
3.0391006842619745
2.9960899315738025
2.940371456500489
2.852394916911046
2.752688172043011
2.6666666666666665
2.579667644183773
2.49266862170088
2.4086021505376345
2.3284457478005867
2.254154447702835
2.1867057673509285
2.1280547409579667
2.0772238514174
2.032258064516129
1.992179863147605
1.9589442815249267
1.9296187683284456
1.8983382209188664
1.8670576735092863
1.833822091886608
1.8005865102639296
1.7653958944281525
1.729227761485826
1.694037145650049
1.6588465298142718
1.6236559139784943
1.5894428152492668
1.5562072336265884
1.5288367546432062
1.504398826979472
1.478005865102639
1.4506353861192571
1.4242424242424243
1.3998044965786902
1.3763440860215057
1.3548387096774193
1.335288367546432
1.3176930596285434
1.300097751710655
1.2825024437927663
1.2688172043010753
1.2570869990224829
1.2434017595307918
1.227761485826002
1.2111436950146628
1.195503421309873
1.1798631476050832
1.1652003910068427
1.1515151515151516
1.1378299120234605
1.1251221896383188
1.1143695014662756
1.104594330400782
1.0987292277614855
1.0957966764418376
1.0909090909090908
1.086021505376344
1.0801564027370478
1.0742913000977516
1.0694037145650048
1.064516129032258
1.0606060606060606
1.0576735092864125
1.0547409579667644
1.053763440860215
1.0547409579667644
1.0576735092864125
1.0596285434995112
1.0625610948191593
1.0654936461388074
1.067448680351906
1.0684261974584557
1.0703812316715542
1.0713587487781036
1.0713587487781036
1.0713587487781036
1.072336265884653
1.075268817204301
1.083088954056696
