ppg
1.2590420332355816
1.24633431085044
1.2336265884652982
1.2209188660801564
1.2082111436950147
1.195503421309873
1.1827956989247312
1.1710654936461389
1.1593352883675463
1.1495601173020529
1.1407624633431086
1.1358748778103618
1.1329423264907137
1.1280547409579669
1.1221896383186705
1.1163245356793745
1.1114369501466277
1.10752688172043
1.104594330400782
1.1026392961876832
1.1006842619745845
1.1006842619745845
1.1006842619745845
1.1006842619745845
1.1006842619745845
1.1006842619745845
1.1006842619745845
1.1006842619745845
1.1133919843597262
1.142717497556207
1.195503421309873
1.2756598240469208
1.3870967741935485
1.5268817204301075
1.689149560117302
1.8670576735092863
2.024437927663734
2.166177908113392
2.317693059628544
2.4613880742913
2.590420332355816
2.699902248289345
2.790811339198436
2.863147605083089
2.916911045943304
2.9530791788856305
2.9745845552297165
2.9824046920821115
2.9765395894428157
2.960899315738025
2.93841642228739
2.90811339198436
2.870967741935484
2.8260019550342133
2.7751710654936463
2.718475073313783
2.656891495601173
2.590420332355816
2.5190615835777126
2.443792766373412
2.364613880742913
2.29227761485826
2.222873900293255
2.146627565982405
2.0684261974584555
1.991202346041056
1.916911045943304
1.8465298142717497
1.7810361681329423
1.7223851417399805
1.6705767350928642
1.624633431085044
1.585532746823069
1.5562072336265884
1.533724340175953
1.5131964809384164
1.4936461388074291
1.4750733137829912
1.458455522971652
1.4418377321603129
1.426197458455523
1.409579667644184
1.393939393939394
1.3792766373411536
1.364613880742913
1.3499511241446724
1.33822091886608
1.3284457478005864
1.3157380254154447
1.3020527859237536
1.2883675464320623
1.2756598240469208
1.262952101661779
1.2502443792766371
1.238514173998045
1.2267839687194526
1.2160312805474096
1.2052785923753666
1.1994134897360704
1.1945259042033236
1.187683284457478
1.1798631476050832
1.1720430107526882
1.164222873900293
1.1573802541544478
1.1515151515151516
1.1466275659824048
1.142717497556207
1.13880742913001
1.1348973607038124
1.133919843597263
1.133919843597263
1.1329423264907137
1.130987292277615
1.1280547409579669
1.1251221896383188
1.1221896383186705
1.118279569892473
1.1143695014662756
1.1143695014662756
1.1251221896383188
1.1534701857282503
1.206256109481916
1.2717497556207231
1.356793743890518
1.478005865102639
1.6275659824046922
1.7956989247311828
1.970674486803519
2.142717497556207
2.304007820136853
2.4486803519061584
2.5747800586510263
2.679374389051808
2.763440860215054
2.819159335288368
2.855327468230694
2.8856304985337244
2.905180840664712
2.9120234604105573
2.9071358748778104
2.8914956011730206
2.866080156402737
2.83088954056696
2.788856304985337
2.739980449657869
2.684261974584555
2.624633431085044
2.5669599217986314
2.5083088954056696
2.441837732160313
2.3704789833822093
2.2952101661779083
2.2170087976539588
2.1388074291300097
2.06158357771261
1.9853372434017595
1.911045943304008
1.842619745845552
1.7790811339198436
1.7272727272727273
1.6842619745845553
1.6422287390029326
1.603128054740958
1.5679374389051808
1.5366568914956011
1.5102639296187683
1.487781036168133
1.4682306940371457
1.4506353861192571
1.4349951124144673
1.4213098729227762
1.4066471163245358
1.3949169110459434
1.3841642228739004
1.3714565004887584
1.3577712609970674
1.3440860215053765
1.3304007820136852
1.3176930596285434
1.3049853372434017
1.29227761485826
1.2805474095796676
1.267839687194526
1.2551319648093842
1.2453567937438903
1.2375366568914956
1.227761485826002
1.2179863147605083
1.2082111436950147
1.198435972629521
1.1886608015640274
1.1788856304985338
1.1700879765395895
1.1612903225806452
1.152492668621701
1.144672531769306
1.1368523949169111
1.1329423264907137
1.130987292277615
1.1270772238514175
1.1241446725317692
1.1202346041055715
1.1173020527859236
1.1133919843597262
1.1094819159335287
1.10752688172043
1.1055718475073313
1.1036168132942326
1.1016617790811338
1.0772238514173995
1.043010752688172
1.024437927663734
1.018572825024438
1.0273704789833822
1.0576735092864125
1.1133919843597262
1.1994134897360704
1.3157380254154447
1.4594330400782014
1.624633431085044
1.801564027370479
1.9804496578690127
2.1309872922776147
2.260019550342131
2.3900293255131966
2.5083088954056696
2.6099706744868034
2.69208211143695
2.755620723362659
2.801564027370479
2.83088954056696
2.844574780058651
2.844574780058651
2.831867057673509
2.8084066471163247
2.776148582600196
2.736070381231672
2.689149560117302
2.636363636363636
2.576735092864125
2.512218963831867
2.442815249266862
2.3685239491691106
2.290322580645161
2.210166177908113
2.1270772238514173
2.0439882697947214
1.970674486803519
1.902248289345064
1.8299120234604105
1.7595307917888563
1.6920821114369502
1.6304985337243405
1.5747800586510263
1.525904203323558
1.4838709677419355
1.447702834799609
1.4164222873900294
1.3900293255131966
1.370478983382209
1.3548387096774193
1.3391984359726294
1.3225806451612905
1.3069403714565004
1.2913000977517106
1.2766373411534702
1.2619745845552297
1.24633431085044
1.23069403714565
1.2140762463343109
1.198435972629521
1.1827956989247312
1.1710654936461389
1.160312805474096
1.1466275659824048
1.1319648093841643
1.1173020527859236
1.1026392961876832
1.0879765395894427
1.0742913000977516
1.0606060606060606
1.0478983382209188
1.035190615835777
1.0234604105571847
1.0156402737047898
1.0097751710654936
1.0019550342130987
0.9931573802541545
0.9824046920821116
0.9716520039100685
0.9628543499511242
0.95405669599218
0.946236559139785
0.93841642228739
0.9315738025415444
0.9257086999022482
0.9208211143695014
0.919843597262952
0.9217986314760508
0.9217986314760508
0.9217986314760508
0.919843597262952
0.916911045943304
0.9120234604105572
0.9071358748778104
0.906158357771261
0.913978494623656
0.9374389051808406
0.9833822091886608
1.0439882697947214
1.126099706744868
1.2443792766373412
1.392961876832845
1.5620723362658846
1.7429130009775171
1.924731182795699
2.0987292277614857
2.2561094819159337
2.393939393939394
2.509286412512219
2.603128054740958
2.675464320625611
2.7223851417399803
2.7497556207233624
2.76930596285435
2.7781036168132944
2.776148582600196
2.763440860215054
2.739980449657869
2.705767350928641
2.662756598240469
2.6129032258064515
2.5562072336265884
2.49266862170088
2.43108504398827
2.367546432062561
2.2961876832844577
2.219941348973607
2.139784946236559
2.056695992179863
1.9716520039100685
1.8875855327468232
1.8054740957966764
1.7282502443792769
1.6559139784946235
1.5894428152492668
1.5347018572825024
1.4887585532746823
1.4437927663734116
1.401759530791789
1.364613880742913
1.3313782991202343
1.3020527859237536
1.2766373411534702
1.2531769305962854
1.2316715542521994
1.2111436950146628
1.1915933528836755
1.1720430107526882
1.1583577712609971
1.1466275659824048
1.1319648093841643
1.1173020527859236
1.1026392961876832
1.0879765395894427
1.0733137829912025
1.0596285434995112
1.04594330400782
1.032258064516129
1.0195503421309873
1.0068426197458455
0.9980449657869012
0.9912023460410556
0.981427174975562
0.9706744868035192
0.9589442815249268
0.9481915933528836
0.9364613880742912
0.9257086999022482
0.9159335288367546
0.906158357771261
0.8973607038123167
0.8895405669599218
0.8826979472140762
0.8797653958944281
0.8797653958944281
0.8768328445747801
0.8729227761485826
0.8699902248289345
0.8670576735092864
0.8641251221896383
0.8592375366568915
0.8543499511241447
0.8494623655913979
0.8475073313782991
0.8514173998044966
0.8660801564027371
0.895405669599218
0.9472140762463344
1.0283479960899315
1.142717497556207
1.2883675464320623
1.457478005865103
1.6412512218963833
1.828934506353861
2.0117302052785924
2.182795698924731
2.3362658846529816
2.4682306940371457
2.5650048875855327
2.636363636363636
2.7008797653958942
2.7546432062561097
2.7947214076246336
2.8211143695014664
2.833822091886608
2.834799608993157
2.8240469208211145
2.803519061583578
2.7722385141739982
2.7331378299120237
2.689149560117302
2.641251221896383
2.5865102639296187
2.5268817204301075
2.4613880742913
2.391006842619746
2.317693059628544
2.2404692082111435
2.1593352883675463
2.0762463343108504
1.9931573802541545
1.911045943304008
1.83088954056696
1.7624633431085044
1.7028347996089932
1.6412512218963833
1.5835777126099706
1.530791788856305
1.4848484848484849
1.4437927663734116
1.4086021505376345
1.3782991202346042
1.3509286412512218
1.3255131964809383
1.3020527859237536
1.284457478005865
1.2688172043010753
1.2512218963831867
1.2316715542521994
1.2121212121212122
1.1935483870967742
1.1749755620723363
1.1573802541544478
1.1407624633431086
1.126099706744868
1.1114369501466277
1.096774193548387
1.083088954056696
1.0733137829912025
1.0654936461388074
1.0547409579667644
1.043010752688172
1.0303030303030305
1.0175953079178883
1.0449657869012707
1.0918866080156402
1.110459433040078
1.1143695014662756
1.1114369501466277
1.1055718475073313
1.1016617790811338
1.099706744868035
1.093841642228739
1.0869990224828934
1.0801564027370478
1.0733137829912025
1.067448680351906
1.0625610948191593
1.0586510263929618
1.0557184750733135
1.0527859237536656
1.0498533724340176
1.04594330400782
1.0439882697947214
1.04594330400782
1.0488758553274682
1.0596285434995112
1.0869990224828934
1.1378299120234605
1.2179863147605083
1.3304007820136852
1.4721407624633431
1.6363636363636365
1.81524926686217
1.9990224828934504
2.155425219941349
2.291300097751711
2.4301075268817205
2.5591397849462365
2.673509286412512
2.7702834799608995
2.849462365591398
2.9100684261974585
2.9550342130987293
2.98435972629521
3.0
3.002932551319648
2.995112414467253
2.9765395894428157
2.9501466275659824
2.916911045943304
2.875855327468231
2.8289345063538613
2.776148582600196
2.718475073313783
2.656891495601173
2.591397849462365
2.5210166177908118
2.44672531769306
2.36950146627566
2.297165200391007
2.2267839687194524
2.150537634408602
2.072336265884653
1.9951124144672527
1.919843597262952
1.8504398826979471
1.7869012707722385
1.7302052785923754
1.6793743890518085
1.6344086021505375
1.595307917888563
1.5610948191593352
1.5347018572825024
1.5131964809384164
1.490713587487781
1.469208211143695
1.447702834799609
1.4271749755620724
1.4066471163245358
1.3870967741935485
1.3685239491691104
1.3499511241446724
1.3313782991202343
1.313782991202346
1.3010752688172045
1.2903225806451613
1.2776148582600195
1.2639296187683284
1.249266862170088
1.2336265884652982
1.2189638318670577
1.2043010752688172
1.1896383186705768
1.1759530791788857
1.164222873900293
1.1534701857282503
1.147605083088954
1.1436950146627567
1.1368523949169111
1.1290322580645162
1.121212121212121
1.1133919843597262
1.1055718475073313
1.0987292277614855
1.0909090909090908
1.0850439882697946
1.0801564027370478
1.075268817204301
1.072336265884653
1.072336265884653
1.0742913000977516
1.0733137829912025
1.0713587487781036
1.067448680351906
1.0625610948191593
1.0596285434995112
1.0625610948191593
1.078201368523949
1.1124144672531768
1.1710654936461389
1.2590420332355816
1.356793743890518
1.4672531769305963
1.6080156402737047
1.7663734115347018
1.9305962854349952
2.090909090909091
2.2404692082111435
2.3743890518084068
2.490713587487781
2.5884652981427174
2.668621700879765
2.7331378299120237
2.782991202346041
2.812316715542522
2.8269794721407626
2.8367546432062563
2.8377321603128056
2.8289345063538613
2.811339198435973
2.7859237536656893
2.7536656891495603
2.7145650048875853
2.670576735092864
2.621700879765396
2.567937438905181
2.5141739980449658
2.4594330400782014
2.396871945259042
2.329423264907136
2.259042033235582
2.1867057673509285
2.113391984359726
2.0410557184750733
1.970674486803519
1.903225806451613
1.8406647116324533
1.782991202346041
1.7311827956989247
1.6901270772238517
1.656891495601173
1.624633431085044
1.5943304007820136
1.5679374389051808
1.543499511241447
1.521994134897361
1.5024437927663734
1.4848484848484849
1.4682306940371457
1.4516129032258065
1.435972629521017
1.423264907135875
1.4115347018572826
1.396871945259042
1.3822091886608017
1.3665689149560116
1.3519061583577712
1.33822091886608
1.3255131964809383
1.3128054740957966
1.300097751710655
1.2873900293255132
1.2756598240469208
1.2639296187683284
1.2551319648093842
1.249266862170088
1.2404692082111437
1.23069403714565
1.2209188660801564
1.2111436950146628
1.2013685239491692
1.1915933528836755
1.1827956989247312
1.1749755620723363
1.1681329423264908
1.1622678396871946
1.160312805474096
1.1612903225806452
1.160312805474096
1.1583577712609971
1.1564027370478984
1.1544477028347997
1.152492668621701
1.1495601173020529
1.1456500488758554
1.141739980449658
1.1368523949169111
1.1319648093841643
1.1300097751710656
1.1329423264907137
1.144672531769306
1.1681329423264908
1.2101661779081134
1.2766373411534702
1.3695014662756595
1.4858260019550342
1.6207233626588464
1.7663734115347018
1.9149560117302051
2.058651026392962
2.189638318670577
2.29227761485826
2.375366568914956
2.4565004887585533
2.5288367546432062
2.589442815249267
2.6373411534701856
2.6725317693059627
2.695014662756598
2.7067448680351904
2.70772238514174
2.6989247311827955
2.681329423264907
2.6559139784946235
2.625610948191593
2.591397849462365
2.552297165200391
2.5083088954056696
2.4604105571847508
2.4086021505376345
2.3528836754643208
2.2932551319648096
2.231671554252199
2.1681329423264906
2.103616813294233
2.0391006842619745
1.9833822091886608
1.932551319648094
1.8797653958944285
1.827956989247312
1.7810361681329423
1.7380254154447703
1.6989247311827955
1.664711632453568
1.635386119257087
1.608993157380254
1.5865102639296187
1.5669599217986314
1.5493646138807429
1.5278592375366569
1.504398826979472
1.4858260019550342
1.4701857282502444
1.455522971652004
1.4418377321603129
1.4281524926686218
1.414467253176931
1.4007820136852396
1.3870967741935485
1.3743890518084063
1.3626588465298142
1.35386119257087
1.3470185728250244
1.33822091886608
1.3284457478005864
1.316715542521994
1.305962854349951
1.295210166177908
1.2834799608993157
1.2727272727272727
1.2619745845552297
1.2512218963831867
1.241446725317693
1.2326490713587488
1.2267839687194526
1.2238514173998043
1.2189638318670577
1.2140762463343109
1.209188660801564
1.2043010752688172
1.2003910068426198
1.1964809384164223
1.1925708699902249
1.1896383186705768
1.187683284457478
1.1867057673509287
1.187683284457478
1.1886608015640274
1.1867057673509287
1.1837732160312806
1.1798631476050832
1.1759530791788857
1.1759530791788857
1.1827956989247312
1.203323558162268
1.241446725317693
1.303030303030303
1.3900293255131966
1.498533724340176
1.606060606060606
1.7145650048875856
1.839687194525904
1.9687194525904204
2.090909090909091
2.201368523949169
2.2981427174975564
2.380254154447703
2.447702834799609
2.5024437927663734
2.5434995112414467
2.573802541544477
2.589442815249267
2.5943304007820136
2.593352883675464
2.5855327468230693
2.5698924731182795
2.5464320625610948
2.5161290322580645
2.4809384164222874
2.4408602150537635
2.3958944281524928
2.347996089931574
2.2961876832844577
2.24633431085044
2.198435972629521
2.144672531769306
2.0879765395894427
2.029325513196481
1.9696969696969695
1.9100684261974583
1.8523949169110456
1.7986314760508308
1.7497556207233629
1.7057673509286413
1.6666666666666667
1.632453567937439
1.607038123167155
1.5865102639296187
1.5650048875855327
1.544477028347996
1.5249266862170088
1.5063538611925709
1.4887585532746823
1.4711632453567938
1.4545454545454546
1.4379276637341154
1.4222873900293256
1.4076246334310851
1.3958944281524928
1.3861192570869991
1.3743890518084063
1.3616813294232648
1.3470185728250244
1.3313782991202343
1.3157380254154447
1.3010752688172045
1.2854349951124144
1.270772238514174
1.2561094819159335
1.2424242424242424
1.2297165200391007
1.2209188660801564
1.2130987292277615
1.203323558162268
1.1915933528836755
1.1808406647116323
1.1691104594330402
1.1573802541544478
1.144672531769306
1.133919843597263
1.1241446725317692
1.1143695014662756
1.104594330400782
1.0987292277614855
1.0948191593352885
1.088954056695992
1.0821114369501466
1.0762463343108504
1.0713587487781036
1.0654936461388074
1.0586510263929618
1.0518084066471165
1.0439882697947214
1.0342130987292275
1.0263929618768328
1.0224828934506354
1.0283479960899315
1.04594330400782
1.0791788856304985
1.1348973607038124
1.2140762463343109
1.3157380254154447
1.4349951124144673
1.5650048875855327
1.6959921798631477
1.822091886608016
1.9374389051808407
2.038123167155425
2.114369501466276
2.1739980449657867
2.228739002932551
2.275659824046921
2.313782991202346
2.3421309872922778
2.360703812316716
2.3704789833822093
2.3714565004887587
2.364613880742913
2.3499511241446727
2.329423264907136
2.304007820136853
2.275659824046921
2.2453567937438903
2.209188660801564
2.1681329423264906
2.12316715542522
2.0733137829912023
2.021505376344086
1.9667644183773216
1.9100684261974583
1.8523949169110456
1.7956989247311828
1.7419354838709675
1.696969696969697
1.6578690127077225
1.6177908113391983
1.5796676441837731
1.543499511241447
1.5112414467253177
1.4838709677419355
1.458455522971652
1.436950146627566
1.418377321603128
1.401759530791789
1.3861192570869991
1.3714565004887584
1.3616813294232648
1.35386119257087
1.3440860215053765
1.332355816226784
1.3206256109481915
1.3088954056695992
1.2971652003910068
1.2834799608993157
1.2697947214076246
1.2570869990224829
1.2453567937438903
1.2346041055718475
1.2267839687194526
1.2218963831867058
1.2140762463343109
1.2043010752688172
1.1935483870967742
1.1827956989247312
1.1720430107526882
1.1612903225806452
1.1515151515151516
1.142717497556207
1.1348973607038124
1.1280547409579669
1.1221896383186705
1.1192570869990224
1.118279569892473
1.115347018572825
1.110459433040078
1.1055718475073313
1.1006842619745845
1.0948191593352885
1.0899315738025417
1.0850439882697946
1.0801564027370478
1.075268817204301
1.0713587487781036
1.0703812316715542
1.0713587487781036
1.075268817204301
1.088954056695992
1.118279569892473
1.1691104594330402
1.2443792766373412
1.3440860215053765
1.4633431085043989
1.5962854349951123
1.7331378299120237
1.868035190615836
1.994134897360704
2.0948191593352883
2.175953079178885
2.2561094819159337
2.329423264907136
2.3929618768328447
2.4457478005865103
2.4887585532746823
2.5210166177908118
2.544477028347996
2.5591397849462365
2.5640273704789838
2.5610948191593352
2.5513196480938416
2.5347018572825024
2.5131964809384164
2.486803519061584
2.4545454545454546
2.418377321603128
2.378299120234604
2.410557184750733
2.474095796676442
2.472140762463343
2.4359726295210167
2.380254154447703
2.315738025415445
2.2551319648093844
2.196480938416422
2.131964809384164
2.0664711632453567
2.002932551319648
1.9442815249266865
1.8914956011730208
1.844574780058651
1.8025415444770283
1.7663734115347018
1.7341153470185728
1.704789833822092
1.6813294232649072
1.6637341153470186
1.6451612903225807
1.6265884652981428
1.607038123167155
1.587487781036168
1.5679374389051808
1.5483870967741935
1.5298142717497556
1.5112414467253177
1.4946236559139785
1.478983382209189
1.466275659824047
1.455522971652004
1.4428152492668622
1.4291300097751711
1.414467253176931
1.3998044965786902
1.3851417399804498
1.370478983382209
1.356793743890518
1.3440860215053765
1.3313782991202343
1.3186705767350928
1.3069403714565004
1.2991202346041055
1.2942326490713587
1.2873900293255132
1.2795698924731185
1.2717497556207231
1.2639296187683284
1.2570869990224829
1.2502443792766371
1.2434017595307918
1.2365591397849462
1.23069403714565
1.2238514173998043
1.2209188660801564
1.2189638318670577
1.2160312805474096
1.2111436950146628
1.206256109481916
1.2052785923753666
1.2121212121212122
1.2346041055718475
1.2795698924731185
1.3528836754643203
1.457478005865103
1.5923753665689149
1.7497556207233629
1.8973607038123168
2.040078201368524
2.19941348973607
2.357771260997068
2.506353861192571
2.6402737047898337
2.758553274682307
2.860215053763441
2.946236559139785
3.016617790811339
3.072336265884653
3.115347018572825
3.1407624633431084
3.1524926686217007
3.158357771260997
3.156402737047898
3.145650048875855
3.126099706744868
3.099706744868035
3.067448680351906
3.027370478983382
2.9804496578690127
2.9266862170087977
2.866080156402737
2.80058651026393
2.7370478983382207
2.673509286412512
2.6021505376344085
2.5268817204301075
2.449657869012708
2.372434017595308
2.2961876832844577
2.222873900293255
2.1544477028347995
2.090909090909091
2.0332355816226784
1.9824046920821117
1.9413489736070384
1.9071358748778104
1.873900293255132
1.842619745845552
1.8132942326490715
1.7869012707722385
1.7624633431085044
1.7390029325513197
1.7174975562072337
1.6959921798631477
1.6744868035190617
1.653958944281525
1.6334310850439884
1.616813294232649
1.6011730205278591
1.5835777126099706
1.565982404692082
1.547409579667644
1.5288367546432062
1.5112414467253177
1.4946236559139785
1.478983382209189
1.4623655913978495
1.4467253176930597
1.43108504398827
1.4203323558162269
1.4115347018572826
1.3998044965786902
1.3870967741935485
1.3743890518084063
1.3636363636363635
1.35386119257087
1.3440860215053765
1.3343108504398826
1.3255131964809383
1.3157380254154447
1.3079178885630498
1.3010752688172045
1.2991202346041055
1.2981427174975562
1.295210166177908
1.2913000977517106
1.2883675464320623
1.2854349951124144
1.281524926686217
1.2766373411534702
1.2727272727272727
1.2717497556207231
1.278592375366569
1.3010752688172045
1.3362658846529814
1.391006842619746
1.47702834799609
1.5943304007820136
1.7390029325513197
1.903225806451613
2.078201368523949
2.2551319648093844
2.423264907135875
2.5777126099706744
2.7155425219941347
2.835777126099707
2.93841642228739
3.0127077223851417
3.067448680351906
3.120234604105572
3.1652003910068425
3.19941348973607
3.220918866080156
3.23069403714565
3.2277614858260018
3.2140762463343107
3.189638318670577
3.157380254154448
3.1192570869990224
3.0762463343108504
3.0283479960899315
2.973607038123167
2.9120234604105573
2.84652981427175
2.776148582600196
2.7008797653958942
2.622678396871945
2.5425219941348973
2.462365591397849
2.3851417399804498
2.310850439882698
2.2404692082111435
2.1808406647116323
2.1300097751710654
2.0791788856304985
2.0303030303030303
1.986314760508309
1.9472140762463344
1.9130009775171064
1.8826979472140764
1.855327468230694
1.83088954056696
1.8084066471163245
1.7878787878787878
1.7702834799608993
1.7526881720430108
1.7331378299120237
1.7126099706744868
1.6920821114369502
1.672531769305963
1.6529814271749756
1.6344086021505375
1.6158357771260996
1.598240469208211
1.5806451612903225
1.564027370478983
1.547409579667644
1.5347018572825024
1.521994134897361
1.5063538611925709
1.490713587487781
1.4760508308895406
1.4613880742913
1.447702834799609
1.435972629521017
1.4242424242424243
1.412512218963832
1.4007820136852396
1.3900293255131966
1.383186705767351
1.3782991202346042
1.3714565004887584
1.3655913978494625
1.3607038123167154
1.3558162267839686
1.3509286412512218
1.346041055718475
1.3411534701857282
1.3362658846529814
1.3313782991202343
1.3255131964809383
1.3186705767350928
1.313782991202346
1.3118279569892473
1.310850439882698
1.316715542521994
1.3362658846529814
1.3773216031280548
1.4457478005865103
1.544477028347996
1.672531769305963
1.826001955034213
1.9951124144672527
2.1710654936461387
2.321603128054741
2.396871945259042
2.44672531769306
2.5317693059628543
2.624633431085044
2.7126099706744866
2.789833822091887
2.8533724340175954
2.903225806451613
2.9393939393939394
2.960899315738025
2.9696969696969697
2.963831867057673
2.9472140762463344
2.924731182795699
2.895405669599218
2.859237536656892
