ppg
1.396871945259042
1.3870967741935485
1.3782991202346042
1.370478983382209
1.364613880742913
1.359726295210166
1.35386119257087
1.348973607038123
1.3450635386119256
1.3372434017595307
1.327468230694037
1.3176930596285434
1.3118279569892473
1.313782991202346
1.3333333333333333
1.3743890518084063
1.4428152492668622
1.5405669599217986
1.6666666666666667
1.8142717497556209
1.9501466275659824
2.080156402737048
2.2248289345063537
2.364613880742913
2.487781036168133
2.5865102639296187
2.659824046920821
2.708699902248289
2.7370478983382207
2.7468230694037143
2.742913000977517
2.727272727272727
2.704789833822092
2.67644183773216
2.643206256109482
2.6050830889540566
2.565982404692082
2.5239491691104594
2.47702834799609
2.426197458455523
2.372434017595308
2.313782991202346
2.2502443792766376
2.1788856304985336
2.1094819159335287
2.038123167155425
1.9560117302052784
1.869012707722385
1.780058651026393
1.6930596285434996
1.6138807429130009
1.542521994134897
1.482893450635386
1.4349951124144673
1.3978494623655917
1.370478983382209
1.3499511241446724
1.33822091886608
1.332355816226784
1.327468230694037
1.321603128054741
1.313782991202346
1.305962854349951
1.2981427174975562
1.2883675464320623
1.2756598240469208
1.2619745845552297
1.2473118279569892
1.2326490713587488
1.2218963831867058
1.2150537634408602
1.206256109481916
1.1974584555229717
1.1896383186705768
1.181818181818182
1.1749755620723363
1.1691104594330402
1.1622678396871946
1.1534701857282503
1.1436950146627567
1.1319648093841643
1.1192570869990224
1.1085043988269794
1.0987292277614855
1.0840664711632453
1.0703812316715542
1.0596285434995112
1.050830889540567
1.043010752688172
1.035190615835777
1.0273704789833822
1.0205278592375366
1.0146627565982405
1.0097751710654936
1.0087976539589445
1.0097751710654936
1.0087976539589445
1.0087976539589445
1.0087976539589445
1.0087976539589445
1.0097751710654936
1.010752688172043
1.0127077223851415
1.0156402737047898
1.0175953079178883
1.0205278592375366
1.0234604105571847
1.029325513196481
1.0371456500488758
1.0420332355816226
1.0478983382209188
1.0527859237536656
1.0557184750733135
1.0596285434995112
1.0635386119257086
1.0664711632453567
1.0703812316715542
1.0742913000977516
1.0762463343108504
1.0791788856304985
1.0821114369501466
1.0821114369501466
1.078201368523949
1.0713587487781036
1.0664711632453567
1.0654936461388074
1.0762463343108504
1.110459433040078
1.1779081133919844
1.2834799608993157
1.4291300097751711
1.608993157380254
1.7820136852394917
1.9521016617790807
2.145650048875855
2.3391984359726297
2.5161290322580645
2.668621700879765
2.792766373411535
2.886608015640274
2.9530791788856305
2.997067448680352
3.022482893450636
3.0332355816226784
3.0303030303030303
3.0205278592375366
3.0097751710654936
2.997067448680352
2.981427174975562
2.962854349951124
2.9423264907135875
2.918866080156403
2.89247311827957
2.86217008797654
2.8269794721407626
2.78494623655914
2.736070381231672
2.686217008797654
2.63049853372434
2.5640273704789838
2.487781036168133
2.403714565004888
2.314760508308896
2.2238514173998043
2.1309872922776147
2.040078201368524
1.9550342130987293
1.8778103616813293
1.8113391984359728
1.761485826001955
1.7233626588465298
1.6911045943304008
1.667644183773216
1.6529814271749756
1.643206256109482
1.6363636363636365
1.6314760508308896
1.624633431085044
1.6158357771260996
1.6041055718475072
1.5884652981427174
1.5718475073313782
1.5571847507331378
1.543499511241447
1.5317693059628543
1.521016617790811
1.509286412512219
1.499511241446725
1.4887585532746823
1.4760508308895406
1.4613880742913
1.4467253176930597
1.4320625610948192
1.418377321603128
1.4086021505376345
1.4007820136852396
1.391006842619746
1.3822091886608017
1.3734115347018572
1.3665689149560116
1.3587487781036167
1.348973607038123
1.3401759530791788
1.3333333333333333
1.3284457478005864
1.3235581622678396
1.3196480938416422
1.3176930596285434
1.316715542521994
1.3147605083088951
1.3118279569892473
1.3079178885630498
1.3040078201368523
1.300097751710655
1.2971652003910068
1.2932551319648091
1.289345063538612
1.2864125122189638
1.2854349951124144
1.2854349951124144
1.2864125122189638
1.2864125122189638
1.2864125122189638
1.2883675464320623
1.2913000977517106
1.2942326490713587
1.2971652003910068
1.3010752688172045
1.3049853372434017
1.3088954056695992
1.3118279569892473
1.3118279569892473
1.3118279569892473
1.3098729227761483
1.3049853372434017
1.3040078201368523
1.3128054740957966
1.3401759530791788
1.393939393939394
1.478983382209189
1.595307917888563
1.7409579667644184
1.90811339198436
2.0840664711632453
2.2355816226783967
2.367546432062561
2.501466275659824
2.6207233626588464
2.719452590420332
2.7947214076246336
1.2649071358748778
1.2619745845552297
1.2590420332355816
1.2561094819159335
1.2590420332355816
1.2746823069403714
1.310850439882698
1.3734115347018572
1.466275659824047
1.5923753665689149
1.7458455522971652
1.89247311827957
2.035190615835777
2.1945259042033234
2.3519061583577714
2.4946236559139785
2.6148582600195502
2.7116324535679373
2.7839687194525906
2.833822091886608
2.863147605083089
2.87683284457478
2.87683284457478
2.865102639296188
2.843597262952102
2.817204301075269
2.7869012707722387
2.752688172043011
2.7145650048875853
2.67644183773216
2.6373411534701856
2.5962854349951123
2.5513196480938416
2.5024437927663734
2.447702834799609
2.3870967741935485
2.3274682306940373
2.2658846529814274
2.193548387096774
2.112414467253177
2.026392961876833
1.9393939393939397
1.8533724340175952
1.7702834799608993
1.6950146627565983
1.629521016617791
1.5718475073313782
1.5239491691104594
1.4897360703812317
1.4643206256109482
1.4418377321603129
1.423264907135875
1.4066471163245358
1.3919843597262953
1.3782991202346042
1.3655913978494625
1.35386119257087
1.3421309872922775
1.3313782991202343
1.3186705767350928
1.3079178885630498
1.2971652003910068
1.2805474095796676
1.262952101661779
1.2453567937438903
1.224828934506354
1.203323558162268
1.1808406647116323
1.1583577712609971
1.1368523949169111
1.1163245356793745
1.096774193548387
1.0791788856304985
1.0694037145650048
1.0606060606060606
1.0478983382209188
1.0361681329423265
1.024437927663734
1.013685239491691
1.0048875855327468
0.997067448680352
0.989247311827957
0.9833822091886608
0.9804496578690128
0.978494623655914
0.9804496578690128
0.9843597262952102
0.9863147605083088
0.9853372434017597
0.9833822091886608
0.9824046920821116
0.981427174975562
0.981427174975562
0.9833822091886608
0.9872922776148584
0.9912023460410556
0.9941348973607038
0.9960899315738024
1.0
1.0048875855327468
1.0068426197458455
1.007820136852395
1.010752688172043
1.013685239491691
1.0166177908113392
1.0166177908113392
1.0146627565982405
1.0117302052785924
1.0097751710654936
1.0087976539589445
1.0117302052785924
1.0234604105571847
1.0518084066471165
1.1065493646138806
1.195503421309873
1.3206256109481915
1.47702834799609
1.6578690127077225
1.8523949169110456
2.046920821114369
2.231671554252199
2.396871945259042
2.535679374389052
2.635386119257087
2.705767350928641
2.7653958944281527
2.812316715542522
2.8455522971652005
2.8670576735092865
2.878787878787879
2.8836754643206257
2.884652981427175
2.881720430107527
2.8729227761485827
2.859237536656892
2.8377321603128056
2.811339198435973
2.7810361681329425
2.745845552297165
2.7067448680351904
2.662756598240469
2.6129032258064515
2.555229716520039
2.490713587487781
2.418377321603128
2.3382209188660803
2.2531769305962857
2.164222873900293
2.083088954056696
2.007820136852395
1.927663734115347
1.8494623655913975
1.775171065493646
1.7086999022482894
1.6529814271749756
1.6080156402737047
1.5728250244379276
1.5454545454545454
1.5249266862170088
1.509286412512219
1.498533724340176
1.4926686217008798
1.4868035190615836
1.479960899315738
1.4731182795698925
1.4652981427174976
1.457478005865103
1.4506353861192571
1.4428152492668622
1.4349951124144673
1.426197458455523
1.41544477028348
1.404692082111437
1.3958944281524928
1.388074291300098
1.3773216031280548
1.3665689149560116
1.356793743890518
1.346041055718475
1.335288367546432
1.3235581622678396
1.3118279569892473
1.3010752688172045
1.2903225806451613
1.2825024437927663
1.278592375366569
1.2766373411534702
1.273704789833822
1.270772238514174
1.2668621700879763
1.262952101661779
1.2590420332355816
1.2551319648093842
1.2512218963831867
1.2473118279569892
1.2443792766373412
1.2434017595307918
1.2424242424242424
1.2434017595307918
1.2434017595307918
1.2424242424242424
1.2424242424242424
1.2424242424242424
1.2424242424242424
1.2434017595307918
1.2434017595307918
1.2424242424242424
1.2434017595307918
1.2434017595307918
1.2424242424242424
1.2434017595307918
1.2434017595307918
1.2424242424242424
1.2424242424242424
1.2424242424242424
1.2424242424242424
1.2443792766373412
1.252199413489736
1.2746823069403714
1.3176930596285434
1.3900293255131966
1.4965786901270772
1.6373411534701858
1.7790811339198436
1.924731182795699
2.0977517106549364
2.275659824046921
2.443792766373412
2.593352883675464
2.718475073313783
2.817204301075269
2.8885630498533725
2.935483870967742
2.962854349951124
2.972629521016618
2.9657869012707723
2.948191593352884
2.924731182795699
2.8944281524926687
2.860215053763441
2.8240469208211145
2.78494623655914
2.7438905180840663
2.6989247311827955
2.650048875855328
2.5962854349951123
2.536656891495601
2.469208211143695
2.40078201368524
2.329423264907136
2.2521994134897363
2.1700879765395893
2.0821114369501466
1.991202346041056
1.900293255131965
1.8132942326490715
1.732160312805474
1.6608015640273706
1.5992179863147604
1.547409579667644
1.5102639296187683
1.482893450635386
1.457478005865103
1.435972629521017
1.418377321603128
1.404692082111437
1.393939393939394
1.3841642228739004
1.375366568914956
1.3655913978494625
1.3548387096774193
1.3440860215053765
1.3362658846529814
1.3284457478005864
1.3157380254154447
1.300097751710655
1.284457478005865
1.2697947214076246
1.2551319648093842
1.2394916911045943
1.2209188660801564
1.2003910068426198
1.1788856304985338
1.160312805474096
1.1436950146627567
1.130987292277615
1.1231671554252198
1.1114369501466277
1.0977517106549364
1.0840664711632453
1.0694037145650048
1.056695992179863
1.04594330400782
1.0361681329423265
1.0273704789833822
1.0195503421309873
1.0117302052785924
1.007820136852395
1.0058651026392962
1.0009775171065494
0.9960899315738024
0.9921798631476052
0.9902248289345064
0.989247311827957
0.9902248289345064
0.9921798631476052
0.9951124144672532
0.9990224828934506
1.0039100684261977
1.0097751710654936
1.0175953079178883
1.0254154447702837
1.0312805474095796
1.035190615835777
1.0391006842619743
1.043010752688172
1.0469208211143697
1.050830889540567
1.0547409579667644
1.0586510263929618
1.0606060606060606
1.0596285434995112
1.0606060606060606
1.0664711632453567
1.078201368523949
1.1065493646138806
1.1593352883675463
1.2434017595307918
1.3636363636363635
1.517106549364614
1.6979472140762464
1.8963831867057677
2.0977517106549364
2.291300097751711
2.4682306940371457
2.6050830889540566
2.708699902248289
2.803519061583578
2.8807429130009776
2.9393939393939394
2.978494623655914
3.0019550342130987
3.0127077223851417
3.013685239491691
3.006842619745845
2.9931573802541545
2.975562072336266
2.952101661779081
2.924731182795699
2.897360703812317
2.8670576735092865
2.834799608993157
2.798631476050831
2.7565982404692084
2.7096774193548385
2.656891495601173
2.595307917888563
2.5249266862170088
2.4457478005865103
2.357771260997068
2.272727272727273
2.190615835777126
2.099706744868035
2.004887585532747
1.9100684261974583
1.8201368523949168
1.7380254154447703
1.664711632453568
1.603128054740958
1.5532746823069403
1.5131964809384164
1.4819159335288368
1.4604105571847508
1.444770283479961
1.4291300097751711
1.414467253176931
1.3998044965786902
1.3870967741935485
1.375366568914956
1.3636363636363635
1.3499511241446724
1.3343108504398826
1.316715542521994
1.2981427174975562
1.2805474095796676
1.2688172043010753
1.2590420332355816
1.24633431085044
1.2346041055718475
1.2228739002932552
1.209188660801564
1.1945259042033236
1.1798631476050832
1.166177908113392
1.1534701857282503
1.141739980449658
1.1300097751710656
1.1221896383186705
1.1163245356793745
1.1085043988269794
1.0684261974584557
1.067448680351906
1.0635386119257086
1.0576735092864125
1.050830889540567
1.0478983382209188
1.056695992179863
1.086021505376344
1.1436950146627567
1.2365591397849462
1.343108504398827
1.469208211143695
1.6363636363636365
1.827956989247312
2.0283479960899315
2.222873900293255
2.403714565004888
2.560117302052786
2.6901270772238512
2.793743890518084
2.8729227761485827
2.9315738025415445
2.9657869012707723
2.9824046920821115
2.994134897360704
2.9980449657869013
2.994134897360704
2.983382209188661
2.9667644183773216
2.945259042033236
2.920821114369501
2.89345063538612
2.863147605083089
2.8289345063538613
2.790811339198436
2.7497556207233624
2.7038123167155423
2.650048875855328
2.589442815249267
2.5210166177908118
2.4457478005865103
2.363636363636364
2.2737047898338223
2.177908113391984
2.081133919843597
1.986314760508309
1.8963831867057677
1.822091886608016
1.7595307917888563
1.6989247311827955
1.64613880742913
1.6011730205278591
1.565982404692082
1.5376344086021505
1.5161290322580645
1.499511241446725
1.4858260019550342
1.4721407624633431
1.458455522971652
1.4437927663734116
1.4320625610948192
1.4213098729227762
1.4086021505376345
1.3958944281524928
1.383186705767351
1.370478983382209
1.3577712609970674
1.3440860215053765
1.3304007820136852
1.3157380254154447
1.3010752688172045
1.2864125122189638
1.2746823069403714
1.2649071358748778
1.2531769305962854
1.2394916911045943
1.2267839687194526
1.217008797653959
1.2082111436950147
1.2003910068426198
1.1925708699902249
1.1867057673509287
1.181818181818182
1.1759530791788857
1.1730205278592376
1.173998044965787
1.173998044965787
1.173998044965787
1.173998044965787
1.173998044965787
1.173998044965787
1.173998044965787
1.173998044965787
1.173998044965787
1.173998044965787
1.173998044965787
1.1749755620723363
1.1788856304985338
1.18475073313783
1.1886608015640274
1.1906158357771262
1.1915933528836755
1.1925708699902249
1.1925708699902249
1.1925708699902249
1.1945259042033236
1.198435972629521
1.2023460410557183
1.2052785923753666
1.2082111436950147
1.2111436950146628
1.2121212121212122
1.2101661779081134
1.2052785923753666
1.2003910068426198
1.2013685239491692
1.217008797653959
1.2561094819159335
1.327468230694037
1.434017595307918
1.5757575757575757
1.7487781036168133
1.913978494623656
2.074291300097752
2.254154447702835
2.432062561094819
2.595307917888563
2.735092864125122
2.84652981427175
2.929618768328446
2.988269794721408
3.026392961876833
3.04594330400782
3.050830889540567
3.040078201368524
3.0195503421309877
2.9960899315738025
2.9667644183773216
2.9315738025415445
2.89247311827957
2.850439882697948
2.807429130009776
2.763440860215054
2.7155425219941347
2.66177908113392
2.6021505376344085
2.533724340175953
2.4652981427174976
2.3949169110459434
2.313782991202346
2.2238514173998043
2.1280547409579667
2.03128054740958
1.9364613880742916
1.8465298142717497
1.7624633431085044
1.6871945259042034
1.6207233626588464
1.5650048875855327
1.52297165200391
1.4916911045943304
1.4652981427174976
1.4437927663734116
1.426197458455523
1.412512218963832
1.4027370478983383
1.392961876832845
1.3822091886608017
1.3714565004887584
1.3607038123167154
1.348973607038123
1.335288367546432
1.3235581622678396
1.3128054740957966
1.2981427174975562
1.2825024437927663
1.2668621700879763
1.252199413489736
1.2375366568914956
1.2218963831867058
1.2072336265884651
1.1925708699902249
1.1779081133919844
1.164222873900293
1.155425219941349
1.1485826001955035
1.13880742913001
1.1280547409579669
1.1173020527859236
1.1055718475073313
1.0948191593352885
1.0840664711632453
1.072336265884653
1.0635386119257086
1.056695992179863
1.0518084066471165
1.0478983382209188
1.04594330400782
1.0469208211143697
1.0478983382209188
1.0469208211143697
1.0449657869012707
1.043010752688172
1.0420332355816226
1.040078201368524
1.0371456500488758
1.035190615835777
1.0342130987292275
1.0342130987292275
1.0361681329423265
1.0391006842619743
1.040078201368524
1.0420332355816226
1.043010752688172
1.043010752688172
1.0449657869012707
1.0478983382209188
1.050830889540567
1.0527859237536656
1.0518084066471165
1.0488758553274682
1.04594330400782
1.0449657869012707
1.0498533724340176
1.0635386119257086
1.0948191593352885
1.1544477028347997
1.2502443792766371
1.3841642228739004
1.552297165200391
1.7458455522971652
1.9530791788856303
2.160312805474096
2.355816226783969
2.5102639296187683
2.634408602150537
2.750733137829912
2.8484848484848486
2.924731182795699
2.981427174975562
3.021505376344086
3.047898338220919
3.059628543499511
3.060606060606061
3.053763440860215
3.040078201368524
3.021505376344086
2.9980449657869013
2.970674486803519
2.9423264907135875
2.9120234604105573
2.877810361681329
2.838709677419355
2.7947214076246336
2.7438905180840663
2.6852394916911044
2.619745845552297
2.547409579667644
2.4672531769305963
2.3900293255131966
2.312805474095797
2.2248289345063537
2.133919843597263
2.0439882697947214
1.9608993157380252
1.8856304985337244
1.8191593352883677
1.7644183773216031
1.7204301075268815
1.6852394916911049
1.6559139784946235
1.6334310850439884
1.6187683284457477
1.6080156402737047
1.598240469208211
1.5884652981427174
1.5777126099706744
1.5669599217986314
1.5562072336265884
1.5454545454545454
1.5347018572825024
1.521016617790811
1.5073313782991202
1.4936461388074291
1.4838709677419355
1.4760508308895406
1.4652981427174976
1.452590420332356
1.4389051808406648
1.4242424242424243
1.409579667644184
1.3958944281524928
1.3841642228739004
1.3724340175953078
1.3607038123167154
1.3499511241446724
1.33822091886608
1.3304007820136852
1.3235581622678396
1.316715542521994
1.310850439882698
1.305962854349951
1.3020527859237536
1.2981427174975562
1.2942326490713587
1.2903225806451613
1.2854349951124144
1.2795698924731185
1.2727272727272727
1.2697947214076246
1.2697947214076246
1.2697947214076246
1.2697947214076246
1.2697947214076246
1.2697947214076246
1.2697947214076246
1.2697947214076246
1.2697947214076246
1.2697947214076246
1.2697947214076246
1.2697947214076246
1.2717497556207231
1.2756598240469208
1.2795698924731185
1.2825024437927663
1.2825024437927663
1.2805474095796676
1.278592375366569
1.2756598240469208
1.270772238514174
1.2658846529814272
1.2639296187683284
1.273704789833822
1.303030303030303
1.3470185728250244
1.414467253176931
1.521994134897361
1.6529814271749756
1.8025415444770283
1.9745845552297163
2.1544477028347995
2.3284457478005867
2.484848484848485
2.618768328445748
2.727272727272727
2.8103616813294234
2.860215053763441
2.886608015640274
2.9012707722385143
2.9042033235581624
2.895405669599218
2.877810361681329
2.8533724340175954
2.825024437927664
2.793743890518084
2.758553274682307
2.721407624633431
2.6823069403714563
2.641251221896383
2.5992179863147604
2.5562072336265884
2.50733137829912
2.4516129032258065
2.3900293255131966
2.320625610948192
2.244379276637341
2.161290322580645
2.0733137829912023
1.9843597262952104
1.8963831867057677
1.8113391984359728
1.739980449657869
1.6793743890518085
1.619745845552297
1.5669599217986314
1.521016617790811
1.482893450635386
1.4545454545454546
1.4320625610948192
1.4134897360703813
1.3988269794721409
1.3861192570869991
1.3724340175953078
1.3587487781036167
1.3499511241446724
1.3421309872922775
1.3333333333333333
1.3225806451612905
1.3088954056695992
1.2932551319648091
1.2746823069403714
1.2531769305962854
1.2326490713587488
1.2121212121212122
1.1915933528836755
1.1710654936461389
1.155425219941349
1.141739980449658
1.126099706744868
1.1094819159335287
1.0918866080156402
1.0762463343108504
1.0625610948191593
1.050830889540567
1.0391006842619743
1.0273704789833822
1.0175953079178883
1.010752688172043
1.007820136852395
1.007820136852395
1.0087976539589445
1.007820136852395
1.007820136852395
1.007820136852395
1.007820136852395
1.007820136852395
1.007820136852395
1.0087976539589445
1.010752688172043
1.013685239491691
1.0166177908113392
1.021505376344086
1.0283479960899315
1.0332355816226784
1.0381231671554252
1.0420332355816226
1.0469208211143697
1.053763440860215
1.0625610948191593
1.072336265884653
1.0821114369501466
1.0928641251221896
1.1036168132942326
1.1114369501466277
1.1173020527859236
1.1221896383186705
1.1241446725317692
1.1231671554252198
1.121212121212121
1.1241446725317692
1.1397849462365592
1.1779081133919844
1.2453567937438903
1.348973607038123
1.4887585532746823
1.6588465298142718
1.8211143695014664
1.981427174975562
2.164222873900293
2.345063538611926
2.509286412512219
2.6510263929618767
2.766373411534702
2.855327468230694
2.919843597262952
2.964809384164223
2.994134897360704
3.0097751710654936
3.0127077223851417
3.0019550342130987
2.9824046920821115
2.9589442815249267
2.9335288367546437
2.905180840664712
2.874877810361681
2.841642228739003
2.807429130009776
2.76930596285435
2.727272727272727
2.679374389051808
2.625610948191593
2.570869990224829
2.512218963831867
2.442815249266862
2.364613880742913
2.27761485826002
2.1837732160312804
2.086021505376344
1.9872922776148585
1.8914956011730208
1.8025415444770283
1.7223851417399805
1.6520039100684265
1.5923753665689149
1.547409579667644
1.512218963831867
1.479960899315738
1.4516129032258065
1.4281524926686218
1.409579667644184
1.392961876832845
1.3773216031280548
1.3636363636363635
1.3509286412512218
1.3372434017595307
1.321603128054741
1.3088954056695992
1.2971652003910068
1.281524926686217
1.2649071358748778
1.2482893450635386
1.2326490713587488
1.2179863147605083
1.203323558162268
1.187683284457478
1.1700879765395895
1.1505376344086022
1.130987292277615
1.1143695014662756
1.1036168132942326
1.0957966764418376
1.0869990224828934
1.0772238514173995
1.0664711632453567
1.0557184750733135
1.0449657869012707
1.035190615835777
1.0254154447702837
1.0175953079178883
1.0117302052785924
1.007820136852395
1.007820136852395
1.0087976539589445
1.007820136852395
1.007820136852395
1.007820136852395
1.0068426197458455
1.0058651026392962
1.0048875855327468
1.0048875855327468
1.0048875855327468
1.0048875855327468
1.0058651026392962
1.0097751710654936
1.0146627565982405
1.0175953079178883
1.018572825024438
1.0195503421309873
1.0195503421309873
1.0205278592375366
1.0205278592375366
1.018572825024438
1.0156402737047898
1.0117302052785924
1.0068426197458455
1.0048875855327468
1.0087976539589445
1.0234604105571847
1.056695992179863
1.1173020527859236
1.2121212121212122
1.3421309872922775
1.5053763440860215
1.6911045943304008
1.8885630498533723
2.083088954056696
2.2629521016617797
2.421309872922776
2.5386119257087
2.625610948191593
2.7008797653958942
2.758553274682307
2.7996089931573804
2.8260019550342133
2.8406647116324537
2.843597262952102
2.838709677419355
2.8269794721407626
2.812316715542522
2.7966764418377323
2.7781036168132944
2.755620723362659
2.7311827956989245
2.704789833822092
2.675464320625611
2.641251221896383
2.60019550342131
2.5513196480938416
2.495601173020528
2.434017595307918
2.363636363636364
2.286412512218964
2.204301075268817
2.1280547409579667
2.053763440860215
1.970674486803519
1.8856304985337244
1.8025415444770283
1.7253176930596286
1.6578690127077225
1.6011730205278591
1.555229716520039
1.5180840664711632
1.487781036168133
1.4652981427174976
1.4506353861192571
1.4418377321603129
1.436950146627566
1.4320625610948192
1.4271749755620724
