ppg
1.4965786901270772
1.4682306940371457
1.439882697947214
1.4115347018572826
1.383186705767351
1.3577712609970674
1.3343108504398826
1.3118279569892473
1.2903225806451613
1.270772238514174
1.2570869990224829
1.2453567937438903
1.2316715542521994
1.217008797653959
1.2003910068426198
1.18475073313783
1.1691104594330402
1.1544477028347997
1.1407624633431086
1.1290322580645162
1.1173020527859236
1.1065493646138806
1.099706744868035
1.096774193548387
1.0928641251221896
1.088954056695992
1.0850439882697946
1.0811339198435972
1.0772238514173995
1.0547409579667644
1.0224828934506354
1.0019550342130987
0.9872922776148584
0.9745845552297164
0.9638318670576737
0.9579667644183774
0.95405669599218
0.9442815249266864
0.9335288367546432
0.9237536656891496
0.913978494623656
0.9042033235581622
0.8944281524926686
0.8856304985337243
0.8787878787878788
0.8768328445747801
0.8856304985337243
0.9071358748778104
0.946236559139785
1.0127077223851415
1.1124144672531768
1.2443792766373412
1.4037145650048877
1.5835777126099706
1.7741935483870968
1.9657869012707725
2.1485826001955037
2.315738025415445
2.464320625610948
2.591397849462365
2.684261974584555
2.755620723362659
2.823069403714565
2.881720430107527
2.9315738025415445
2.970674486803519
3.0009775171065494
3.0234604105571847
3.0391006842619745
3.0498533724340176
3.0557184750733137
3.0557184750733137
3.047898338220919
3.0332355816226784
3.016617790811339
2.994134897360704
2.9667644183773216
2.932551319648094
2.8885630498533725
2.835777126099707
2.774193548387097
2.702834799608993
2.624633431085044
2.541544477028348
2.4545454545454546
2.375366568914956
2.302052785923754
2.225806451612903
2.1515151515151514
2.081133919843597
2.0175953079178885
1.959921798631476
1.9090909090909087
1.865102639296188
1.8240469208211143
1.7869012707722385
1.7526881720430108
1.7243401759530792
1.7008797653958945
1.6764418377321604
1.6529814271749756
1.6304985337243405
1.6080156402737047
1.585532746823069
1.5620723362658846
1.5366568914956011
1.5112414467253177
1.4858260019550342
1.4604105571847508
1.4389051808406648
1.4222873900293256
1.4056695992179864
1.3900293255131966
1.375366568914956
1.3607038123167154
1.346041055718475
1.3304007820136852
1.313782991202346
1.2961876832844574
1.2776148582600195
1.260019550342131
1.241446725317693
1.227761485826002
1.217008797653959
1.2023460410557183
1.1867057673509287
1.1730205278592376
1.163245356793744
1.1544477028347997
1.1466275659824048
1.1397849462365592
1.1358748778103618
1.133919843597263
1.133919843597263
1.1397849462365592
1.1466275659824048
1.1495601173020529
1.1515151515151516
1.152492668621701
1.155425219941349
1.1652003910068427
1.1857282502443791
1.2238514173998043
1.2864125122189638
1.3763440860215057
1.4936461388074291
1.635386119257087
1.7712609970674489
1.905180840664712
2.056695992179863
2.212121212121212
2.357771260997068
2.487781036168133
2.5992179863147604
2.6911045943304006
2.7653958944281527
2.8211143695014664
2.8582600195503423
2.881720430107527
2.8885630498533725
2.8836754643206257
2.874877810361681
2.86217008797654
2.8455522971652005
2.8240469208211145
2.7996089931573804
2.773216031280548
2.745845552297165
2.716520039100684
2.684261974584555
2.6471163245356792
2.6041055718475072
2.560117302052786
2.5112414467253177
2.453567937438905
2.389051808406647
2.320625610948192
2.2502443792766376
2.179863147605083
2.1114369501466275
2.0498533724340176
1.9960899315738023
1.9501466275659824
1.9120234604105573
1.8836754643206255
1.86119257086999
1.8387096774193548
1.8172043010752688
1.7956989247311828
1.7741935483870968
1.7546432062561097
1.7380254154447703
1.7223851417399805
1.7057673509286413
1.6881720430107527
1.6705767350928642
1.6520039100684265
1.635386119257087
1.6177908113391983
1.5943304007820136
1.5679374389051808
1.541544477028348
1.5161290322580645
1.4936461388074291
1.4750733137829912
1.4604105571847508
1.447702834799609
1.4349951124144673
1.4213098729227762
1.4105571847507332
1.401759530791789
1.3900293255131966
1.3763440860215057
1.3616813294232648
1.3440860215053765
1.3264907135874875
1.310850439882698
1.2961876832844574
1.2834799608993157
1.2717497556207231
1.2619745845552297
1.2551319648093842
1.2531769305962854
1.2551319648093842
1.2580645161290325
1.2609970674486803
1.2619745845552297
1.2619745845552297
1.2609970674486803
1.2590420332355816
1.2561094819159335
1.252199413489736
1.2512218963831867
1.2590420332355816
1.2766373411534702
1.3098729227761483
1.3695014662756595
1.458455522971652
1.5757575757575757
1.7194525904203324
1.8797653958944285
2.046920821114369
2.212121212121212
2.367546432062561
2.50733137829912
2.627565982404692
2.7282502443792764
2.798631476050831
2.8484848484848486
2.8944281524926687
2.9345063538611926
2.964809384164223
2.9872922776148583
3.002932551319648
3.0127077223851417
3.016617790811339
3.01564027370479
3.007820136852395
2.994134897360704
2.975562072336266
2.9530791788856305
2.9266862170087977
2.8963831867057674
2.8611925708699903
2.8181818181818183
2.7653958944281527
2.7038123167155423
2.634408602150537
2.558162267839687
2.4760508308895406
2.3919843597262958
2.30791788856305
2.2346041055718477
2.1700879765395893
2.104594330400782
2.042033235581622
1.9843597262952104
1.9335288367546437
1.8875855327468232
1.8484848484848484
1.8132942326490715
1.7810361681329423
1.7517106549364614
1.7233626588465298
1.6979472140762464
1.689149560117302
1.686217008797654
1.6715542521994136
1.651026392961877
1.6275659824046922
1.6021505376344083
1.576735092864125
1.5513196480938416
1.5268817204301075
1.504398826979472
1.482893450635386
1.4633431085043989
1.4506353861192571
1.4408602150537635
1.4281524926686218
1.4134897360703813
1.3998044965786902
1.388074291300098
1.3773216031280548
1.3665689149560116
1.35386119257087
1.3401759530791788
1.3255131964809383
1.310850439882698
1.300097751710655
1.29227761485826
1.2834799608993157
1.2756598240469208
1.2688172043010753
1.262952101661779
1.2570869990224829
1.2512218963831867
1.2453567937438903
1.2375366568914956
1.2267839687194526
1.2150537634408602
1.2043010752688172
1.2023460410557183
1.2130987292277615
1.2404692082111437
1.289345063538612
1.364613880742913
1.466275659824047
1.590420332355816
1.732160312805474
1.881720430107527
2.03128054740958
2.1730205278592374
2.303030303030303
2.404692082111437
2.484848484848485
2.5620723362658846
2.627565982404692
2.681329423264907
2.7262952101661777
2.7624633431085046
2.791788856304985
2.8132942326490715
2.8269794721407626
2.833822091886608
2.832844574780059
2.8240469208211145
2.811339198435973
2.7966764418377323
2.7781036168132944
2.7536656891495603
2.7233626588465296
2.686217008797654
2.641251221896383
2.5884652981427174
2.527859237536657
2.4604105571847508
2.389051808406647
2.317693059628544
2.2531769305962857
2.193548387096774
2.1300097751710654
2.067448680351906
2.0087976539589443
1.9550342130987293
1.906158357771261
1.8631476050830889
1.8240469208211143
1.7888563049853372
1.7546432062561097
1.721407624633431
1.6950146627565983
1.672531769305963
1.6480938416422288
1.6236559139784943
1.5992179863147604
1.5747800586510263
1.5483870967741935
1.521016617790811
1.4926686217008798
1.4623655913978495
1.43108504398827
1.401759530791789
1.3763440860215057
1.3587487781036167
1.3470185728250244
1.335288367546432
1.3264907135874875
1.3196480938416422
1.3147605083088951
1.310850439882698
1.305962854349951
1.3010752688172045
1.2961876832844574
1.289345063538612
1.2825024437927663
1.278592375366569
1.2766373411534702
1.2727272727272727
1.267839687194526
1.2619745845552297
1.2551319648093842
1.2482893450635386
1.241446725317693
1.2355816226783969
1.2316715542521994
1.2287390029325511
1.227761485826002
1.2267839687194526
1.2287390029325511
1.2326490713587488
1.2346041055718475
1.2346041055718475
1.2336265884652982
1.2336265884652982
1.2375366568914956
1.2502443792766371
1.278592375366569
1.327468230694037
1.4007820136852396
1.501466275659824
1.607038123167155
1.7194525904203324
1.8563049853372435
2.005865102639296
2.157380254154448
2.3010752688172045
2.43108504398827
2.5425219941348973
2.636363636363636
2.7126099706744866
2.773216031280548
2.8181818181818183
2.850439882697948
2.866080156402737
2.8719452590420333
2.87683284457478
2.8797653958944283
2.878787878787879
2.874877810361681
2.868035190615836
2.857282502443793
2.843597262952102
2.825024437927664
2.80058651026393
2.76930596285435
2.7331378299120237
2.6881720430107525
2.6265884652981426
2.547409579667644
2.4516129032258065
2.343108504398827
2.2248289345063537
2.1006842619745845
1.9794721407624636
1.866080156402737
1.7653958944281525
1.6813294232649072
1.6129032258064515
1.564027370478983
1.5317693059628543
1.5073313782991202
1.4926686217008798
1.4858260019550342
1.4838709677419355
1.4838709677419355
1.4838709677419355
1.482893450635386
1.479960899315738
1.4721407624633431
1.4604105571847508
1.4486803519061584
1.436950146627566
1.4213098729227762
1.404692082111437
1.391006842619746
1.3792766373411536
1.3685239491691104
1.359726295210166
1.3528836754643203
1.3479960899315735
1.3450635386119256
1.3440860215053765
1.3450635386119256
1.348973607038123
1.3548387096774193
1.3587487781036167
1.3626588465298142
1.364613880742913
1.364613880742913
1.3636363636363635
1.3616813294232648
1.359726295210166
1.359726295210166
1.3616813294232648
1.3636363636363635
1.3685239491691104
1.3743890518084063
1.3782991202346042
1.380254154447703
1.380254154447703
1.3782991202346042
1.3743890518084063
1.367546432062561
1.3587487781036167
1.3499511241446724
1.343108504398827
1.3421309872922775
1.35386119257087
1.3763440860215057
1.4173998044965788
1.4848484848484849
1.5796676441837731
1.6989247311827955
1.835777126099707
1.981427174975562
2.1280547409579667
2.2668621700879767
2.393939393939394
2.505376344086021
2.5992179863147604
2.665689149560117
2.7145650048875853
2.758553274682307
2.7947214076246336
2.822091886608016
2.843597262952102
2.859237536656892
2.8699902248289346
2.875855327468231
2.878787878787879
2.878787878787879
2.874877810361681
2.8690127077223853
2.857282502443793
2.8396871945259043
2.8181818181818183
2.787878787878788
2.748778103616813
2.6989247311827955
2.638318670576735
2.5777126099706744
2.5112414467253177
2.4281524926686218
2.3362658846529816
2.242424242424242
2.161290322580645
2.0879765395894427
2.013685239491691
1.943304007820137
1.8797653958944285
1.8240469208211143
1.7771260997067448
1.7380254154447703
1.704789833822092
1.6735092864125125
1.6412512218963833
1.6080156402737047
1.5757575757575757
1.5483870967741935
1.521016617790811
1.4887585532746823
1.4545454545454546
1.4203323558162269
1.388074291300098
1.3587487781036167
1.3304007820136852
1.3020527859237536
1.2727272727272727
1.2434017595307918
1.2150537634408602
1.1935483870967742
1.176930596285435
1.1573802541544478
1.1368523949169111
1.1173020527859236
1.099706744868035
1.083088954056696
1.0684261974584557
1.053763440860215
1.0410557184750733
1.0303030303030305
1.021505376344086
1.0166177908113392
1.0146627565982405
1.0097751710654936
1.002932551319648
0.9960899315738024
0.989247311827957
0.9843597262952102
0.9794721407624634
0.975562072336266
0.9706744868035192
0.9628543499511242
0.9530791788856304
0.9413489736070382
0.9335288367546432
0.9305962854349952
0.9325513196480938
0.9472140762463344
0.9824046920821116
1.0469208211143697
1.1436950146627567
1.270772238514174
1.423264907135875
1.5923753665689149
1.7673509286412512
1.9403714565004888
2.083088954056696
2.203323558162268
2.3225806451612905
2.429130009775171
2.5180840664711632
2.589442815249267
2.643206256109482
2.684261974584555
2.7145650048875853
2.735092864125122
2.748778103616813
2.7565982404692084
2.758553274682307
2.752688172043011
2.740957966764418
2.7253176930596283
2.7067448680351904
2.6852394916911044
2.658846529814272
2.6265884652981426
2.5865102639296187
2.539589442815249
2.4838709677419355
2.418377321603128
2.346041055718475
2.27761485826002
2.2111436950146626
2.1378299120234603
2.0625610948191597
1.991202346041056
1.924731182795699
1.865102639296188
1.8142717497556209
1.7712609970674489
1.7350928641251222
1.704789833822092
1.6803519061583578
1.6578690127077225
1.640273704789834
1.6226783968719452
1.6011730205278591
1.576735092864125
1.5483870967741935
1.5190615835777126
1.4887585532746823
1.458455522971652
1.4291300097751711
1.3998044965786902
1.3724340175953078
1.3470185728250244
1.327468230694037
1.310850439882698
1.2903225806451613
1.2688172043010753
1.2482893450635386
1.2297165200391007
1.2130987292277615
1.1964809384164223
1.1808406647116323
1.1652003910068427
1.1505376344086022
1.1368523949169111
1.1241446725317692
1.1163245356793745
1.1114369501466277
1.104594330400782
1.0977517106549364
1.0899315738025417
1.0821114369501466
1.075268817204301
1.0703812316715542
1.0654936461388074
1.0606060606060606
1.0557184750733135
1.0518084066471165
1.0498533724340176
1.0488758553274682
1.0420332355816226
1.032258064516129
1.0234604105571847
1.0205278592375366
1.0303030303030305
1.0596285434995112
1.1163245356793745
1.203323558162268
1.3206256109481915
1.4672531769305963
1.6344086021505375
1.7878787878787878
1.9315738025415443
2.0879765395894427
2.239491691104594
2.376344086021505
2.495601173020528
2.5972629521016617
2.6823069403714563
2.752688172043011
2.8084066471163247
2.8514173998044967
2.8836754643206257
2.902248289345064
2.911045943304008
2.918866080156403
2.9237536656891496
2.9237536656891496
2.918866080156403
2.9100684261974585
2.8944281524926687
2.8699902248289346
2.8377321603128056
2.795698924731183
2.7438905180840663
2.681329423264907
2.616813294232649
2.548387096774193
2.4682306940371457
2.3812316715542523
2.29227761485826
2.203323558162268
2.118279569892473
2.0391006842619745
1.9687194525904204
1.906158357771261
1.8514173998044965
1.8035190615835777
1.7653958944281525
1.7360703812316716
1.70772238514174
1.6803519061583578
1.6549364613880744
1.629521016617791
1.6041055718475072
1.5777126099706744
1.5493646138807429
1.5180840664711632
1.4868035190615836
1.456500488758553
1.4271749755620724
1.4037145650048877
1.383186705767351
1.359726295210166
1.3362658846529814
1.3128054740957966
1.289345063538612
1.2658846529814272
1.2434017595307918
1.2228739002932552
1.203323558162268
1.1857282502443791
1.1691104594330402
1.1573802541544478
1.1485826001955035
1.1378299120234605
1.1270772238514175
1.1163245356793745
1.10752688172043
1.099706744868035
1.093841642228739
1.0879765395894427
1.0811339198435972
1.0742913000977516
1.0684261974584557
1.0654936461388074
1.067448680351906
1.0713587487781036
1.0733137829912025
1.0742913000977516
1.0733137829912025
1.072336265884653
1.072336265884653
1.078201368523949
1.096774193548387
1.1358748778103618
1.2013685239491692
1.2971652003910068
1.4027370478983383
1.521016617790811
1.6705767350928642
1.836754643206256
2.007820136852395
2.1730205278592374
2.324535679374389
2.4594330400782014
2.573802541544477
2.667644183773216
2.7438905180840663
2.8044965786901277
2.843597262952102
2.868035190615836
2.90811339198436
2.9530791788856305
2.9775171065493646
2.989247311827957
2.9931573802541545
2.991202346041056
2.9853372434017595
2.9745845552297165
2.9589442815249267
2.936461388074292
2.905180840664712
2.868035190615836
2.823069403714565
2.768328445747801
2.702834799608993
2.627565982404692
2.5464320625610948
2.4613880742913
2.376344086021505
2.29227761485826
2.210166177908113
2.132942326490713
2.0625610948191597
2.004887585532747
1.956989247311828
1.911045943304008
1.8699902248289344
1.833822091886608
1.8025415444770283
1.7732160312805474
1.7448680351906158
1.718475073313783
1.694037145650049
1.672531769305963
1.651026392961877
1.6285434995112416
1.608993157380254
1.5894428152492668
1.5650048875855327
1.5395894428152492
1.5131964809384164
1.4868035190615836
1.4633431085043989
1.4428152492668622
1.4242424242424243
1.4076246334310851
1.3919843597262953
1.3782991202346042
1.3695014662756595
1.3626588465298142
1.3509286412512218
1.3372434017595307
1.3225806451612905
1.3088954056695992
1.2961876832844574
1.284457478005865
1.2727272727272727
1.2609970674486803
1.2512218963831867
1.2424242424242424
1.2316715542521994
1.224828934506354
1.2189638318670577
1.2101661779081134
1.2003910068426198
1.1906158357771262
1.1798631476050832
1.166177908113392
1.1515151515151516
1.1368523949169111
1.1231671554252198
1.1173020527859236
1.1251221896383188
1.1456500488758554
1.1857282502443791
1.2551319648093842
1.356793743890518
1.4887585532746823
1.643206256109482
1.8113391984359728
1.9833822091886608
2.1485826001955037
2.300097751710655
2.4330400782013686
2.5464320625610948
2.638318670576735
2.701857282502444
2.7468230694037143
2.787878787878788
2.822091886608016
2.8484848484848486
2.866080156402737
2.877810361681329
2.8836754643206257
2.884652981427175
2.881720430107527
2.873900293255132
2.863147605083089
2.8475073313782997
2.825024437927664
2.7966764418377323
2.7624633431085046
2.718475073313783
2.6637341153470184
2.601173020527859
2.530791788856305
2.4545454545454546
2.375366568914956
2.2952101661779083
2.21505376344086
2.1378299120234603
2.0733137829912023
2.01564027370479
1.9560117302052784
1.900293255131965
1.8494623655913975
1.8035190615835777
1.7624633431085044
1.7243401759530792
1.6881720430107527
1.6549364613880744
1.6226783968719452
1.590420332355816
1.565982404692082
1.5454545454545454
1.521994134897361
1.4975562072336266
1.4721407624633431
1.4467253176930597
1.4222873900293256
1.3978494623655917
1.3724340175953078
1.346041055718475
1.3186705767350928
1.2913000977517106
1.2639296187683284
1.2424242424242424
1.2238514173998043
1.2023460410557183
1.1798631476050832
1.1564027370478984
1.1329423264907137
1.1094819159335287
1.0879765395894427
1.0703812316715542
1.0557184750733135
1.043010752688172
1.0303030303030305
1.0234604105571847
1.018572825024438
1.010752688172043
1.0009775171065494
0.9921798631476052
0.9853372434017597
0.981427174975562
0.978494623655914
0.9745845552297164
0.9696969696969696
0.9628543499511242
0.9530791788856304
0.9442815249266864
0.9442815249266864
0.9560117302052786
0.9833822091886608
1.0342130987292275
1.1133919843597262
1.2228739002932552
1.3607038123167154
1.5190615835777126
1.6881720430107527
1.857282502443793
2.018572825024438
2.1652003910068425
2.2795698924731185
2.3704789833822093
2.4565004887585533
2.5317693059628543
2.5943304007820136
2.64613880742913
2.6881720430107525
2.721407624633431
2.7468230694037143
2.764418377321604
2.776148582600196
2.782991202346041
2.7859237536656893
2.7810361681329425
2.771260997067449
2.760508308895406
2.7468230694037143
2.7262952101661777
2.6959921798631474
2.654936461388074
2.601173020527859
2.5317693059628543
2.4486803519061584
2.35386119257087
2.2502443792766376
2.15347018572825
2.06158357771261
1.959921798631476
1.857282502443793
1.761485826001955
1.6764418377321604
1.6041055718475072
1.544477028347996
1.4965786901270772
1.4604105571847508
1.434017595307918
1.4164222873900294
1.4037145650048877
1.3958944281524928
1.392961876832845
1.391006842619746
1.3870967741935485
1.3812316715542523
1.3743890518084063
1.3665689149560116
1.3587487781036167
1.3509286412512218
1.343108504398827
1.335288367546432
1.327468230694037
1.3225806451612905
1.3196480938416422
1.313782991202346
1.3079178885630498
1.303030303030303
1.2991202346041055
1.295210166177908
1.2903225806451613
1.284457478005865
1.2776148582600195
1.270772238514174
1.2658846529814272
1.2639296187683284
1.2639296187683284
1.2619745845552297
1.2590420332355816
1.2561094819159335
1.252199413489736
1.2482893450635386
1.2443792766373412
1.238514173998045
1.2297165200391007
1.219941348973607
1.2072336265884651
1.1915933528836755
1.1808406647116323
1.1730205278592376
1.163245356793744
1.1583577712609971
1.164222873900293
1.1906158357771262
1.2443792766373412
1.3304007820136852
1.4594330400782014
1.619745845552297
1.7888563049853372
1.962854349951124
2.1114369501466275
2.2404692082111435
2.372434017595308
2.495601173020528
2.603128054740958
2.6930596285435
2.764418377321604
2.8181818181818183
2.857282502443793
2.884652981427175
2.903225806451613
2.9159335288367547
2.921798631476051
2.918866080156403
2.9120234604105573
2.9071358748778104
2.900293255131965
2.8905180840664717
2.875855327468231
2.854349951124145
2.825024437927664
2.787878787878788
2.7419354838709675
2.687194525904203
2.624633431085044
2.563049853372434
2.4995112414467253
2.4271749755620724
2.350928641251222
2.274682306940372
2.201368523949169
2.133919843597263
2.0733137829912023
2.0175953079178885
1.9696969696969695
1.9286412512218964
1.89247311827957
1.86119257086999
1.835777126099707
1.8132942326490715
1.7888563049853372
1.7634408602150538
1.7390029325513197
1.715542521994135
1.6920821114369502
1.667644183773216
1.643206256109482
1.6207233626588464
1.598240469208211
1.5757575757575757
1.5591397849462365
1.544477028347996
1.525904203323558
1.504398826979472
1.482893450635386
1.4604105571847508
1.4379276637341154
1.4164222873900294
1.3958944281524928
1.3782991202346042
1.3636363636363635
1.3499511241446724
1.3343108504398826
1.3225806451612905
1.3118279569892473
1.295210166177908
1.273704789833822
1.2482893450635386
1.2189638318670577
1.18475073313783
1.1505376344086022
1.1192570869990224
1.0918866080156402
1.067448680351906
1.0478983382209188
1.0371456500488758
1.0312805474095796
1.0224828934506354
1.0146627565982405
1.0097751710654936
1.0087976539589445
1.0175953079178883
1.0439882697947214
1.093841642228739
1.1730205278592376
1.2805474095796676
1.4115347018572826
1.5610948191593352
1.7008797653958945
1.8328445747800584
1.975562072336266
2.117302052785924
2.2482893450635384
2.363636363636364
2.462365591397849
2.544477028347996
2.610948191593353
2.6637341153470184
2.704789833822092
2.736070381231672
2.7536656891495603
2.764418377321604
2.777126099706745
2.790811339198436
2.8044965786901277
2.81622678396872
2.825024437927664
2.8299120234604107
2.8299120234604107
2.822091886608016
2.8044965786901277
2.776148582600196
2.736070381231672
2.689149560117302
2.634408602150537
2.5650048875855327
2.4838709677419355
2.396871945259042
2.3088954056695994
2.2238514173998043
2.145650048875855
2.0772238514174
2.0195503421309877
1.975562072336266
1.9442815249266865
1.924731182795699
1.9120234604105573
1.9012707722385145
1.8934506353861196
1.8885630498533723
1.8836754643206255
1.8778103616813293
1.870967741935484
1.8631476050830889
1.8523949169110456
1.8387096774193548
1.823069403714565
1.8035190615835777
1.7839687194525904
1.7653958944281525
1.7429130009775171
1.7174975562072337
1.689149560117302
1.6598240469208212
1.6314760508308896
1.603128054740958
1.573802541544477
1.544477028347996
1.517106549364614
1.490713587487781
1.4711632453567938
1.4545454545454546
1.435972629521017
1.418377321603128
1.401759530791789
1.3861192570869991
1.3714565004887584
1.3587487781036167
1.3470185728250244
1.3333333333333333
1.316715542521994
1.2991202346041055
1.2825024437927663
1.2717497556207231
1.262952101661779
1.252199413489736
1.2434017595307918
1.2355816226783969
1.227761485826002
1.2228739002932552
1.2258064516129032
1.2434017595307918
1.2825024437927663
1.348973607038123
1.4467253176930597
1.5532746823069403
1.672531769305963
1.8211143695014664
1.9853372434017595
2.1544477028347995
2.315738025415445
2.4613880742913
2.5865102639296187
2.6911045943304006
2.774193548387097
2.838709677419355
2.886608015640274
2.921798631476051
2.941348973607038
2.951124144672532
2.960899315738025
2.9687194525904204
2.972629521016618
