ppg
1.7517106549364614
1.7331378299120237
1.7135874877810362
1.6930596285434996
1.6715542521994136
1.6480938416422288
1.6226783968719452
1.595307917888563
1.5669599217986314
1.5376344086021505
1.512218963831867
1.487781036168133
1.4594330400782014
1.4301075268817205
1.4027370478983383
1.3773216031280548
1.3528836754643203
1.3304007820136852
1.3088954056695992
1.2883675464320623
1.2697947214076246
1.2531769305962854
1.241446725317693
1.2326490713587488
1.2209188660801564
1.209188660801564
1.1994134897360704
1.1896383186705768
1.1798631476050832
1.1720430107526882
1.1652003910068427
1.1583577712609971
1.152492668621701
1.1466275659824048
1.141739980449658
1.1397849462365592
1.1397849462365592
1.1378299120234605
1.1358748778103618
1.133919843597263
1.1319648093841643
1.1300097751710656
1.1280547409579669
1.126099706744868
1.1241446725317692
1.1202346041055715
1.115347018572825
1.1133919843597262
1.1114369501466277
1.1065493646138806
1.1016617790811338
1.096774193548387
1.0918866080156402
1.0879765395894427
1.0850439882697946
1.0821114369501466
1.0772238514173995
1.0713587487781036
1.067448680351906
1.0664711632453567
1.0713587487781036
1.086021505376344
1.1143695014662756
1.1622678396871946
1.2336265884652982
1.3304007820136852
1.452590420332356
1.598240469208211
1.761485826001955
1.9345063538611929
2.1094819159335287
2.27761485826002
2.412512218963832
2.5239491691104594
2.632453567937439
2.7282502443792764
2.8054740957966766
2.863147605083089
2.9012707722385143
2.9237536656891496
2.9335288367546437
2.932551319648094
2.920821114369501
2.8993157380254155
2.868035190615836
2.83088954056696
2.787878787878788
2.736070381231672
2.67644183773216
2.6080156402737047
2.5317693059628543
2.449657869012708
2.363636363636364
2.27761485826002
2.193548387096774
2.114369501466276
2.043010752688172
1.9843597262952104
1.9364613880742916
1.8914956011730208
1.8523949169110456
1.8191593352883677
1.7917888563049853
1.7644183773216031
1.7360703812316716
1.710654936461388
1.6852394916911049
1.6608015640273706
1.6373411534701858
1.6129032258064515
1.5913978494623655
1.5718475073313782
1.547409579667644
1.520039100684262
1.4916911045943304
1.4613880742913
1.4301075268817205
1.4007820136852396
1.3714565004887584
1.343108504398827
1.3147605083088951
1.2873900293255132
1.2658846529814272
1.24633431085044
1.224828934506354
1.203323558162268
1.1827956989247312
1.163245356793744
1.1466275659824048
1.1319648093841643
1.118279569892473
1.1055718475073313
1.093841642228739
1.0821114369501466
1.0713587487781036
1.0654936461388074
1.0606060606060606
1.053763440860215
1.0478983382209188
1.0420332355816226
1.0361681329423265
1.032258064516129
1.0283479960899315
1.0254154447702837
1.0234604105571847
1.021505376344086
1.018572825024438
1.0195503421309873
1.0234604105571847
1.024437927663734
1.0234604105571847
1.021505376344086
1.018572825024438
1.0156402737047898
1.013685239491691
1.0127077223851415
1.0117302052785924
1.0097751710654936
1.0068426197458455
1.0039100684261977
1.0039100684261977
1.0058651026392962
1.0048875855327468
1.002932551319648
1.0009775171065494
0.9990224828934506
0.9990224828934506
1.0009775171065494
1.007820136852395
1.0234604105571847
1.053763440860215
1.1055718475073313
1.1681329423264908
1.24633431085044
1.3577712609970674
1.4965786901270772
1.6588465298142718
1.8377321603128052
2.022482893450636
2.206256109481916
2.3792766373411536
2.533724340175953
2.667644183773216
2.777126099706745
2.86217008797654
2.9159335288367547
2.946236559139785
2.967741935483871
2.9775171065493646
2.9765395894428157
2.963831867057673
2.940371456500489
2.9071358748778104
2.865102639296188
2.8152492668621703
2.7565982404692084
2.6881720430107525
2.618768328445748
2.547409579667644
2.4652981427174976
2.378299120234604
2.290322580645161
2.204301075268817
2.124144672531769
2.050830889540567
1.986314760508309
1.9315738025415443
1.8856304985337244
1.847507331378299
1.81524926686217
1.7898338220918866
1.76930596285435
1.7497556207233629
1.7302052785923754
1.710654936461388
1.6901270772238517
1.667644183773216
1.6441837732160314
1.6187683284457477
1.5923753665689149
1.5650048875855327
1.5347018572825024
1.509286412512219
1.4858260019550342
1.4594330400782014
1.4320625610948192
1.404692082111437
1.375366568914956
1.346041055718475
1.3176930596285434
1.29227761485826
1.267839687194526
1.2443792766373412
1.2238514173998043
1.2101661779081134
1.1994134897360704
1.1867057673509287
1.173998044965787
1.160312805474096
1.147605083088954
1.1368523949169111
1.1280547409579669
1.121212121212121
1.1143695014662756
1.1085043988269794
1.1036168132942326
1.0987292277614855
1.0957966764418376
1.0948191593352885
1.0909090909090908
1.086021505376344
1.0821114369501466
1.0791788856304985
1.0772238514173995
1.0762463343108504
1.075268817204301
1.0742913000977516
1.072336265884653
1.0703812316715542
1.0703812316715542
1.0713587487781036
1.0713587487781036
1.0703812316715542
1.0694037145650048
1.0684261974584557
1.0684261974584557
1.0684261974584557
1.0684261974584557
1.0684261974584557
1.0684261974584557
1.0684261974584557
1.0684261974584557
1.0694037145650048
1.0703812316715542
1.067448680351906
1.064516129032258
1.0635386119257086
1.067448680351906
1.0821114369501466
1.1114369501466277
1.1612903225806452
1.2375366568914956
1.3401759530791788
1.4672531769305963
1.5943304007820136
1.7272727272727273
1.889540566959922
2.0635386119257086
2.236559139784946
2.39980449657869
2.5464320625610948
2.6715542521994133
2.7751710654936463
2.855327468230694
2.9120234604105573
2.948191593352884
2.967741935483871
2.9687194525904204
2.956011730205278
2.93841642228739
2.913000977517106
2.8797653958944283
2.8367546432062563
2.7839687194525906
2.724340175953079
2.656891495601173
2.581622678396872
2.5004887585532747
2.41544477028348
2.337243401759531
2.2639296187683287
2.187683284457478
2.114369501466276
2.046920821114369
1.9872922776148585
1.935483870967742
1.8934506353861196
1.8602150537634408
1.833822091886608
1.8113391984359728
1.7917888563049853
1.7732160312805474
1.758553274682307
1.7448680351906158
1.7272727272727273
1.7057673509286413
1.6813294232649072
1.6549364613880744
1.6256109481915937
1.5943304007820136
1.563049853372434
1.530791788856305
1.498533724340176
1.4643206256109482
1.4349951124144673
1.4086021505376345
1.3792766373411536
1.3479960899315735
1.3176930596285434
1.2873900293255132
1.2580645161290325
1.2316715542521994
1.2082111436950147
1.1867057673509287
1.1652003910068427
1.1456500488758554
1.1290322580645162
1.1173020527859236
1.1094819159335287
1.099706744868035
1.0909090909090908
1.083088954056696
1.075268817204301
1.067448680351906
1.0606060606060606
1.0527859237536656
1.0439882697947214
1.0371456500488758
1.032258064516129
1.0312805474095796
1.032258064516129
1.032258064516129
1.032258064516129
1.032258064516129
1.032258064516129
1.032258064516129
1.032258064516129
1.032258064516129
1.0312805474095796
1.029325513196481
1.0273704789833822
1.024437927663734
1.024437927663734
1.0263929618768328
1.0254154447702837
1.0234604105571847
1.0205278592375366
1.0156402737047898
1.0097751710654936
1.0039100684261977
0.9980449657869012
0.9921798631476052
0.989247311827957
0.9921798631476052
1.0039100684261977
1.0263929618768328
1.0664711632453567
1.1290322580645162
1.219941348973607
1.3391984359726294
1.4858260019550342
1.6549364613880744
1.839687194525904
2.0283479960899315
2.2140762463343107
2.389051808406647
2.5464320625610948
2.664711632453568
2.7536656891495603
2.835777126099707
2.903225806451613
2.95405669599218
2.988269794721408
3.007820136852395
3.0146627565982405
3.010752688172043
2.9960899315738025
2.9716520039100685
2.9374389051808407
2.8963831867057674
2.84652981427175
2.7869012707722387
2.718475073313783
2.6402737047898337
2.555229716520039
2.464320625610948
2.372434017595308
2.281524926686217
2.193548387096774
2.1114369501466275
2.038123167155425
1.9745845552297163
1.9237536656891496
1.8826979472140764
1.8465298142717497
1.8132942326490715
1.7839687194525904
1.7595307917888563
1.7360703812316716
1.7116324535679377
1.6871945259042034
1.6637341153470186
1.640273704789834
1.616813294232649
1.5962854349951123
1.5757575757575757
1.552297165200391
1.525904203323558
1.4965786901270772
1.4652981427174976
1.4330400782013686
1.401759530791789
1.3714565004887584
1.3440860215053765
1.3186705767350928
1.2942326490713587
1.270772238514174
1.252199413489736
1.2375366568914956
1.2218963831867058
1.2052785923753666
1.1896383186705768
1.1749755620723363
1.160312805474096
1.1456500488758554
1.1319648093841643
1.1192570869990224
1.1055718475073313
1.0909090909090908
1.0811339198435972
1.0713587487781036
1.0576735092864125
1.0420332355816226
1.0254154447702837
1.0087976539589445
0.9921798631476052
0.9765395894428152
0.9618768328445748
0.9491691104594332
0.9393939393939394
0.9315738025415444
0.9286412512218964
0.9286412512218964
0.927663734115347
0.9286412512218964
0.9325513196480938
0.9374389051808406
0.9433040078201368
0.9501466275659824
0.959921798631476
0.9716520039100685
0.9853372434017597
0.9990224828934506
1.0127077223851415
1.0263929618768328
1.040078201368524
1.0527859237536656
1.064516129032258
1.0762463343108504
1.0879765395894427
1.099706744868035
1.110459433040078
1.1202346041055715
1.1280547409579669
1.133919843597263
1.1397849462365592
1.1485826001955035
1.1622678396871946
1.1857282502443791
1.2238514173998043
1.2825024437927663
1.3655913978494625
1.4760508308895406
1.6138807429130009
1.772238514173998
1.945259042033236
2.1251221896383186
2.302052785923754
2.469208211143695
2.6021505376344085
2.7067448680351904
2.8054740957966766
2.8905180840664717
2.9579667644183774
3.006842619745845
3.038123167155425
3.0557184750733137
3.059628543499511
3.0527859237536656
3.034213098729228
3.005865102639296
2.9696969696969697
2.9257086999022484
2.8719452590420333
2.809384164222874
2.73802541544477
2.659824046920821
2.575757575757576
2.487781036168133
2.396871945259042
2.3088954056695994
2.2248289345063537
2.147605083088954
2.0791788856304985
2.0234604105571847
1.9794721407624636
1.9413489736070384
1.9090909090909087
1.8826979472140764
1.86119257086999
1.842619745845552
1.825024437927664
1.8074291300097751
1.7888563049853372
1.76930596285435
1.747800586510264
1.726295210166178
1.704789833822092
1.6793743890518085
1.6520039100684265
1.6226783968719452
1.5923753665689149
1.560117302052786
1.5268817204301075
1.4946236559139785
1.4613880742913
1.4291300097751711
1.3998044965786902
1.3724340175953078
1.3499511241446724
1.3304007820136852
1.3088954056695992
1.2873900293255132
1.2658846529814272
1.2443792766373412
1.224828934506354
1.206256109481916
1.1886608015640274
1.1730205278592376
1.1573802541544478
1.1436950146627567
1.133919843597263
1.126099706744868
1.1192570869990224
1.1124144672531768
1.1065493646138806
1.1006842619745845
1.0948191593352885
1.088954056695992
1.083088954056696
1.0772238514173995
1.0713587487781036
1.0654936461388074
1.0606060606060606
1.0586510263929618
1.0576735092864125
1.053763440860215
1.0478983382209188
1.0420332355816226
1.0361681329423265
1.032258064516129
1.0283479960899315
1.0234604105571847
1.018572825024438
1.0146627565982405
1.010752688172043
1.010752688172043
1.0117302052785924
1.0087976539589445
1.0048875855327468
1.0019550342130987
0.9990224828934506
0.997067448680352
0.997067448680352
1.0048875855327468
1.024437927663734
1.0625610948191593
1.1241446725317692
1.2150537634408602
1.3147605083088951
1.4281524926686218
1.5757575757575757
1.7458455522971652
1.9286412512218964
2.112414467253177
2.278592375366569
2.4222873900293256
2.549364613880743
2.656891495601173
2.7438905180840663
2.8103616813294234
2.850439882697948
2.8719452590420333
2.886608015640274
2.8905180840664717
2.8856304985337244
2.870967741935484
2.8475073313782997
2.8152492668621703
2.7751710654936463
2.727272727272727
2.6695992179863146
2.603128054740958
2.5288367546432062
2.4574780058651027
2.386119257086999
2.3069403714565007
2.2248289345063537
2.145650048875855
2.069403714565005
2.0
1.9393939393939397
1.8885630498533723
1.8455522971652003
1.8103616813294232
1.7820136852394917
1.7605083088954057
1.7419354838709675
1.7233626588465298
1.704789833822092
1.6852394916911049
1.664711632453568
1.643206256109482
1.6217008797653958
1.5992179863147604
1.5747800586510263
1.5483870967741935
1.521016617790811
1.4916911045943304
1.466275659824047
1.4457478005865103
1.423264907135875
1.3998044965786902
1.3763440860215057
1.35386119257087
1.3313782991202343
1.3088954056695992
1.2854349951124144
1.2619745845552297
1.238514173998045
1.2160312805474096
1.2013685239491692
1.1896383186705768
1.1759530791788857
1.1612903225806452
1.147605083088954
1.133919843597263
1.1202346041055715
1.1065493646138806
1.093841642228739
1.083088954056696
1.072336265884653
1.0635386119257086
1.0576735092864125
1.0547409579667644
1.0488758553274682
1.0420332355816226
1.0342130987292275
1.0273704789833822
1.0224828934506354
1.018572825024438
1.0156402737047898
1.013685239491691
1.0127077223851415
1.0127077223851415
1.0127077223851415
1.0166177908113392
1.021505376344086
1.0254154447702837
1.0283479960899315
1.0303030303030305
1.0312805474095796
1.0303030303030305
1.029325513196481
1.029325513196481
1.0283479960899315
1.0263929618768328
1.0234604105571847
1.0234604105571847
1.0254154447702837
1.0254154447702837
1.0283479960899315
1.040078201368524
1.0664711632453567
1.1114369501466277
1.1798631476050832
1.2746823069403714
1.3949169110459434
1.5366568914956011
1.6950146627565983
1.8631476050830889
2.0097751710654936
2.142717497556207
2.283479960899316
2.418377321603128
2.5376344086021505
2.638318670576735
2.716520039100684
2.774193548387097
2.8132942326490715
2.835777126099707
2.843597262952102
2.8377321603128056
2.8211143695014664
2.795698924731183
2.7614858260019552
2.719452590420332
2.670576735092864
2.6148582600195502
2.550342130987292
2.4789833822091887
2.4027370478983383
2.32355816226784
2.244379276637341
2.167155425219941
2.0957966764418376
2.0361681329423265
1.986314760508309
1.9403714565004888
1.9012707722385145
1.8699902248289344
1.8465298142717497
1.827956989247312
1.8132942326490715
1.7996089931573802
1.7859237536656891
1.7732160312805474
1.758553274682307
1.7429130009775171
1.726295210166178
1.7067448680351909
1.686217008797654
1.6637341153470186
1.6392961876832846
1.6148582600195502
1.5884652981427174
1.5610948191593352
1.5327468230694037
1.5034213098729228
1.474095796676442
1.4457478005865103
1.4213098729227762
1.3998044965786902
1.3763440860215057
1.35386119257087
1.3313782991202343
1.3088954056695992
1.2883675464320623
1.270772238514174
1.2561094819159335
1.2453567937438903
1.2355816226783969
1.2267839687194526
1.2209188660801564
1.217008797653959
1.2101661779081134
1.203323558162268
1.1964809384164223
1.1896383186705768
1.1827956989247312
1.1749755620723363
1.166177908113392
1.1573802541544478
1.147605083088954
1.13880742913001
1.130987292277615
1.1270772238514175
1.1251221896383188
1.121212121212121
1.1173020527859236
1.1124144672531768
1.10752688172043
1.1036168132942326
1.1006842619745845
1.0987292277614855
1.0977517106549364
1.0987292277614855
1.1006842619745845
1.104594330400782
1.1094819159335287
1.1124144672531768
1.1143695014662756
1.115347018572825
1.115347018572825
1.115347018572825
1.1163245356793745
1.1202346041055715
1.130987292277615
1.152492668621701
1.1906158357771262
1.2502443792766371
1.3196480938416422
1.4037145650048877
1.5180840664711632
1.6559139784946235
1.8103616813294232
1.9745845552297163
2.139784946236559
2.2991202346041058
2.444770283479961
2.570869990224829
2.675464320625611
2.758553274682307
2.8132942326490715
2.84652981427175
2.8719452590420333
2.8856304985337244
2.8885630498533725
2.8826979472140764
2.868035190615836
2.8426197458455524
2.809384164222874
2.768328445747801
2.719452590420332
2.66177908113392
2.598240469208211
2.5347018572825024
2.469208211143695
2.3949169110459434
2.3167155425219943
2.236559139784946
2.158357771260997
2.083088954056696
2.01564027370479
1.956989247311828
1.9071358748778104
1.866080156402737
1.8318670576735088
1.8054740957966764
1.7859237536656891
1.7673509286412512
1.7487781036168133
1.729227761485826
1.7096774193548387
1.6881720430107527
1.664711632453568
1.640273704789834
1.6158357771260996
1.5894428152492668
1.5620723362658846
1.5347018572825024
1.5161290322580645
1.501466275659824
1.478983382209189
1.452590420332356
1.4242424242424243
1.396871945259042
1.370478983382209
1.3440860215053765
1.3186705767350928
1.2942326490713587
1.2727272727272727
1.2531769305962854
1.2394916911045943
1.2287390029325511
1.2160312805474096
1.203323558162268
1.1925708699902249
1.1827956989247312
1.173998044965787
1.1671554252199414
1.160312805474096
1.1544477028347997
1.1485826001955035
1.142717497556207
1.1368523949169111
1.133919843597263
1.1319648093841643
1.1280547409579669
1.121212121212121
1.1143695014662756
1.1085043988269794
1.1026392961876832
1.099706744868035
1.0987292277614855
1.0987292277614855
1.0987292277614855
1.0987292277614855
1.1006842619745845
1.1016617790811338
1.099706744868035
1.096774193548387
1.093841642228739
1.0909090909090908
1.0879765395894427
1.0850439882697946
1.0821114369501466
1.078201368523949
1.0742913000977516
1.0694037145650048
1.067448680351906
1.067448680351906
1.067448680351906
1.0703812316715542
1.0801564027370478
1.1026392961876832
1.142717497556207
1.206256109481916
1.2991202346041055
1.4203323558162269
1.565982404692082
1.7331378299120237
1.9120234604105573
2.070381231671554
2.21505376344086
2.372434017595308
2.5268817204301075
2.6666666666666665
2.7859237536656893
2.8826979472140764
2.956011730205278
3.005865102639296
3.0361681329423265
3.050830889540567
3.0527859237536656
3.042033235581622
3.021505376344086
2.995112414467253
2.960899315738025
2.918866080156403
2.868035190615836
2.807429130009776
2.73802541544477
2.66177908113392
2.578690127077224
2.490713587487781
2.4027370478983383
2.318670576735093
2.24633431085044
2.182795698924731
2.120234604105572
2.064516129032258
2.0175953079178885
1.978494623655914
1.946236559139785
1.920821114369501
1.8993157380254155
1.8797653958944285
1.86119257086999
1.842619745845552
1.826001955034213
1.8093841642228736
1.790811339198436
1.7702834799608993
1.7468230694037146
1.721407624633431
1.6930596285434996
1.6637341153470186
1.632453567937439
1.5992179863147604
1.564027370478983
1.530791788856305
1.500488758553275
1.4760508308895406
1.455522971652004
1.4320625610948192
1.4086021505376345
1.3851417399804498
1.3616813294232648
1.33822091886608
1.316715542521994
1.2981427174975562
1.281524926686217
1.267839687194526
1.2561094819159335
1.249266862170088
1.2443792766373412
1.2375366568914956
1.2297165200391007
1.2209188660801564
1.2130987292277615
1.2052785923753666
1.198435972629521
1.1915933528836755
1.1867057673509287
1.1827956989247312
1.1788856304985338
1.173998044965787
1.1710654936461389
1.1700879765395895
1.1681329423264908
1.1671554252199414
1.166177908113392
1.166177908113392
1.1652003910068427
1.163245356793744
1.160312805474096
1.155425219941349
1.1505376344086022
1.1466275659824048
1.1456500488758554
1.1456500488758554
1.142717497556207
1.1397849462365592
1.1368523949169111
1.1319648093841643
1.1270772238514175
1.1221896383186705
1.1202346041055715
1.1231671554252198
1.1358748778103618
1.1612903225806452
1.2052785923753666
1.260019550342131
1.3313782991202343
1.435972629521017
1.5698924731182795
1.7272727272727273
1.9012707722385145
2.083088954056696
2.2639296187683287
2.4349951124144678
2.5884652981427174
2.721407624633431
2.83088954056696
2.906158357771261
2.9550342130987293
2.9960899315738025
3.024437927663734
3.0391006842619745
3.042033235581622
3.035190615835777
3.016617790811339
2.988269794721408
2.9501466275659824
2.903225806451613
2.8475073313782997
2.7839687194525906
2.719452590420332
2.6510263929618767
2.572825024437928
2.487781036168133
2.40078201368524
2.315738025415445
2.233626588465298
2.157380254154448
2.0879765395894427
2.027370478983382
1.9745845552297163
1.9315738025415443
1.8973607038123168
1.869012707722385
1.8435972629521016
1.8211143695014664
1.7996089931573802
1.7790811339198436
1.758553274682307
1.737047898338221
1.7145650048875856
1.6911045943304008
1.664711632453568
1.6363636363636365
1.607038123167155
1.5806451612903225
1.555229716520039
1.5268817204301075
1.498533724340176
1.4701857282502444
1.4408602150537635
1.412512218963832
1.3841642228739004
1.3587487781036167
1.3343108504398826
1.310850439882698
1.289345063538612
1.2727272727272727
1.2590420332355816
1.241446725317693
1.2238514173998043
1.206256109481916
1.1906158357771262
1.176930596285435
1.164222873900293
1.1534701857282503
1.144672531769306
1.1378299120234605
1.1319648093841643
1.1270772238514175
1.0127077223851415
1.0117302052785924
1.010752688172043
1.0127077223851415
1.0205278592375366
1.0391006842619743
1.0742913000977516
1.1319648093841643
1.2160312805474096
1.3284457478005864
1.4672531769305963
1.6275659824046922
1.7790811339198436
1.9257086999022484
2.0928641251221896
2.26197458455523
2.420332355816227
2.5610948191593352
2.6803519061583576
2.777126099706745
2.8514173998044967
2.905180840664712
2.940371456500489
2.9589442815249267
2.959921798631476
2.949169110459433
2.932551319648094
2.90811339198436
2.874877810361681
2.833822091886608
2.7839687194525906
2.7253176930596283
2.656891495601173
2.581622678396872
2.4995112414467253
2.4144672531769307
2.3274682306940373
2.2502443792766376
2.179863147605083
2.10850439882698
2.0410557184750733
1.9804496578690127
1.927663734115347
1.8836754643206255
1.8484848484848484
1.818181818181818
1.7927663734115349
1.7702834799608993
1.7497556207233629
1.732160312805474
1.7135874877810362
1.6901270772238517
1.6637341153470186
1.6334310850439884
1.5992179863147604
1.564027370478983
1.5288367546432062
1.4926686217008798
1.456500488758553
1.4203323558162269
1.3841642228739004
1.348973607038123
1.3206256109481915
1.295210166177908
1.2668621700879763
1.2394916911045943
1.2140762463343109
1.1925708699902249
1.1749755620723363
1.160312805474096
1.1485826001955035
1.1397849462365592
1.133919843597263
1.130987292277615
1.130987292277615
1.130987292277615
1.130987292277615
1.1329423264907137
1.1358748778103618
1.1397849462365592
1.1456500488758554
1.152492668621701
1.160312805474096
1.1671554252199414
1.1730205278592376
1.1788856304985338
1.1837732160312806
1.1896383186705768
1.1945259042033236
1.198435972629521
1.2003910068426198
1.1994134897360704
1.195503421309873
1.1896383186705768
1.181818181818182
1.1720430107526882
1.160312805474096
1.1485826001955035
1.1368523949169111
1.1290322580645162
1.1241446725317692
1.1173020527859236
1.110459433040078
1.1065493646138806
1.1085043988269794
1.121212121212121
1.1505376344086022
1.203323558162268
1.2805474095796676
1.3841642228739004
1.5141739980449658
1.667644183773216
1.8142717497556209
1.9579667644183771
2.12316715542522
2.2932551319648096
2.458455522971652
2.6099706744868034
2.739980449657869
2.84652981427175
2.9286412512218964
2.986314760508309
3.021505376344086
3.0361681329423265
3.03128054740958
3.0127077223851417
2.98435972629521
2.946236559139785
2.897360703812317
2.8377321603128056
2.766373411534702
2.684261974584555
2.5943304007820136
2.4975562072336266
2.3958944281524928
2.29227761485826
2.189638318670577
2.099706744868035
2.021505376344086
1.946236559139785
1.8778103616813293
1.818181818181818
