ppg
1.9178885630498532
2.10850439882698
2.2991202346041058
2.463343108504399
2.58455522971652
2.654936461388074
2.674486803519061
2.650048875855328
2.593352883675464
2.512218963831867
2.4164222873900294
2.312805474095797
2.218963831867057
2.131964809384164
2.0391006842619745
1.949169110459433
1.866080156402737
1.7917888563049853
1.726295210166178
1.6705767350928642
1.6265884652981428
1.5933528836754642
1.5669599217986314
1.5454545454545454
1.5298142717497556
1.517106549364614
1.504398826979472
1.4946236559139785
1.4887585532746823
1.487781036168133
1.4946236559139785
1.5102639296187683
1.5347018572825024
1.5679374389051808
1.607038123167155
1.6500488758553276
1.6871945259042034
1.7204301075268815
1.75366568914956
1.7839687194525904
1.8064516129032255
1.8191593352883677
1.822091886608016
1.81524926686217
1.7986314760508308
1.7732160312805474
1.7409579667644184
1.7038123167155426
1.6637341153470186
1.6265884652981428
1.5913978494623655
1.552297165200391
1.5112414467253177
1.4731182795698925
1.436950146627566
1.401759530791789
1.3695014662756595
1.3411534701857282
1.316715542521994
1.295210166177908
1.2766373411534702
1.262952101661779
1.2531769305962854
1.2424242424242424
1.2316715542521994
1.2209188660801564
1.2121212121212122
1.206256109481916
1.2023460410557183
1.1994134897360704
1.198435972629521
1.2003910068426198
1.2043010752688172
1.209188660801564
1.2160312805474096
1.2258064516129032
1.2365591397849462
1.2482893450635386
1.260019550342131
1.2717497556207231
1.2834799608993157
1.295210166177908
1.305962854349951
1.3157380254154447
1.3255131964809383
1.3343108504398826
1.3401759530791788
1.343108504398827
1.3391984359726294
1.3304007820136852
1.3196480938416422
1.3128054740957966
1.3206256109481915
1.356793743890518
1.4320625610948192
1.5532746823069403
1.718475073313783
1.9159335288367547
2.1280547409579667
2.3069403714565007
2.4516129032258065
2.579667644183773
2.668621700879765
2.710654936461388
2.705767350928641
2.66177908113392
2.589442815249267
2.4975562072336266
2.3949169110459434
2.2883675464320627
2.1837732160312804
2.0928641251221896
2.0097751710654936
1.9257086999022484
1.8465298142717497
1.775171065493646
1.7135874877810362
1.6627565982404693
1.6226783968719452
1.5923753665689149
1.56891495601173
1.5493646138807429
1.533724340175953
1.520039100684262
1.5102639296187683
1.504398826979472
1.501466275659824
1.5063538611925709
1.521016617790811
1.544477028347996
1.5757575757575757
1.6138807429130009
1.6578690127077225
1.7038123167155426
1.750733137829912
1.7947214076246334
1.828934506353861
1.855327468230694
1.87683284457478
1.8905180840664717
1.8944281524926687
1.8875855327468232
1.870967741935484
1.8465298142717497
1.81524926686217
1.7781036168132942
1.737047898338221
1.694037145650049
1.6500488758553276
1.6129032258064515
1.5806451612903225
1.5454545454545454
1.5102639296187683
1.478005865102639
1.4467253176930597
1.418377321603128
1.393939393939394
1.3714565004887584
1.3499511241446724
1.3304007820136852
1.313782991202346
1.303030303030303
1.2971652003910068
1.2913000977517106
1.2873900293255132
1.2854349951124144
1.284457478005865
1.2854349951124144
1.2883675464320623
1.2932551319648091
1.300097751710655
1.3079178885630498
1.316715542521994
1.3255131964809383
1.3343108504398826
1.343108504398827
1.35386119257087
1.3655913978494625
1.3773216031280548
1.388074291300098
1.396871945259042
1.404692082111437
1.4105571847507332
1.412512218963832
1.409579667644184
1.4027370478983383
1.3949169110459434
1.3890518084066472
1.388074291300098
1.404692082111437
1.4506353861192571
1.5356793743890518
1.6637341153470186
1.8328445747800584
2.027370478983382
2.2277614858260018
2.412512218963832
2.5620723362658846
2.6637341153470184
2.713587487781036
2.718475073313783
2.687194525904203
2.624633431085044
2.539589442815249
2.439882697947214
2.332355816226784
2.222873900293255
2.115347018572825
2.0117302052785924
1.9149560117302051
1.826001955034213
1.7546432062561097
1.696969696969697
1.643206256109482
1.595307917888563
1.5542521994134897
1.5190615835777126
1.4916911045943304
1.469208211143695
1.4506353861192571
1.435972629521017
1.4252199413489737
1.4213098729227762
1.4271749755620724
1.4389051808406648
1.457478005865103
1.4858260019550342
1.5239491691104594
1.56891495601173
1.6177908113391983
1.6686217008797657
1.7165200391006843
1.7595307917888563
1.7947214076246334
1.818181818181818
1.8299120234604105
1.8318670576735088
1.8240469208211143
1.8064516129032255
1.780058651026393
1.747800586510264
1.7086999022482894
1.6656891495601174
1.6207233626588464
1.5757575757575757
1.5317693059628543
1.487781036168133
1.4457478005865103
1.4076246334310851
1.3773216031280548
1.3509286412512218
1.3225806451612905
1.2961876832844574
1.270772238514174
1.2473118279569892
1.227761485826002
1.2111436950146628
1.1974584555229717
1.1867057673509287
1.1788856304985338
1.1730205278592376
1.1720430107526882
1.173998044965787
1.176930596285435
1.1798631476050832
1.1837732160312806
1.1896383186705768
1.1964809384164223
1.203323558162268
1.2111436950146628
1.219941348973607
1.2287390029325511
1.238514173998045
1.249266862170088
1.2609970674486803
1.2727272727272727
1.2854349951124144
1.2971652003910068
1.3069403714565004
1.3147605083088951
1.3186705767350928
1.3176930596285434
1.3118279569892473
1.3020527859237536
1.2913000977517106
1.2873900293255132
1.295210166177908
1.3235581622678396
1.388074291300098
1.4975562072336266
1.6520039100684265
1.8435972629521016
2.0557184750733137
2.267839687194526
2.455522971652004
2.60019550342131
2.6911045943304006
2.7282502443792764
2.7223851417399803
2.684261974584555
2.6158357771261
2.527859237536657
2.426197458455523
2.318670576735093
2.209188660801564
2.102639296187683
2.002932551319648
1.9100684261974583
1.826001955034213
1.7526881720430108
1.6901270772238517
1.643206256109482
1.6080156402737047
1.5777126099706744
1.5532746823069403
1.5327468230694037
1.5161290322580645
1.5034213098729228
1.4936461388074291
1.4868035190615836
1.4848484848484849
1.4887585532746823
1.499511241446725
1.5161290322580645
1.5386119257087
1.5718475073313782
1.6138807429130009
1.6608015640273706
1.70772238514174
1.750733137829912
1.7888563049853372
1.818181818181818
1.8377321603128052
1.8484848484848484
1.8494623655913975
1.839687194525904
1.822091886608016
1.7996089931573802
1.7702834799608993
1.7350928641251222
1.6959921798631477
1.6549364613880744
1.6138807429130009
1.5728250244379276
1.5327468230694037
1.4946236559139785
1.457478005865103
1.4222873900293256
1.3958944281524928
1.3734115347018572
1.3499511241446724
1.3284457478005864
1.3079178885630498
1.289345063538612
1.273704789833822
1.260019550342131
1.2473118279569892
1.2375366568914956
1.2297165200391007
1.2228739002932552
1.2189638318670577
1.2189638318670577
1.2218963831867058
1.2258064516129032
1.2326490713587488
1.2424242424242424
1.2531769305962854
1.2649071358748778
1.2766373411534702
1.2873900293255132
1.2981427174975562
1.3088954056695992
1.3196480938416422
1.3294232649071358
1.33822091886608
1.3479960899315735
1.356793743890518
1.364613880742913
1.3685239491691104
1.367546432062561
1.3607038123167154
1.3509286412512218
1.343108504398827
1.348973607038123
1.3792766373411536
1.447702834799609
1.5366568914956011
1.656891495601173
1.8318670576735088
2.042033235581622
2.2639296187683287
2.469208211143695
2.635386119257087
2.7497556207233624
2.8084066471163247
2.8132942326490715
2.7722385141739982
2.6989247311827955
2.6158357771261
2.5249266862170088
2.418377321603128
2.304985337243402
2.1925708699902247
2.085043988269794
1.9843597262952104
1.89247311827957
1.8093841642228736
1.7380254154447703
1.6793743890518085
1.6334310850439884
1.5962854349951123
1.5679374389051808
1.5464320625610948
1.5268817204301075
1.5102639296187683
1.4965786901270772
1.487781036168133
1.4848484848484849
1.490713587487781
1.5053763440860215
1.530791788856305
1.5669599217986314
1.6129032258064515
1.656891495601173
1.699902248289345
1.7487781036168133
1.8201368523949168
1.8621700879765395
1.895405669599218
1.9286412512218964
1.927663734115347
1.913978494623656
1.8563049853372435
1.8191593352883677
1.7820136852394917
1.7204301075268815
1.6735092864125125
1.6256109481915937
1.5777126099706744
1.5083088954056696
1.4643206256109482
1.4222873900293256
1.3665689149560116
1.335288367546432
1.3118279569892473
1.2942326490713587
1.2756598240469208
1.2570869990224829
1.2394916911045943
1.2238514173998043
1.2111436950146628
1.2013685239491692
1.195503421309873
1.1915933528836755
1.1906158357771262
1.1925708699902249
1.1964809384164223
1.2023460410557183
1.209188660801564
1.2160312805474096
1.224828934506354
1.2355816226783969
1.24633431085044
1.2580645161290325
1.2697947214076246
1.281524926686217
1.29227761485826
1.3020527859237536
1.310850439882698
1.3176930596285434
1.3235581622678396
1.3255131964809383
1.3225806451612905
1.313782991202346
1.303030303030303
1.2971652003910068
1.3079178885630498
1.346041055718475
1.4164222873900294
1.5278592375366569
1.6813294232649072
1.868035190615836
2.043010752688172
2.2023460410557183
2.3655913978494625
2.5024437927663734
2.595307917888563
2.6402737047898337
2.6402737047898337
2.601173020527859
2.5317693059628543
2.444770283479961
2.347018572825025
2.2453567937438903
2.1544477028347995
2.070381231671554
1.9824046920821117
1.8963831867057677
1.8162267839687196
1.7458455522971652
1.6852394916911049
1.6344086021505375
1.5943304007820136
1.5620723362658846
1.5376344086021505
1.5180840664711632
1.504398826979472
1.4936461388074291
1.482893450635386
1.4750733137829912
1.4711632453567938
1.4731182795698925
1.482893450635386
1.501466275659824
1.5288367546432062
1.564027370478983
1.6041055718475072
1.64613880742913
1.6881720430107527
1.7233626588465298
1.7517106549364614
1.7781036168132942
1.7986314760508308
1.8103616813294232
1.8113391984359728
1.8025415444770283
1.7839687194525904
1.758553274682307
1.726295210166178
1.689149560117302
1.6480938416422288
1.6109481915933528
1.576735092864125
1.5395894428152492
1.5024437927663734
1.466275659824047
1.4320625610948192
1.3988269794721409
1.3665689149560116
1.3362658846529814
1.3098729227761483
1.2864125122189638
1.2668621700879763
1.2502443792766371
1.2394916911045943
1.2316715542521994
1.2238514173998043
1.217008797653959
1.2121212121212122
1.2082111436950147
1.2052785923753666
1.2043010752688172
1.206256109481916
1.2111436950146628
1.217008797653959
1.2228739002932552
1.2297165200391007
1.2394916911045943
1.2502443792766371
1.2609970674486803
1.2717497556207231
1.2834799608993157
1.295210166177908
1.305962854349951
1.3157380254154447
1.3235581622678396
1.3284457478005864
1.3313782991202343
1.3304007820136852
1.327468230694037
1.3225806451612905
1.3147605083088951
1.3079178885630498
1.3098729227761483
1.3333333333333333
1.391006842619746
1.4897360703812317
1.6314760508308896
1.812316715542522
2.01564027370479
2.219941348973607
2.3841642228739004
2.5083088954056696
2.608993157380254
2.6695992179863146
2.684261974584555
2.656891495601173
2.5962854349951123
2.5131964809384164
2.4164222873900294
2.312805474095797
2.2082111436950145
2.1055718475073317
2.007820136852395
1.9266862170087975
1.857282502443793
1.7898338220918866
1.7282502443792769
1.6744868035190617
1.6304985337243405
1.5962854349951123
1.56891495601173
1.5464320625610948
1.5288367546432062
1.5151515151515151
1.5053763440860215
1.498533724340176
1.495601173020528
1.498533724340176
1.5083088954056696
1.525904203323558
1.5513196480938416
1.58455522971652
1.6256109481915937
1.6705767350928642
1.715542521994135
1.758553274682307
1.796676441837732
1.827956989247312
1.847507331378299
1.857282502443793
1.8592375366568916
1.8523949169110456
1.836754643206256
1.81524926686217
1.7878787878787878
1.7556207233626588
1.7204301075268815
1.6823069403714566
1.643206256109482
1.6041055718475072
1.5708699902248289
1.5405669599217986
1.5073313782991202
1.4731182795698925
1.4408602150537635
1.4115347018572826
1.3841642228739004
1.3587487781036167
1.3372434017595307
1.3176930596285434
1.3020527859237536
1.2883675464320623
1.2776148582600195
1.270772238514174
1.2668621700879763
1.2639296187683284
1.2619745845552297
1.2609970674486803
1.2619745845552297
1.2658846529814272
1.270772238514174
1.278592375366569
1.2883675464320623
1.3010752688172045
1.3147605083088951
1.3284457478005864
1.3411534701857282
1.3548387096774193
1.3685239491691104
1.3822091886608017
1.393939393939394
1.4037145650048877
1.4115347018572826
1.4173998044965788
1.4203323558162269
1.4193548387096775
1.4134897360703813
1.4066471163245358
1.4027370478983383
1.4086021505376345
1.434017595307918
1.4897360703812317
1.58455522971652
1.7223851417399805
1.895405669599218
2.088954056695992
2.283479960899316
2.4574780058651027
2.593352883675464
2.681329423264907
2.720430107526881
2.717497556207233
2.6803519061583576
2.6129032258064515
2.5239491691104594
2.423264907135875
2.317693059628544
2.210166177908113
2.103616813294233
2.0009775171065494
1.9042033235581624
1.8162267839687196
1.7380254154447703
1.6774193548387095
1.629521016617791
1.58455522971652
1.5454545454545454
1.512218963831867
1.4838709677419355
1.4604105571847508
1.4418377321603129
1.4271749755620724
1.418377321603128
1.418377321603128
1.4281524926686218
1.444770283479961
1.4672531769305963
1.500488758553275
1.542521994134897
1.5913978494623655
1.6441837732160314
1.6959921798631477
1.7448680351906158
1.7878787878787878
1.8201368523949168
1.839687194525904
1.8465298142717497
1.8455522971652003
1.835777126099707
1.8172043010752688
1.7898338220918866
1.7556207233626588
1.7165200391006843
1.6744868035190617
1.629521016617791
1.5835777126099706
1.5386119257087
1.4946236559139785
1.4516129032258065
1.4115347018572826
1.3782991202346042
1.3479960899315735
1.316715542521994
1.2883675464320623
1.2619745845552297
1.2394916911045943
1.2209188660801564
1.206256109481916
1.1945259042033236
1.1857282502443791
1.1788856304985338
1.1730205278592376
1.1710654936461389
1.1720430107526882
1.1730205278592376
1.1749755620723363
1.1779081133919844
1.181818181818182
1.1886608015640274
1.1964809384164223
1.2052785923753666
1.2160312805474096
1.227761485826002
1.2394916911045943
1.2512218963831867
1.262952101661779
1.2746823069403714
1.2854349951124144
1.295210166177908
1.3049853372434017
1.3128054740957966
1.316715542521994
1.3157380254154447
1.3098729227761483
1.3010752688172045
1.2932551319648091
1.2932551319648091
1.305962854349951
1.3421309872922775
1.4173998044965788
1.5395894428152492
1.7057673509286413
1.9042033235581624
2.115347018572825
2.3167155425219943
2.486803519061584
2.610948191593353
2.6832844574780057
2.702834799608993
2.67644183773216
2.625610948191593
2.558162267839687
2.469208211143695
2.36950146627566
2.264907135874878
2.1593352883675463
2.0576735092864125
1.9608993157380252
1.871945259042033
1.7927663734115349
1.7233626588465298
1.664711632453568
1.6207233626588464
1.5884652981427174
1.5581622678396871
1.5317693059628543
1.5112414467253177
1.4946236559139785
1.4809384164222874
1.4701857282502444
1.4643206256109482
1.4643206256109482
1.4711632453567938
1.4868035190615836
1.512218963831867
1.541544477028348
1.573802541544477
1.6138807429130009
1.6598240469208212
1.7057673509286413
1.747800586510264
1.782991202346041
1.8113391984359728
1.8299120234604105
1.8377321603128052
1.8347996089931573
1.8211143695014664
1.8025415444770283
1.7790811339198436
1.7468230694037146
1.7086999022482894
1.667644183773216
1.6236559139784943
1.5796676441837731
1.5356793743890518
1.4946236559139785
1.456500488758553
1.4203323558162269
1.3851417399804498
1.3528836754643203
1.3284457478005864
1.3088954056695992
1.2873900293255132
1.2649071358748778
1.2443792766373412
1.2267839687194526
1.2121212121212122
1.2003910068426198
1.1915933528836755
1.1857282502443791
1.1827956989247312
1.181818181818182
1.1837732160312806
1.187683284457478
1.1925708699902249
1.1994134897360704
1.2072336265884651
1.217008797653959
1.227761485826002
1.2394916911045943
1.2512218963831867
1.2639296187683284
1.278592375366569
1.29227761485826
1.303030303030303
1.313782991202346
1.3235581622678396
1.332355816226784
1.3401759530791788
1.343108504398827
1.3391984359726294
1.3304007820136852
1.3186705767350928
1.3128054740957966
1.3255131964809383
1.3695014662756595
1.4535679374389052
1.5581622678396871
1.689149560117302
1.869012707722385
2.075268817204301
2.2825024437927666
2.4682306940371457
2.611925708699902
2.704789833822092
2.745845552297165
2.73802541544477
2.6911045943304006
2.6158357771261
2.52297165200391
2.43108504398827
2.340175953079179
2.2385141739980448
2.1358748778103616
2.0361681329423265
1.9423264907135875
1.8563049853372435
1.7790811339198436
1.7126099706744868
1.656891495601173
1.6129032258064515
1.5786901270772238
1.5542521994134897
1.5356793743890518
1.5190615835777126
1.504398826979472
1.4926686217008798
1.4858260019550342
1.4838709677419355
1.4897360703812317
1.504398826979472
1.5298142717497556
1.564027370478983
1.6050830889540566
1.6520039100684265
1.696969696969697
1.7390029325513197
1.7839687194525904
1.827956989247312
1.865102639296188
1.89247311827957
1.9090909090909087
1.913978494623656
1.90811339198436
1.89247311827957
1.869012707722385
1.839687194525904
1.8093841642228736
1.7771260997067448
1.7380254154447703
1.6959921798631477
1.653958944281525
1.6109481915933528
1.56891495601173
1.5288367546432062
1.4916911045943304
1.455522971652004
1.4222873900293256
1.393939393939394
1.3695014662756595
1.3509286412512218
1.3372434017595307
1.3225806451612905
1.3088954056695992
1.2961876832844574
1.284457478005865
1.2746823069403714
1.267839687194526
1.2639296187683284
1.2619745845552297
1.2639296187683284
1.267839687194526
1.273704789833822
1.281524926686217
1.2903225806451613
1.2991202346041055
1.3088954056695992
1.3206256109481915
1.332355816226784
1.3440860215053765
1.3558162267839686
1.3665689149560116
1.3763440860215057
1.3851417399804498
1.392961876832845
1.3978494623655917
1.3988269794721409
1.3949169110459434
1.3870967741935485
1.3792766373411536
1.380254154447703
1.401759530791789
1.456500488758553
1.5532746823069403
1.6959921798631477
1.87683284457478
2.078201368523949
2.2551319648093844
2.404692082111437
2.5454545454545454
2.6529814271749754
2.7155425219941347
2.729227761485826
2.699902248289345
2.6373411534701856
2.552297165200391
2.453567937438905
2.346041055718475
2.2346041055718477
2.136852394916911
2.047898338220919
1.95405669599218
1.8641251221896384
1.7820136852394917
1.7096774193548387
1.6471163245356797
1.5943304007820136
1.555229716520039
1.525904203323558
1.500488758553275
1.478005865102639
1.458455522971652
1.4437927663734116
1.4349951124144673
1.4291300097751711
1.43108504398827
1.4428152492668622
1.4643206256109482
1.4965786901270772
1.5386119257087
1.587487781036168
1.6392961876832846
1.6920821114369502
1.7409579667644184
1.7790811339198436
1.8093841642228736
1.8347996089931573
1.8514173998044965
1.858260019550342
1.8543499511241448
1.8387096774193548
1.8142717497556209
1.7820136852394917
1.7438905180840665
1.7018572825024438
1.6559139784946235
1.6099706744868034
1.5708699902248289
1.5356793743890518
1.4975562072336266
1.458455522971652
1.4222873900293256
1.3890518084066472
1.359726295210166
1.3333333333333333
1.3088954056695992
1.2854349951124144
1.2649071358748778
1.2473118279569892
1.2365591397849462
1.2297165200391007
1.2218963831867058
1.2140762463343109
1.209188660801564
1.206256109481916
1.2052785923753666
1.2072336265884651
1.2121212121212122
1.2189638318670577
1.2258064516129032
1.2336265884652982
1.2434017595307918
1.2541544477028348
1.2658846529814272
1.2776148582600195
1.289345063538612
1.3010752688172045
1.3118279569892473
1.321603128054741
1.3313782991202343
1.3391984359726294
1.3450635386119256
1.3479960899315735
1.346041055718475
1.3421309872922775
1.335288367546432
1.3264907135874875
1.321603128054741
1.3304007820136852
1.3655913978494625
1.439882697947214
1.5610948191593352
1.726295210166178
1.9237536656891496
2.136852394916911
2.3411534701857284
2.5161290322580645
2.6373411534701856
2.708699902248289
2.7438905180840663
2.7370478983382207
2.695014662756598
2.625610948191593
2.535679374389052
2.434017595307918
2.3255131964809386
2.2170087976539588
2.112414467253177
2.013685239491691
1.9305962854349952
1.8602150537634408
1.7917888563049853
1.729227761485826
1.675464320625611
1.632453567937439
1.598240469208211
1.5718475073313782
1.5503421309872922
1.5317693059628543
1.5161290322580645
1.5053763440860215
1.498533724340176
1.4965786901270772
1.499511241446725
1.5102639296187683
1.530791788856305
1.560117302052786
1.5992179863147604
1.6451612903225807
1.6930596285434996
1.7409579667644184
1.7859237536656891
1.8240469208211143
1.8543499511241448
1.8729227761485825
1.881720430107527
1.8836754643206255
1.8758553274682308
1.8602150537634408
1.836754643206256
1.8064516129032255
1.772238514173998
1.7350928641251222
1.6959921798631477
1.6559139784946235
1.616813294232649
1.576735092864125
1.543499511241447
1.5141739980449658
1.4819159335288368
1.4496578690127078
1.4193548387096775
1.3919843597262953
1.3665689149560116
1.3440860215053765
1.3255131964809383
1.310850439882698
1.2971652003910068
1.2864125122189638
1.2795698924731185
1.2756598240469208
1.270772238514174
1.2658846529814272
1.262952101661779
1.2619745845552297
1.2639296187683284
1.2688172043010753
1.2766373411534702
1.2864125122189638
1.2971652003910068
1.3069403714565004
1.3176930596285434
1.327468230694037
1.3391984359726294
1.3519061583577712
1.364613880742913
1.3773216031280548
1.3900293255131966
1.401759530791789
1.409579667644184
1.412512218963832
1.4105571847507332
1.404692082111437
1.3978494623655917
1.3958944281524928
1.4066471163245358
1.4418377321603129
1.5141739980449658
1.6334310850439884
1.7976539589442817
1.9960899315738023
2.254154447702835
2.4819159335288368
2.625610948191593
2.740957966764418
2.812316715542522
2.8377321603128056
2.8240469208211145
2.777126099706745
2.702834799608993
2.6080156402737047
2.5004887585532747
2.3870967741935485
2.2737047898338223
2.1622678396871944
2.0547409579667644
1.95405669599218
1.8631476050830889
1.782991202346041
1.7194525904203324
1.6686217008797657
1.6226783968719452
1.5835777126099706
1.5503421309872922
1.5239491691104594
1.5024437927663734
1.4848484848484849
1.4721407624633431
1.466275659824047
1.4672531769305963
1.478983382209189
1.4975562072336266
1.5239491691104594
1.5620723362658846
1.6099706744868034
1.664711632453568
1.7223851417399805
1.780058651026393
1.8328445747800584
1.87683284457478
1.9090909090909087
1.9286412512218964
1.935483870967742
1.9296187683284456
1.9149560117302051
1.8934506353861196
1.8621700879765395
1.823069403714565
1.7790811339198436
1.7311827956989247
1.6803519061583578
1.629521016617791
1.5796676441837731
1.530791788856305
1.4838709677419355
1.4389051808406648
1.4037145650048877
1.3743890518084063
1.3440860215053765
1.316715542521994
1.29227761485826
1.2717497556207231
1.2512218963831867
1.2346041055718475
1.2238514173998043
1.2140762463343109
1.206256109481916
1.1994134897360704
1.1964809384164223
1.1974584555229717
1.2023460410557183
1.2082111436950147
1.2150537634408602
1.2228739002932552
1.23069403714565
1.2404692082111437
1.2512218963831867
1.262952101661779
1.2746823069403714
1.2864125122189638
1.2981427174975562
1.3088954056695992
1.3186705767350928
1.3264907135874875
1.3304007820136852
1.3343108504398826
1.3372434017595307
1.3372434017595307
1.3333333333333333
