ppg
1.8885630498533723
1.8621700879765395
1.8377321603128052
1.8211143695014664
1.8142717497556209
1.823069403714565
1.855327468230694
1.9149560117302051
2.002932551319648
2.117302052785924
2.251221896383187
2.396871945259042
2.5434995112414467
2.644183773216031
2.705767350928641
2.763440860215054
2.80058651026393
2.817204301075269
2.8181818181818183
2.7996089931573804
2.7614858260019552
2.70772238514174
2.641251221896383
2.5650048875855327
2.4819159335288368
2.3949169110459434
2.3059628543499517
2.2160312805474094
2.136852394916911
2.0635386119257086
1.9833822091886608
1.902248289345064
1.823069403714565
1.7458455522971652
1.6744868035190617
1.6099706744868034
1.5532746823069403
1.5053763440860215
1.4682306940371457
1.4428152492668622
1.4291300097751711
1.4271749755620724
1.4349951124144673
1.4516129032258065
1.478005865102639
1.5131964809384164
1.555229716520039
1.6021505376344083
1.651026392961877
1.7008797653958945
1.747800586510264
1.790811339198436
1.827956989247312
1.8563049853372435
1.87683284457478
1.89247311827957
1.9012707722385145
1.9012707722385145
1.8944281524926687
1.8807429130009776
1.8621700879765395
1.839687194525904
1.8132942326490715
1.7849462365591398
1.7556207233626588
1.726295210166178
1.7018572825024438
1.683284457478006
1.6705767350928642
1.6695992179863148
1.686217008797654
1.7233626588465298
1.782991202346041
1.8641251221896384
1.962854349951124
2.0733137829912023
2.1867057673509285
2.294232649071359
2.3792766373411536
2.443792766373412
2.4995112414467253
2.5386119257087
2.558162267839687
2.558162267839687
2.5376344086021505
2.5004887585532747
2.4486803519061584
2.3851417399804498
2.312805474095797
2.232649071358749
2.147605083088954
2.070381231671554
1.997067448680352
1.9149560117302051
1.83088954056696
1.7468230694037146
1.6666666666666667
1.590420332355816
1.520039100684262
1.456500488758553
1.3998044965786902
1.3509286412512218
1.310850439882698
1.284457478005865
1.267839687194526
1.2580645161290325
1.2580645161290325
1.2668621700879763
1.2864125122189638
1.3157380254154447
1.35386119257087
1.3998044965786902
1.4496578690127078
1.5024437927663734
1.5562072336265884
1.603128054740958
1.6441837732160314
1.6842619745845553
1.721407624633431
1.7517106549364614
1.775171065493646
1.790811339198436
1.7986314760508308
1.7976539589442817
1.7888563049853372
1.7732160312805474
1.7517106549364614
1.7233626588465298
1.6959921798631477
1.667644183773216
1.6314760508308896
1.5923753665689149
1.5532746823069403
1.5190615835777126
1.495601173020528
1.487781036168133
1.499511241446725
1.5356793743890518
1.595307917888563
1.678396871945259
1.7634408602150538
1.8533724340175952
1.9608993157380252
2.0733137829912023
2.1808406647116323
2.274682306940372
2.347996089931574
2.396871945259042
2.419354838709677
2.41544477028348
2.3870967741935485
2.337243401759531
2.269794721407625
2.20039100684262
2.129032258064516
2.0439882697947214
1.951124144672532
1.8543499511241448
1.7565982404692082
1.6608015640273706
1.5679374389051808
1.478983382209189
1.396871945259042
1.3235581622678396
1.2580645161290325
1.209188660801564
1.1720430107526882
1.1368523949169111
1.10752688172043
1.0879765395894427
1.078201368523949
1.0791788856304985
1.0899315738025417
1.1114369501466277
1.1436950146627567
1.1857282502443791
1.2355816226783969
1.2913000977517106
1.346041055718475
1.3988269794721409
1.456500488758553
1.5151515151515151
1.5718475073313782
1.6226783968719452
1.6666666666666667
1.7028347996089932
1.732160312805474
1.7526881720430108
1.7663734115347018
1.7732160312805474
1.775171065493646
1.7732160312805474
1.7673509286412512
1.7556207233626588
1.7409579667644184
1.7233626588465298
1.7057673509286413
1.6911045943304008
1.683284457478006
1.686217008797654
1.7057673509286413
1.7438905180840665
1.8025415444770283
1.8670576735092863
1.9413489736070384
2.0391006842619745
2.1495601173020527
2.264907135874878
2.376344086021505
2.47702834799609
2.560117302052786
2.621700879765396
2.6578690127077222
2.668621700879765
2.654936461388074
2.624633431085044
2.5806451612903225
2.5180840664711632
2.441837732160313
2.3548387096774195
2.260019550342131
2.160312805474096
2.058651026392962
1.956989247311828
1.857282502443793
1.7605083088954057
1.667644183773216
1.5806451612903225
1.5102639296187683
1.452590420332356
1.3958944281524928
1.3450635386119256
1.303030303030303
1.2727272727272727
1.2551319648093842
1.2502443792766371
1.2590420332355816
1.2805474095796676
1.3147605083088951
1.359726295210166
1.4066471163245358
1.456500488758553
1.5141739980449658
1.5747800586510263
1.635386119257087
1.6920821114369502
1.7438905180840665
1.7888563049853372
1.826001955034213
1.855327468230694
1.87683284457478
1.8905180840664717
1.8973607038123168
1.8993157380254155
1.8944281524926687
1.8836754643206255
1.8670576735092863
1.8465298142717497
1.822091886608016
1.793743890518084
1.7663734115347018
1.7429130009775171
1.7282502443792769
1.7282502443792769
1.7468230694037146
1.7781036168132942
1.8240469208211143
1.8973607038123168
1.992179863147605
2.126099706744868
2.2844574780058653
2.4330400782013686
2.567937438905181
2.684261974584555
2.777126099706745
2.841642228739003
2.875855327468231
2.8797653958944283
2.860215053763441
2.8211143695014664
2.7614858260019552
2.6852394916911044
2.5962854349951123
2.4975562072336266
2.3929618768328447
2.2844574780058653
2.174975562072336
2.0664711632453567
1.9608993157380252
1.8592375366568916
1.7741935483870968
1.7008797653958945
1.624633431085044
1.552297165200391
1.4868035190615836
1.4291300097751711
1.3822091886608017
1.3470185728250244
1.3255131964809383
1.316715542521994
1.321603128054741
1.3411534701857282
1.3734115347018572
1.4115347018572826
1.4545454545454546
1.509286412512219
1.5708699902248289
1.6373411534701858
1.7038123167155426
1.7683284457478006
1.827956989247312
1.881720430107527
1.927663734115347
1.963831867057673
1.989247311827957
2.002932551319648
2.007820136852395
2.004887585532747
1.9931573802541545
1.9736070381231672
1.9472140762463344
1.9149560117302051
1.87683284457478
1.833822091886608
1.7898338220918866
1.7487781036168133
1.715542521994135
1.696969696969697
1.6930596285434996
1.7086999022482894
1.7517106549364614
1.822091886608016
1.919843597262952
2.040078201368524
2.174975562072336
2.315738025415445
2.453567937438905
2.578690127077224
2.6823069403714563
2.7595307917888565
2.8044965786901277
2.822091886608016
2.8181818181818183
2.789833822091887
2.739980449657869
2.670576735092864
2.5855327468230693
2.489736070381232
2.3851417399804498
2.2737047898338223
2.1593352883675463
2.043010752688172
1.9423264907135875
1.8504398826979471
1.7497556207233629
1.6490713587487782
1.552297165200391
1.4613880742913
1.3782991202346042
1.305962854349951
1.2443792766373412
1.1945259042033236
1.1583577712609971
1.1358748778103618
1.1290322580645162
1.1358748778103618
1.1544477028347997
1.1837732160312806
1.2238514173998043
1.273704789833822
1.3304007820136852
1.3919843597262953
1.455522971652004
1.520039100684262
1.5826001955034212
1.6392961876832846
1.6901270772238517
1.7302052785923754
1.7605083088954057
1.7859237536656891
1.804496578690127
1.8162267839687196
1.8191593352883677
1.8142717497556209
1.8025415444770283
1.7849462365591398
1.7605083088954057
1.7311827956989247
1.696969696969697
1.6588465298142718
1.6265884652981428
1.6001955034213098
1.5777126099706744
1.5669599217986314
1.576735092864125
1.6129032258064515
1.678396871945259
1.772238514173998
1.8905180840664717
2.0283479960899315
2.176930596285435
2.3255131964809386
2.447702834799609
2.548387096774193
2.643206256109482
2.718475073313783
2.766373411534702
2.7859237536656893
2.776148582600196
2.7390029325513194
2.678396871945259
2.60019550342131
2.5083088954056696
2.407624633431085
2.300097751710655
2.2023460410557183
2.1094819159335287
2.005865102639296
1.900293255131965
1.7947214076246334
1.6920821114369502
1.5943304007820136
1.5034213098729228
1.4213098729227762
1.3479960899315735
1.2834799608993157
1.23069403714565
1.195503421309873
1.173998044965787
1.160312805474096
1.1573802541544478
1.1671554252199414
1.1896383186705768
1.224828934506354
1.270772238514174
1.3255131964809383
1.3851417399804498
1.4496578690127078
1.5141739980449658
1.576735092864125
1.629521016617791
1.6735092864125125
1.715542521994135
1.7517106549364614
1.7790811339198436
1.7956989247311828
1.8025415444770283
1.7986314760508308
1.7859237536656891
1.7644183773216031
1.7360703812316716
1.7018572825024438
1.6686217008797657
1.635386119257087
1.5923753665689149
1.544477028347996
1.4926686217008798
1.439882697947214
1.3900293255131966
1.346041055718475
1.313782991202346
1.3010752688172045
1.313782991202346
1.3558162267839686
1.4271749755620724
1.5112414467253177
1.608993157380254
1.7341153470185728
1.8748778103616808
2.0195503421309877
2.158357771260997
2.281524926686217
2.3822091886608017
2.4565004887585533
2.501466275659824
2.517106549364614
2.5034213098729228
2.472140762463343
2.423264907135875
2.3528836754643208
2.2639296187683287
2.163245356793744
2.053763440860215
1.9393939393939397
1.8211143695014664
1.7028347996089932
1.587487781036168
1.4750733137829912
1.3685239491691104
1.267839687194526
1.187683284457478
1.121212121212121
1.0518084066471165
0.9872922776148584
0.9296187683284456
0.8817204301075269
0.8455522971652004
0.823069403714565
0.8152492668621701
0.8211143695014663
0.841642228739003
0.8768328445747801
0.9188660801564028
0.9687194525904204
1.0303030303030305
1.099706744868035
1.1730205278592376
1.2482893450635386
1.321603128054741
1.3890518084066472
1.4496578690127078
1.501466275659824
1.544477028347996
1.5786901270772238
1.6041055718475072
1.6217008797653958
1.6334310850439884
1.6383186705767352
1.6363636363636365
1.629521016617791
1.6177908113391983
1.6011730205278591
1.5826001955034212
1.563049853372434
1.5464320625610948
1.5777126099706744
1.6412512218963833
1.686217008797654
1.729227761485826
1.7869012707722385
1.8631476050830889
1.9579667644183771
2.0684261974584555
2.190615835777126
2.3167155425219943
2.439882697947214
2.5513196480938416
2.64613880742913
2.719452590420332
2.7653958944281527
2.78494623655914
2.7810361681329425
2.755620723362659
2.7096774193548385
2.644183773216031
2.5620723362658846
2.4672531769305963
2.3626588465298144
2.251221896383187
2.1358748778103616
2.0195503421309877
1.9042033235581624
1.8064516129032255
1.7204301075268815
1.6285434995112416
1.5376344086021505
1.4516129032258065
1.3724340175953078
1.3010752688172045
1.2404692082111437
1.1915933528836755
1.155425219941349
1.1329423264907137
1.1241446725317692
1.1300097751710656
1.1495601173020529
1.1808406647116323
1.224828934506354
1.2805474095796676
1.3440860215053765
1.414467253176931
1.487781036168133
1.5620723362658846
1.6344086021505375
1.7008797653958945
1.7595307917888563
1.8103616813294232
1.8494623655913975
1.8778103616813293
1.900293255131965
1.9159335288367547
1.924731182795699
1.9257086999022484
1.9188660801564028
1.905180840664712
1.8856304985337244
1.8602150537634408
1.8318670576735088
1.8005865102639296
1.7741935483870968
1.7526881720430108
1.7331378299120237
1.7233626588465298
1.729227761485826
1.7565982404692082
1.8093841642228736
1.889540566959922
1.9951124144672527
2.121212121212121
2.26197458455523
2.407624633431085
2.550342130987292
2.6666666666666665
2.7595307917888565
2.8455522971652005
2.913000977517106
2.9550342130987293
2.9687194525904204
2.95405669599218
2.913978494623656
2.8533724340175954
2.7751710654936463
2.684261974584555
2.5835777126099706
2.4887585532746823
2.3958944281524928
2.29227761485826
2.1847507331378297
2.0762463343108504
1.970674486803519
1.868035190615836
1.7712609970674489
1.6823069403714566
1.6011730205278591
1.5288367546432062
1.466275659824047
1.414467253176931
1.3782991202346042
1.356793743890518
1.3421309872922775
1.3372434017595307
1.3450635386119256
1.364613880742913
1.3958944281524928
1.4379276637341154
1.4887585532746823
1.5464320625610948
1.6080156402737047
1.6695992179863148
1.7233626588465298
1.7712609970674489
1.8201368523949168
1.865102639296188
1.9042033235581624
1.935483870967742
1.959921798631476
1.9765395894428155
1.9853372434017595
1.9872922776148585
1.9833822091886608
1.9736070381231672
1.9579667644183771
1.9413489736070384
1.9227761485826005
1.8983382209188664
1.8699902248289344
1.8416422287390029
1.8162267839687196
1.801564027370479
1.8025415444770283
1.825024437927664
1.8729227761485825
1.946236559139785
2.04594330400782
2.147605083088954
2.2561094819159337
2.389051808406647
2.532746823069404
2.675464320625611
2.806451612903226
2.917888563049853
3.003910068426197
3.06158357771261
3.089931573802541
3.0879765395894427
3.059628543499511
3.007820136852395
2.9442815249266863
2.8719452590420333
2.782013685239492
2.681329423264907
2.5718475073313782
2.458455522971652
2.343108504398827
2.2277614858260018
2.113391984359726
2.002932551319648
1.8963831867057677
1.7947214076246334
1.7116324535679377
1.640273704789834
1.5669599217986314
1.495601173020528
1.43108504398827
1.3743890518084063
1.3264907135874875
1.2883675464320623
1.2609970674486803
1.2453567937438903
1.241446725317693
1.2482893450635386
1.2668621700879763
1.2932551319648091
1.327468230694037
1.3695014662756595
1.4173998044965788
1.4682306940371457
1.520039100684262
1.5708699902248289
1.6187683284457477
1.6637341153470186
1.7028347996089932
1.7341153470185728
1.758553274682307
1.775171065493646
1.7859237536656891
1.7898338220918866
1.7878787878787878
1.7790811339198436
1.7644183773216031
1.7448680351906158
1.721407624633431
1.6959921798631477
1.6705767350928642
1.6500488758553276
1.6392961876832846
1.643206256109482
1.6598240469208212
1.6920821114369502
1.7468230694037146
1.825024437927664
1.9237536656891496
2.0391006842619745
2.164222873900293
2.291300097751711
2.41544477028348
2.529814271749756
2.627565982404692
2.7038123167155423
2.752688172043011
2.776148582600196
2.782991202346041
2.7702834799608995
2.7370478983382207
2.6852394916911044
2.6177908113391983
2.5376344086021505
2.447702834799609
2.3519061583577714
2.251221896383187
3.089931573802541
3.024437927663734
2.943304007820137
2.849462365591398
2.745845552297165
2.635386119257087
2.5210166177908118
2.4173998044965788
2.318670576735093
2.2111436950146626
2.1006842619745845
1.992179863147605
1.889540566959922
1.7947214076246334
1.7086999022482894
1.6334310850439884
1.5698924731182795
1.520039100684262
1.482893450635386
1.4613880742913
1.452590420332356
1.452590420332356
1.4643206256109482
1.4868035190615836
1.520039100684262
1.520039100684262
1.5063538611925709
1.5288367546432062
1.5708699902248289
1.6217008797653958
1.675464320625611
1.726295210166178
1.7683284457478006
1.8035190615835777
1.8347996089931573
1.8602150537634408
1.8778103616813293
1.8856304985337244
1.884652981427175
1.8748778103616808
1.857282502443793
1.8328445747800584
1.8025415444770283
1.7702834799608993
1.7438905180840665
1.7243401759530792
1.7145650048875856
1.7223851417399805
1.7546432062561097
1.8162267839687196
1.90811339198436
2.0283479960899315
2.172043010752688
2.329423264907136
2.4916911045943304
2.64613880742913
2.78494623655914
2.887585532746823
2.9579667644183774
3.0127077223851417
3.043010752688172
3.0449657869012707
3.0195503421309877
2.9687194525904204
2.8963831867057674
2.807429130009776
2.704789833822092
2.592375366568915
2.4731182795698925
2.363636363636364
2.2580645161290325
2.139784946236559
2.01564027370479
1.8885630498533723
1.7624633431085044
1.6392961876832846
1.521994134897361
1.412512218963832
1.3147605083088951
1.2287390029325511
1.1564027370478984
1.0977517106549364
1.0596285434995112
1.0381231671554252
1.0254154447702837
1.024437927663734
1.0361681329423265
1.0606060606060606
1.0957966764418376
1.13880742913001
1.1886608015640274
1.2434017595307918
1.300097751710655
1.3548387096774193
1.401759530791789
1.4428152492668622
1.4809384164222874
1.5141739980449658
1.5405669599217986
1.5591397849462365
1.56891495601173
1.5718475073313782
1.5679374389051808
1.5581622678396871
1.542521994134897
1.521016617790811
1.495601173020528
1.4721407624633431
1.452590420332356
1.4330400782013686
1.423264907135875
1.4301075268817205
1.4604105571847508
1.520039100684262
1.6109481915933528
1.7311827956989247
1.87683284457478
2.0410557184750733
2.2140762463343107
2.3626588465298144
2.4916911045943304
2.622678396871945
2.736070381231672
2.822091886608016
2.874877810361681
2.895405669599218
2.884652981427175
2.844574780058651
2.7810361681329425
2.697947214076246
2.60019550342131
2.4916911045943304
2.389051808406647
2.289345063538612
2.176930596285435
2.059628543499511
1.9413489736070384
1.8240469208211143
1.7096774193548387
1.6001955034213098
1.4975562072336266
1.4027370478983383
1.3176930596285434
1.2443792766373412
1.1906158357771262
1.1534701857282503
1.1221896383186705
1.1036168132942326
1.099706744868035
1.1114369501466277
1.1378299120234605
1.1788856304985338
1.2346041055718475
1.3020527859237536
1.3773216031280548
1.458455522971652
1.5327468230694037
1.6021505376344083
1.6764418377321604
1.7487781036168133
1.81524926686217
1.8729227761485825
1.9188660801564028
1.951124144672532
1.970674486803519
1.9775171065493649
1.9716520039100685
1.95405669599218
1.9257086999022484
1.895405669599218
1.8621700879765395
1.822091886608016
1.7820136852394917
1.747800586510264
1.7272727272727273
1.7282502443792769
1.7546432062561097
1.8113391984359728
1.8983382209188664
2.0127077223851417
2.1485826001955037
2.275659824046921
2.3958944281524928
2.5288367546432062
2.656891495601173
2.766373411534702
2.849462365591398
2.9012707722385143
2.919843597262952
2.90811339198436
2.8690127077223853
2.807429130009776
2.729227761485826
2.6392961876832843
2.5513196480938416
2.463343108504399
2.364613880742913
2.2580645161290325
2.1495601173020527
2.0410557184750733
1.9335288367546437
1.8299120234604105
1.729227761485826
1.635386119257087
1.5503421309872922
1.4750733137829912
1.418377321603128
1.375366568914956
1.3391984359726294
1.313782991202346
1.3020527859237536
1.3040078201368523
1.3196480938416422
1.348973607038123
1.391006842619746
1.4428152492668622
1.5024437927663734
1.5669599217986314
1.6344086021505375
1.694037145650049
1.747800586510264
1.8025415444770283
1.8523949169110456
1.895405669599218
1.927663734115347
1.9501466275659824
1.9608993157380252
1.9618768328445748
1.95405669599218
1.9393939393939397
1.916911045943304
1.89247311827957
1.865102639296188
1.8299120234604105
1.7917888563049853
1.7565982404692082
1.7302052785923754
1.7204301075268815
1.737047898338221
1.7849462365591398
1.868035190615836
1.986314760508309
2.1358748778103616
2.3069403714565007
2.462365591397849
2.6041055718475072
2.755620723362659
2.895405669599218
3.0087976539589443
3.0879765395894427
3.129032258064516
3.133919843597263
3.1065493646138806
3.0518084066471163
2.9745845552297165
2.8807429130009776
2.7859237536656893
2.689149560117302
2.5777126099706744
2.458455522971652
2.334310850439883
2.2082111436950145
2.083088954056696
1.959921798631476
1.8377321603128052
1.718475073313783
1.603128054740958
1.4936461388074291
1.3919843597262953
1.3118279569892473
1.2473118279569892
1.1857282502443791
1.133919843597263
1.0948191593352885
1.0713587487781036
1.0635386119257086
1.0733137829912025
1.0987292277614855
1.13880742913001
1.1915933528836755
1.2551319648093842
1.3079178885630498
1.3548387096774193
1.414467253176931
1.47702834799609
1.5386119257087
1.595307917888563
1.6451612903225807
1.6842619745845553
1.7135874877810362
1.732160312805474
1.7390029325513197
1.737047898338221
1.726295210166178
1.7116324535679377
1.6930596285434996
1.6666666666666667
1.6344086021505375
1.5992179863147604
1.565982404692082
1.5386119257087
1.5249266862170088
1.530791788856305
1.560117302052786
1.6177908113391983
1.704789833822092
1.7986314760508308
1.903225806451613
2.0361681329423265
2.182795698924731
2.332355816226784
2.472140762463343
2.593352883675464
2.689149560117302
2.7546432062561097
2.787878787878788
2.791788856304985
2.7673509286412514
2.720430107526881
2.662756598240469
2.595307917888563
2.5131964809384164
2.421309872922776
2.3225806451612905
2.218963831867057
2.112414467253177
2.003910068426197
1.8944281524926687
1.7878787878787878
1.683284457478006
1.58455522971652
1.504398826979472
1.435972629521017
1.3665689149560116
1.303030303030303
1.2502443792766371
1.209188660801564
1.1827956989247312
1.1720430107526882
1.1779081133919844
1.1994134897360704
1.2365591397849462
1.2854349951124144
1.3450635386119256
1.4037145650048877
1.4623655913978495
1.5298142717497556
1.598240469208211
1.6627565982404693
1.7223851417399805
1.7732160312805474
1.8142717497556209
1.8435972629521016
1.8621700879765395
1.8699902248289344
1.868035190615836
1.8592375366568916
1.8455522971652003
1.823069403714565
1.7927663734115349
1.758553274682307
1.721407624633431
1.6842619745845553
1.6529814271749756
1.635386119257087
1.6373411534701858
1.664711632453568
1.7223851417399805
1.8113391984359728
1.9090909090909087
2.0205278592375366
2.1652003910068425
2.3255131964809386
2.486803519061584
2.635386119257087
2.7614858260019552
2.857282502443793
2.918866080156403
2.9472140762463344
2.943304007820137
2.9120234604105573
2.865102639296188
2.8054740957966766
2.730205278592375
2.643206256109482
2.549364613880743
2.449657869012708
2.347996089931574
2.244379276637341
2.139784946236559
2.034213098729228
1.9296187683284456
1.8269794721407624
1.739980449657869
1.66177908113392
1.5806451612903225
1.5024437927663734
1.43108504398827
1.3695014662756595
1.3196480938416422
1.2834799608993157
1.260019550342131
1.2502443792766371
1.2531769305962854
1.2688172043010753
1.2961876832844574
1.3284457478005864
1.3665689149560116
1.414467253176931
1.466275659824047
1.520039100684262
1.573802541544477
1.6226783968719452
1.6656891495601174
1.7008797653958945
1.7272727272727273
1.7438905180840665
1.7517106549364614
1.7517106549364614
1.7448680351906158
1.729227761485826
1.7067448680351909
1.6764418377321604
1.6392961876832846
1.5962854349951123
1.5503421309872922
1.5053763440860215
1.466275659824047
1.4418377321603129
1.4389051808406648
1.4652981427174976
1.5112414467253177
1.581622678396872
1.6901270772238517
1.83088954056696
1.9931573802541545
2.1652003910068425
2.335288367546432
2.4887585532746823
2.616813294232649
2.710654936461388
2.768328445747801
2.790811339198436
2.7839687194525906
2.7546432062561097
2.702834799608993
2.633431085043988
2.550342130987292
2.458455522971652
2.358748778103617
2.2531769305962857
2.1436950146627565
2.0332355816226784
1.921798631476051
1.8113391984359728
1.7018572825024438
1.608993157380254
1.5268817204301075
1.4389051808406648
1.3509286412512218
1.2668621700879763
1.1896383186705768
1.121212121212121
1.0625610948191593
1.0156402737047898
0.981427174975562
0.9608993157380256
0.9530791788856304
0.9579667644183774
0.9736070381231672
1.0
1.0361681329423265
1.0811339198435972
1.1319648093841643
1.187683284457478
1.24633431085044
1.3069403714565004
1.364613880742913
1.4193548387096775
1.4672531769305963
1.5063538611925709
1.5366568914956011
1.5581622678396871
1.5728250244379276
1.5796676441837731
1.5796676441837731
1.573802541544477
1.5620723362658846
1.544477028347996
1.5239491691104594
1.501466275659824
1.4819159335288368
1.4682306940371457
1.4633431085043989
1.4721407624633431
1.499511241446725
1.552297165200391
1.632453567937439
1.7409579667644184
1.873900293255132
