ppg
0.5972629521016618
0.6119257086999023
0.6363636363636364
0.6735092864125122
0.7233626588465298
0.7878787878787878
0.8660801564027371
0.9579667644183774
1.0606060606060606
1.1564027370478984
1.2512218963831867
1.3577712609970674
1.466275659824047
1.5718475073313782
1.6744868035190617
1.7702834799608993
1.8592375366568916
1.9393939393939397
2.0097751710654936
2.0684261974584555
2.117302052785924
2.155425219941349
2.1808406647116323
2.1945259042033234
2.201368523949169
2.20039100684262
2.193548387096774
2.179863147605083
2.1593352883675463
2.132942326490713
2.101661779081134
2.0635386119257086
2.0205278592375366
1.9726295210166176
1.9286412512218964
1.8826979472140764
1.8299120234604105
1.7771260997067448
1.7272727272727273
1.6793743890518085
1.632453567937439
1.587487781036168
1.544477028347996
1.504398826979472
1.4682306940371457
1.435972629521017
1.4066471163245358
1.3851417399804498
1.3665689149560116
1.3470185728250244
1.3304007820136852
1.3157380254154447
1.303030303030303
1.2913000977517106
1.2795698924731185
1.267839687194526
1.2561094819159335
1.241446725317693
1.224828934506354
1.2140762463343109
1.2043010752688172
1.1906158357771262
1.1749755620723363
1.1583577712609971
1.141739980449658
1.1241446725317692
1.1085043988269794
1.093841642228739
1.0772238514173995
1.0606060606060606
1.0449657869012707
1.0312805474095796
1.0234604105571847
1.0175953079178883
1.0087976539589445
0.9990224828934506
0.9882697947214076
0.978494623655914
0.9687194525904204
0.9608993157380256
0.956989247311828
0.9550342130987292
0.9511241446725318
0.9452590420332356
0.9423264907135877
0.9393939393939394
0.9315738025415444
0.9227761485826002
0.9120234604105572
0.8993157380254154
0.8856304985337243
0.8729227761485826
0.8611925708699902
0.852394916911046
0.8475073313782991
0.8465298142717498
0.8533724340175953
0.8699902248289345
0.895405669599218
0.9345063538611924
0.9902248289345064
1.06158357771261
1.1466275659824048
1.2443792766373412
1.3528836754643203
1.469208211143695
1.5894428152492668
1.7116324535679377
1.835777126099707
1.9413489736070384
2.034213098729228
2.134897360703812
2.2355816226783967
2.332355816226784
2.423264907135875
2.506353861192571
2.5777126099706744
2.638318670576735
2.689149560117302
2.727272727272727
2.7536656891495603
2.7702834799608995
2.774193548387097
2.7702834799608995
2.763440860215054
2.752688172043011
2.73802541544477
2.717497556207233
2.6911045943304006
2.658846529814272
2.619745845552297
2.573802541544477
2.52297165200391
2.469208211143695
2.4173998044965788
2.366568914956012
2.3167155425219943
2.3382209188660803
2.396871945259042
2.407624633431085
2.3929618768328447
2.367546432062561
2.3391984359726297
2.3088954056695994
2.278592375366569
2.2482893450635384
2.219941348973607
2.1955034213098727
2.1739980449657867
2.1544477028347995
2.136852394916911
2.120234604105572
2.102639296187683
2.083088954056696
2.0625610948191597
2.042033235581622
2.0205278592375366
2.0
1.978494623655914
1.959921798631476
1.943304007820137
1.9237536656891496
1.905180840664712
1.8885630498533723
1.871945259042033
1.8563049853372435
1.8387096774193548
1.8211143695014664
1.8025415444770283
1.782991202346041
1.7644183773216031
1.7458455522971652
1.7311827956989247
1.7194525904203324
1.7057673509286413
1.6930596285434996
1.6793743890518085
1.664711632453568
1.651026392961877
1.6392961876832846
1.6275659824046922
1.616813294232649
1.606060606060606
1.595307917888563
1.5865102639296187
1.5777126099706744
1.56891495601173
1.5620723362658846
1.5562072336265884
1.5503421309872922
1.5454545454545454
1.542521994134897
1.543499511241447
1.5493646138807429
1.560117302052786
1.5777126099706744
1.6011730205278591
1.632453567937439
1.6774193548387095
1.7360703812316716
1.8093841642228736
1.8944281524926687
1.9902248289345064
2.0948191593352883
2.207233626588465
2.32355816226784
2.4408602150537635
2.5562072336265884
2.6666666666666665
2.7565982404692084
2.832844574780059
2.913000977517106
2.9902248289345064
3.0625610948191597
3.129032258064516
3.185728250244379
3.2346041055718477
3.275659824046921
3.3098729227761488
3.334310850439883
3.350928641251222
3.3548387096774195
3.3519061583577714
3.347996089931574
3.340175953079179
3.3284457478005867
3.310850439882698
3.2873900293255134
3.259042033235582
3.225806451612903
3.188660801564027
3.144672531769306
3.096774193548387
3.0439882697947214
2.989247311827957
2.935483870967742
2.8797653958944283
2.823069403714565
2.7673509286412514
2.7126099706744866
2.658846529814272
2.6070381231671558
2.5591397849462365
2.515151515151515
2.472140762463343
2.43108504398827
2.396871945259042
2.366568914956012
2.3362658846529816
2.304985337243402
2.270772238514174
2.236559139784946
2.204301075268817
2.1710654936461387
2.136852394916911
2.102639296187683
2.071358748778104
2.0410557184750733
2.010752688172043
1.9853372434017595
1.9608993157380252
1.9335288367546437
1.905180840664712
1.8778103616813293
1.8514173998044965
1.825024437927664
1.7986314760508308
1.772238514173998
1.7468230694037146
1.7233626588465298
1.7018572825024438
1.6852394916911049
1.6715542521994136
1.6559139784946235
1.6383186705767352
1.6207233626588464
1.603128054740958
1.58455522971652
1.5679374389051808
1.5513196480938416
1.5347018572825024
1.5161290322580645
1.4965786901270772
1.47702834799609
1.4623655913978495
1.4486803519061584
1.4301075268817205
1.4115347018572826
1.393939393939394
1.3782991202346042
1.3665689149560116
1.359726295210166
1.3587487781036167
1.367546432062561
1.3870967741935485
1.4164222873900294
1.4516129032258065
1.495601173020528
1.5542521994134897
1.624633431085044
1.704789833822092
1.793743890518084
1.8905180840664717
1.994134897360704
2.099706744868035
2.2052785923753664
2.30791788856305
2.404692082111437
2.4946236559139785
2.56891495601173
2.63049853372434
2.6930596285435
2.750733137829912
2.80058651026393
2.8426197458455524
2.87683284457478
2.9042033235581624
2.9257086999022484
2.9393939393939394
2.946236559139785
2.9472140762463344
2.9393939393939394
2.9257086999022484
2.90811339198436
2.887585532746823
2.86217008797654
2.83088954056696
2.793743890518084
2.750733137829912
2.704789833822092
2.653958944281525
2.5992179863147604
2.5434995112414467
2.486803519061584
2.4359726295210167
2.3919843597262958
2.347018572825025
2.302052785923754
2.260019550342131
2.220918866080156
2.182795698924731
2.145650048875855
2.10850439882698
2.072336265884653
2.0391006842619745
2.007820136852395
1.9824046920821117
1.9608993157380252
1.9364613880742916
1.9120234604105573
1.8875855327468232
1.8641251221896384
1.8387096774193548
1.8132942326490715
1.7869012707722385
1.7624633431085044
1.7390029325513197
1.7174975562072337
1.694037145650049
1.6735092864125125
1.653958944281525
1.6314760508308896
1.6080156402737047
1.587487781036168
1.56891495601173
1.552297165200391
1.5356793743890518
1.5190615835777126
1.5034213098729228
1.487781036168133
1.4721407624633431
1.4604105571847508
1.4506353861192571
1.436950146627566
1.4222873900293256
1.4076246334310851
1.3919843597262953
1.3773216031280548
1.3636363636363635
1.3499511241446724
1.3372434017595307
1.3235581622678396
1.3088954056695992
1.2942326490713587
1.284457478005865
1.2766373411534702
1.2668621700879763
1.2570869990224829
1.2502443792766371
1.2473118279569892
1.2502443792766371
1.2590420332355816
1.2766373411534702
1.2424242424242424
1.1857282502443791
1.1857282502443791
1.2130987292277615
1.2590420332355816
1.3264907135874875
1.409579667644184
1.504398826979472
1.607038123167155
1.7145650048875856
1.8201368523949168
1.921798631476051
2.016617790811339
2.103616813294233
2.1818181818181817
2.2404692082111435
2.286412512218964
2.3304007820136854
2.367546432062561
2.3978494623655915
2.423264907135875
2.441837732160313
2.455522971652004
2.462365591397849
2.462365591397849
2.4574780058651027
2.44672531769306
2.4301075268817205
2.409579667644184
2.3841642228739004
2.3528836754643208
2.3167155425219943
2.2766373411534704
2.232649071358749
2.1847507331378297
2.132942326490713
2.0791788856304985
2.0234604105571847
1.9696969696969695
1.9188660801564028
1.87683284457478
1.8377321603128052
1.7976539589442817
1.7575757575757576
1.7194525904203324
1.6842619745845553
1.6529814271749756
1.624633431085044
1.5972629521016617
1.5698924731182795
1.543499511241447
1.5180840664711632
1.4936461388074291
1.4731182795698925
1.457478005865103
1.436950146627566
1.4134897360703813
1.3890518084066472
1.364613880742913
1.3401759530791788
1.3176930596285434
1.2961876832844574
1.273704789833822
1.249266862170088
1.224828934506354
1.2052785923753666
1.1857282502443791
1.1612903225806452
1.1348973607038124
1.1094819159335287
1.0869990224828934
1.0635386119257086
1.0391006842619743
1.018572825024438
1.0009775171065494
0.9824046920821116
0.9628543499511242
0.9442815249266864
0.9305962854349952
0.919843597262952
0.9071358748778104
0.8924731182795699
0.8778103616813294
0.863147605083089
0.8504398826979472
0.8387096774193549
0.8279569892473119
0.8152492668621701
0.7986314760508308
0.7820136852394917
0.7712609970674487
0.7634408602150538
0.7517106549364614
0.739980449657869
0.7302052785923754
0.7243401759530792
0.7243401759530792
0.7350928641251222
0.7546432062561095
0.7859237536656891
0.8289345063538612
0.8836754643206256
0.9511241446725318
1.0205278592375366
1.0948191593352885
1.1808406647116323
1.273704789833822
1.3695014662756595
1.466275659824047
1.560117302052786
1.6480938416422288
1.729227761485826
1.804496578690127
1.870967741935484
1.9305962854349952
1.9765395894428155
2.0117302052785924
2.043010752688172
2.067448680351906
2.0840664711632453
2.0928641251221896
2.093841642228739
2.0869990224828934
2.0733137829912023
2.0557184750733137
2.0332355816226784
2.005865102639296
1.9736070381231672
1.9413489736070384
1.90811339198436
1.8670576735092863
1.822091886608016
1.775171065493646
1.726295210166178
1.6803519061583578
1.6373411534701858
1.5962854349951123
1.5571847507331378
1.520039100684262
1.4858260019550342
1.458455522971652
1.4349951124144673
1.4086021505376345
1.3812316715542523
1.356793743890518
1.3343108504398826
1.3147605083088951
1.300097751710655
1.2873900293255132
1.273704789833822
1.260019550342131
1.2453567937438903
1.227761485826002
1.2121212121212122
1.1964809384164223
1.1788856304985338
1.1612903225806452
1.1456500488758554
1.1300097751710656
1.1124144672531768
1.093841642228739
1.0742913000977516
1.0547409579667644
1.035190615835777
1.0166177908113392
1.0048875855327468
0.9960899315738024
0.9843597262952102
0.9716520039100685
0.956989247311828
0.9423264907135877
0.927663734115347
0.9130009775171064
0.8983382209188661
0.8836754643206256
0.8690127077223851
0.8543499511241447
0.8406647116324536
0.833822091886608
0.83088954056696
0.8240469208211144
0.8162267839687195
0.8093841642228738
0.8015640273704789
0.7956989247311828
0.7898338220918866
0.7849462365591398
0.7810361681329423
0.7790811339198436
0.7781036168132942
0.782991202346041
0.7927663734115347
0.8025415444770283
0.8123167155425219
0.8250244379276638
0.8435972629521017
0.8699902248289345
0.9071358748778104
0.9550342130987292
1.0146627565982405
1.086021505376344
1.166177908113392
1.2531769305962854
1.3333333333333333
1.4086021505376345
1.487781036168133
1.5669599217986314
1.640273704789834
1.7028347996089932
1.7526881720430108
1.7888563049853372
1.8113391984359728
1.823069403714565
1.825024437927664
1.8191593352883677
1.8093841642228736
1.7947214076246334
1.7732160312805474
1.7458455522971652
1.710654936461388
1.6705767350928642
1.6275659824046922
1.5806451612903225
1.530791788856305
1.4819159335288368
1.435972629521017
1.3919843597262953
1.3509286412512218
1.3176930596285434
1.289345063538612
1.2561094819159335
1.219941348973607
1.18475073313783
1.1515151515151516
1.1202346041055715
1.0928641251221896
1.0684261974584557
1.0469208211143697
1.0273704789833822
1.0127077223851415
1.0048875855327468
1.0009775171065494
0.9980449657869012
0.997067448680352
0.9960899315738024
0.9960899315738024
0.9960899315738024
0.9960899315738024
0.9960899315738024
0.9941348973607038
0.9912023460410556
0.9872922776148584
0.9863147605083088
0.9872922776148584
0.9872922776148584
0.9902248289345064
1.0733137829912025
1.1935483870967742
1.2541544477028348
1.2854349951124144
1.3010752688172045
1.3079178885630498
1.3098729227761483
1.310850439882698
1.3128054740957966
1.3176930596285434
1.3235581622678396
1.3264907135874875
1.327468230694037
1.3264907135874875
1.3235581622678396
1.3186705767350928
1.313782991202346
1.3088954056695992
1.303030303030303
1.2991202346041055
1.2981427174975562
1.303030303030303
1.3098729227761483
1.313782991202346
1.3157380254154447
1.316715542521994
1.316715542521994
1.316715542521994
1.316715542521994
1.316715542521994
1.316715542521994
1.316715542521994
1.316715542521994
1.316715542521994
1.3206256109481915
1.3304007820136852
1.3450635386119256
1.3695014662756595
1.4066471163245358
1.458455522971652
1.5239491691104594
1.606060606060606
1.7038123167155426
1.8162267839687196
1.9413489736070384
2.074291300097752
2.1925708699902247
2.3059628543499517
2.434017595307918
2.565982404692082
2.6959921798631474
2.819159335288368
2.9315738025415445
3.0332355816226784
3.12316715542522
3.2023460410557183
3.271749755620724
3.333333333333333
3.386119257086999
3.421309872922776
3.442815249266862
3.4652981427174976
3.484848484848485
3.4995112414467253
3.5083088954056696
3.509286412512219
3.504398826979472
3.49266862170088
3.474095796676442
3.449657869012708
3.419354838709677
3.383186705767351
3.3411534701857284
3.294232649071359
3.244379276637341
3.190615835777126
3.1358748778103616
3.078201368523949
3.018572825024438
2.9589442815249267
2.9042033235581624
2.8514173998044967
2.7996089931573804
2.7517106549364616
2.710654936461388
2.673509286412512
2.635386119257087
2.598240469208211
2.5620723362658846
2.5268817204301075
2.49266862170088
2.4594330400782014
2.4301075268817205
2.404692082111437
2.3822091886608017
2.3626588465298144
2.3440860215053765
2.32355816226784
2.2991202346041058
2.272727272727273
2.242424242424242
2.210166177908113
2.1788856304985336
2.1485826001955037
2.1221896383186705
2.0977517106549364
2.074291300097752
2.050830889540567
2.027370478983382
2.0097751710654936
1.994134897360704
1.9745845552297163
1.9550342130987293
1.9374389051808407
1.919843597262952
1.902248289345064
1.8856304985337244
1.869012707722385
1.8533724340175952
1.839687194525904
1.826001955034213
1.8132942326490715
1.7996089931573802
1.7820136852394917
1.761485826001955
1.7429130009775171
1.7282502443792769
1.7145650048875856
1.7028347996089932
1.689149560117302
1.675464320625611
1.6627565982404693
1.6529814271749756
1.6451612903225807
1.6412512218963833
1.643206256109482
1.651026392961877
1.6695992179863148
1.7008797653958945
1.747800586510264
1.8093841642228736
1.8856304985337244
1.9775171065493649
2.081133919843597
2.193548387096774
2.3118279569892475
2.4164222873900294
2.5141739980449658
2.621700879765396
2.7311827956989245
2.834799608993157
2.929618768328446
3.013685239491691
3.089931573802541
3.158357771260997
3.219941348973607
3.274682306940372
3.32355816226784
3.364613880742913
3.389051808406647
3.401759530791789
3.410557184750733
3.41544477028348
3.4164222873900294
3.4134897360703813
3.409579667644184
3.403714565004888
3.3929618768328447
3.376344086021505
3.3519061583577714
3.3196480938416424
3.283479960899316
3.244379276637341
3.2023460410557183
3.158357771260997
3.113391984359726
3.067448680351906
3.018572825024438
2.9687194525904204
2.916911045943304
2.866080156402737
2.8181818181818183
2.7722385141739982
2.730205278592375
2.69208211143695
2.658846529814272
2.6265884652981426
2.593352883675464
2.5610948191593352
2.529814271749756
2.496578690127077
2.4604105571847508
2.4222873900293256
2.388074291300098
2.356793743890518
2.326490713587488
2.300097751710655
2.275659824046921
2.249266862170088
2.2248289345063537
2.203323558162268
2.1808406647116323
2.158357771260997
2.1388074291300097
2.120234604105572
2.099706744868035
2.078201368523949
2.058651026392962
2.042033235581622
2.0283479960899315
2.0195503421309877
2.0087976539589443
1.9951124144672527
1.9794721407624636
1.963831867057673
1.9472140762463344
1.9305962854349952
1.913978494623656
1.8993157380254155
1.8866080156402736
1.871945259042033
1.8592375366568916
1.8484848484848484
1.8347996089931573
1.8162267839687196
1.7956989247311828
1.7741935483870968
1.7517106549364614
1.729227761485826
1.7067448680351909
1.686217008797654
1.6686217008797657
1.6559139784946235
1.6500488758553276
1.6529814271749756
1.664711632453568
1.6871945259042034
1.7223851417399805
1.7712609970674489
1.835777126099707
1.913978494623656
2.003910068426197
2.103616813294233
2.210166177908113
2.320625610948192
2.4330400782013686
2.530791788856305
2.6158357771261
2.7096774193548385
2.8044965786901277
2.895405669599218
2.979472140762464
3.053763440860215
3.121212121212121
3.1788856304985336
3.225806451612903
3.1407624633431084
2.986314760508309
2.9100684261974585
2.8699902248289346
2.850439882697948
2.8367546432062563
2.8240469208211145
2.8084066471163247
2.788856304985337
2.7653958944281527
2.736070381231672
2.6989247311827955
2.6578690127077222
2.6129032258064515
2.5640273704789838
2.515151515151515
2.466275659824047
2.4134897360703813
2.3597262952101663
2.30791788856305
2.2561094819159337
2.207233626588465
2.161290322580645
2.118279569892473
2.078201368523949
2.0410557184750733
2.005865102639296
1.9775171065493649
1.9521016617790807
1.9237536656891496
1.8963831867057677
1.8699902248289344
1.844574780058651
1.822091886608016
1.8005865102639296
1.7781036168132942
1.7546432062561097
1.7282502443792769
1.699902248289345
1.6735092864125125
1.6529814271749756
1.6334310850439884
1.6109481915933528
1.587487781036168
1.5610948191593352
1.5347018572825024
1.5073313782991202
1.479960899315738
1.4545454545454546
1.43108504398827
1.4086021505376345
1.3851417399804498
1.3665689149560116
1.3479960899315735
1.3264907135874875
1.3020527859237536
1.2776148582600195
1.252199413489736
1.227761485826002
1.2072336265884651
1.187683284457478
1.1681329423264908
1.147605083088954
1.1270772238514175
1.1085043988269794
1.096774193548387
1.0869990224828934
1.0713587487781036
1.056695992179863
1.043010752688172
1.0283479960899315
1.013685239491691
0.9980449657869012
0.9824046920821116
0.967741935483871
0.95405669599218
0.9433040078201368
0.9403714565004888
0.9452590420332356
0.956989247311828
0.9775171065493646
1.007820136852395
1.0488758553274682
1.1006842619745845
1.1652003910068427
1.2404692082111437
1.3255131964809383
1.4164222873900294
1.5102639296187683
1.607038123167155
1.6930596285434996
1.7702834799608993
1.8523949169110456
1.935483870967742
2.0146627565982405
2.088954056695992
2.156402737047898
2.2130987292277613
2.257086999022483
2.290322580645161
2.314760508308896
2.3304007820136854
2.337243401759531
2.3382209188660803
2.337243401759531
2.332355816226784
2.3196480938416424
2.300097751710655
2.275659824046921
2.244379276637341
2.206256109481916
2.164222873900293
2.1192570869990224
2.071358748778104
2.0234604105571847
1.9804496578690127
1.9393939393939397
1.8963831867057677
1.8533724340175952
1.8113391984359728
1.7702834799608993
1.729227761485826
1.6911045943304008
1.6549364613880744
1.6217008797653958
1.5913978494623655
1.5610948191593352
1.5356793743890518
1.5151515151515151
1.4946236559139785
1.474095796676442
1.455522971652004
1.436950146627566
1.4203323558162269
1.4037145650048877
1.3870967741935485
1.3695014662756595
1.3519061583577712
1.335288367546432
1.3186705767350928
1.3040078201368523
1.289345063538612
1.2727272727272727
1.2541544477028348
1.2346041055718475
1.2130987292277615
1.1906158357771262
1.1691104594330402
1.147605083088954
1.1251221896383188
1.1036168132942326
1.083088954056696
1.067448680351906
1.0547409579667644
1.040078201368524
1.029325513196481
1.021505376344086
1.0146627565982405
1.0087976539589445
1.002932551319648
0.997067448680352
0.9882697947214076
0.9775171065493646
0.9648093841642228
0.9511241446725318
0.9413489736070382
0.9345063538611924
0.9217986314760508
0.906158357771261
0.8914956011730205
0.8787878787878788
0.8709677419354839
0.8670576735092864
0.8660801564027371
0.8709677419354839
0.8826979472140762
0.9022482893450636
0.9296187683284456
0.9638318670576737
1.0087976539589445
1.067448680351906
1.13880742913001
1.2209188660801564
1.3128054740957966
1.4134897360703813
1.520039100684262
1.629521016617791
1.7390029325513197
1.8455522971652003
1.9345063538611929
2.010752688172043
2.089931573802541
2.1652003910068425
2.231671554252199
2.289345063538612
2.337243401759531
2.3743890518084068
2.401759530791789
2.420332355816227
2.43108504398827
2.4349951124144678
2.4330400782013686
2.4242424242424243
2.409579667644184
2.391006842619746
2.367546432062561
2.3382209188660803
2.304007820136853
2.2668621700879767
2.225806451612903
2.1837732160312804
2.139784946236559
2.09188660801564
2.0449657869012707
2.005865102639296
1.9726295210166176
1.93841642228739
1.903225806451613
1.869012707722385
1.839687194525904
1.8142717497556209
1.7917888563049853
1.7702834799608993
1.7487781036168133
1.7282502443792769
1.70772238514174
1.689149560117302
1.6735092864125125
1.66177908113392
1.651026392961877
1.640273704789834
1.6314760508308896
1.6226783968719452
1.6158357771260996
1.6099706744868034
1.6041055718475072
1.5992179863147604
1.5933528836754642
1.5835777126099706
1.573802541544477
1.564027370478983
1.5513196480938416
1.5366568914956011
1.521994134897361
1.5083088954056696
1.4965786901270772
1.4858260019550342
1.4750733137829912
1.4643206256109482
1.4545454545454546
1.4437927663734116
1.435972629521017
1.4320625610948192
1.4301075268817205
1.4281524926686218
1.426197458455523
1.4594330400782014
1.5112414467253177
1.5376344086021505
1.5503421309872922
1.5542521994134897
1.5513196480938416
1.544477028347996
1.5356793743890518
1.5288367546432062
1.52297165200391
1.5141739980449658
1.5053763440860215
1.495601173020528
1.4868035190615836
1.479960899315738
1.474095796676442
1.4711632453567938
1.4731182795698925
1.4809384164222874
1.4946236559139785
1.5180840664711632
1.5483870967741935
1.5865102639296187
1.6392961876832846
1.7028347996089932
1.7761485826001957
1.8563049853372435
1.9423264907135875
2.0332355816226784
2.12316715542522
2.207233626588465
2.2873900293255134
2.360703812316716
2.4164222873900294
2.4604105571847508
2.504398826979472
2.544477028347996
2.578690127077224
2.606060606060606
2.627565982404692
2.64613880742913
2.66177908113392
2.6725317693059627
2.681329423264907
2.6881720430107525
2.6940371456500487
2.6959921798631474
2.6940371456500487
2.69208211143695
2.6881720430107525
2.6823069403714563
2.673509286412512
2.6578690127077222
2.636363636363636
2.608993157380254
2.575757575757576
2.535679374389052
2.4916911045943304
2.449657869012708
2.409579667644184
2.366568914956012
2.3255131964809386
2.289345063538612
2.257086999022483
2.2297165200391005
2.2052785923753664
2.1808406647116323
2.155425219941349
2.131964809384164
2.10850439882698
2.0840664711632453
2.06158357771261
2.043010752688172
2.0254154447702835
2.0087976539589443
1.9931573802541545
1.978494623655914
1.9667644183773216
1.9550342130987293
1.9442815249266865
1.9305962854349952
1.916911045943304
1.902248289345064
1.8866080156402736
1.870967741935484
1.8533724340175952
1.833822091886608
1.81524926686217
1.7986314760508308
