ppg
1.8084066471163245
1.7624633431085044
1.7233626588465298
1.6881720430107527
1.6490713587487782
1.608993157380254
1.5679374389051808
1.5268817204301075
1.4868035190615836
1.447702834799609
1.4105571847507332
1.3763440860215057
1.3440860215053765
1.313782991202346
1.2873900293255132
1.2688172043010753
1.2561094819159335
1.241446725317693
1.227761485826002
1.2160312805474096
1.2082111436950147
1.2023460410557183
1.1994134897360704
1.198435972629521
1.1994134897360704
1.2013685239491692
1.2052785923753666
1.2111436950146628
1.2189638318670577
1.2267839687194526
1.2355816226783969
1.24633431085044
1.2590420332355816
1.2727272727272727
1.2873900293255132
1.303030303030303
1.3206256109481915
1.33822091886608
1.356793743890518
1.3782991202346042
1.4007820136852396
1.4271749755620724
1.4623655913978495
1.509286412512219
1.5669599217986314
1.6363636363636365
1.7165200391006843
1.8054740957966764
1.900293255131965
2.0
2.101661779081134
2.201368523949169
2.2854349951124147
2.3597262952101663
2.4408602150537635
2.5210166177908118
2.5962854349951123
2.6666666666666665
2.730205278592375
2.787878787878788
2.8396871945259043
2.884652981427175
2.924731182795699
2.9579667644183774
2.9824046920821115
2.994134897360704
2.995112414467253
2.9931573802541545
2.9853372434017595
2.970674486803519
2.948191593352884
2.916911045943304
2.877810361681329
2.834799608993157
2.787878787878788
2.73802541544477
2.686217008797654
2.638318670576735
2.593352883675464
2.5464320625610948
2.4975562072336266
2.450635386119257
2.4056695992179864
2.3626588465298144
2.321603128054741
2.281524926686217
2.243401759530792
2.207233626588465
2.172043010752688
2.1378299120234603
2.1065493646138806
2.075268817204301
2.0391006842619745
1.9990224828934504
1.956989247311828
1.913978494623656
1.8699902248289344
1.8240469208211143
1.7761485826001957
1.726295210166178
1.6774193548387095
1.629521016617791
1.5894428152492668
1.5532746823069403
1.5131964809384164
1.4701857282502444
1.4271749755620724
1.3861192570869991
1.3470185728250244
1.3088954056695992
1.2717497556207231
1.2365591397849462
1.2052785923753666
1.176930596285435
1.1515151515151516
1.133919843597263
1.1221896383186705
1.1085043988269794
1.093841642228739
1.078201368523949
1.0635386119257086
1.050830889540567
1.0410557184750733
1.0342130987292275
1.029325513196481
1.0254154447702837
1.0234604105571847
1.0273704789833822
1.0342130987292275
1.0391006842619743
1.0439882697947214
1.0498533724340176
1.0576735092864125
1.067448680351906
1.0791788856304985
1.0918866080156402
1.1065493646138806
1.1202346041055715
1.133919843597263
1.1495601173020529
1.1691104594330402
1.1935483870967742
1.2267839687194526
1.2717497556207231
1.3304007820136852
1.4027370478983383
1.487781036168133
1.58455522971652
1.6881720430107527
1.7956989247311828
1.9042033235581624
2.0127077223851417
2.1055718475073317
2.188660801564027
2.278592375366569
2.3685239491691106
2.4545454545454546
2.536656891495601
2.6129032258064515
2.6823069403714563
2.744868035190616
2.798631476050831
2.843597262952102
2.8807429130009776
2.9042033235581624
2.9159335288367547
2.924731182795699
2.9266862170087977
2.919843597262952
2.905180840664712
2.8836754643206257
2.8533724340175954
2.81622678396872
2.773216031280548
2.727272727272727
2.678396871945259
2.627565982404692
2.579667644183773
2.533724340175953
2.487781036168133
2.442815249266862
2.39980449657869
2.357771260997068
2.3167155425219943
2.2766373411534704
2.2375366568914954
2.19941348973607
2.160312805474096
2.1221896383186705
2.0879765395894427
2.0547409579667644
2.0175953079178885
1.9765395894428155
1.9335288367546437
1.889540566959922
1.8455522971652003
1.8025415444770283
1.761485826001955
1.7233626588465298
1.6871945259042034
1.6529814271749756
1.6207233626588464
1.5943304007820136
1.5708699902248289
1.544477028347996
1.5151515151515151
1.4838709677419355
1.4516129032258065
1.4193548387096775
1.388074291300098
1.3607038123167154
1.3372434017595307
1.3176930596285434
1.3020527859237536
1.2942326490713587
1.2903225806451613
1.2864125122189638
1.281524926686217
1.2756598240469208
1.2697947214076246
1.2639296187683284
1.2580645161290325
1.2531769305962854
1.2502443792766371
1.2502443792766371
1.2541544477028348
1.2561094819159335
1.2590420332355816
1.267839687194526
1.2795698924731185
1.2932551319648091
1.3098729227761483
1.3264907135874875
1.343108504398827
1.3587487781036167
1.3743890518084063
1.3900293255131966
1.4066471163245358
1.4271749755620724
1.4486803519061584
1.4731182795698925
1.5053763440860215
1.5454545454545454
1.5923753665689149
1.6480938416422288
1.7116324535679377
1.782991202346041
1.8621700879765395
1.9472140762463344
2.038123167155425
2.131964809384164
2.228739002932551
2.3118279569892475
2.3870967741935485
2.469208211143695
2.552297165200391
2.632453567937439
2.70772238514174
2.776148582600196
2.8377321603128056
2.889540566959922
2.932551319648094
2.9657869012707723
2.9902248289345064
3.0009775171065494
3.0019550342130987
2.9980449657869013
2.989247311827957
2.9745845552297165
2.951124144672532
2.919843597262952
2.8807429130009776
2.835777126099707
2.7859237536656893
2.732160312805474
2.677419354838709
2.6236559139784945
2.573802541544477
2.527859237536657
2.479960899315738
2.432062561094819
2.386119257086999
2.3440860215053765
2.303030303030303
2.2639296187683287
2.2277614858260018
2.1925708699902247
2.157380254154448
2.12316715542522
2.09188660801564
2.0625610948191597
2.0303030303030303
1.9960899315738023
1.9589442815249267
1.919843597262952
1.878787878787879
1.835777126099707
1.790811339198436
1.7448680351906158
1.6989247311827955
1.653958944281525
1.6109481915933528
1.5747800586510263
1.543499511241447
1.5083088954056696
1.4711632453567938
1.4349951124144673
1.3988269794721409
1.3636363636363635
1.3304007820136852
1.300097751710655
1.2717497556207231
1.2453567937438903
1.2209188660801564
1.2043010752688172
1.1915933528836755
1.1759530791788857
1.1593352883675463
1.141739980449658
1.1251221896383188
1.1094819159335287
1.096774193548387
1.086021505376344
1.078201368523949
1.0713587487781036
1.067448680351906
1.064516129032258
1.0654936461388074
1.0694037145650048
1.0713587487781036
1.0733137829912025
1.0772238514173995
1.083088954056696
1.0909090909090908
1.099706744868035
1.1085043988269794
1.1163245356793745
1.1251221896383188
1.1348973607038124
1.1485826001955035
1.1671554252199414
1.1906158357771262
1.2238514173998043
1.270772238514174
1.3313782991202343
1.4076246334310851
1.499511241446725
1.6041055718475072
1.7174975562072337
1.8347996089931573
1.9530791788856303
2.069403714565005
2.167155425219941
2.254154447702835
2.346041055718475
2.4349951124144678
2.520039100684262
2.598240469208211
2.6695992179863146
2.7331378299120237
2.788856304985337
2.8367546432062563
2.875855327468231
2.906158357771261
2.921798631476051
2.927663734115347
2.930596285434995
2.9266862170087977
2.9149560117302054
2.895405669599218
2.8690127077223853
2.834799608993157
2.792766373411535
2.745845552297165
2.695014662756598
2.643206256109482
2.592375366568915
2.5464320625610948
2.504398826979472
2.462365591397849
2.420332355816227
2.3792766373411536
2.340175953079179
2.302052785923754
2.2639296187683287
2.2267839687194524
2.190615835777126
2.1544477028347995
2.1163245356793743
2.0821114369501466
2.048875855327468
2.0117302052785924
1.970674486803519
1.9266862170087975
1.8797653958944285
1.8318670576735088
1.7820136852394917
1.732160312805474
1.6823069403714566
1.6334310850439884
1.5865102639296187
1.5483870967741935
1.5141739980449658
1.4760508308895406
1.435972629521017
1.3958944281524928
1.3577712609970674
1.3225806451612905
1.2883675464320623
1.2551319648093842
1.224828934506354
1.198435972629521
1.1730205278592376
1.1495601173020529
1.133919843597263
1.1231671554252198
1.1114369501466277
1.1016617790811338
1.0948191593352885
1.0909090909090908
1.0899315738025417
1.0928641251221896
1.0987292277614855
1.1055718475073313
1.1124144672531768
1.121212121212121
1.1329423264907137
1.1466275659824048
1.1612903225806452
1.1779081133919844
1.1945259042033236
1.2140762463343109
1.2355816226783969
1.2590420332355816
1.2834799608993157
1.3098729227761483
1.3391984359726294
1.3724340175953078
1.409579667644184
1.4457478005865103
1.482893450635386
1.5268817204301075
1.5757575757575757
1.6304985337243405
1.6911045943304008
1.7565982404692082
1.828934506353861
1.90811339198436
1.992179863147605
2.080156402737048
2.1710654936461387
2.2482893450635384
2.317693059628544
2.3949169110459434
2.4731182795698925
2.548387096774193
2.619745845552297
2.686217008797654
2.745845552297165
2.798631476050831
2.843597262952102
2.8807429130009776
2.909090909090909
2.929618768328446
2.93841642228739
2.936461388074292
2.929618768328446
2.9159335288367547
2.8963831867057674
2.8699902248289346
2.835777126099707
2.7976539589442817
2.755620723362659
2.710654936461388
2.6637341153470184
2.616813294232649
2.572825024437928
2.532746823069404
2.49266862170088
2.453567937438905
2.41544477028348
2.380254154447703
2.3391984359726297
2.2952101661779083
2.259042033235582
2.2248289345063537
2.1925708699902247
2.161290322580645
2.1300097751710654
2.1006842619745845
2.072336265884653
2.0410557184750733
2.005865102639296
1.9687194525904204
1.9296187683284456
1.8875855327468232
1.842619745845552
1.7956989247311828
1.7458455522971652
1.6950146627565983
1.643206256109482
1.5992179863147604
1.560117302052786
1.5180840664711632
1.474095796676442
1.4301075268817205
1.3890518084066472
1.3509286412512218
1.313782991202346
1.278592375366569
1.2443792766373412
1.2130987292277615
1.18475073313783
1.1583577712609971
1.141739980449658
1.1290322580645162
1.115347018572825
1.1016617790811338
1.0909090909090908
1.0811339198435972
1.072336265884653
1.0635386119257086
1.0557184750733135
1.050830889540567
1.0488758553274682
1.0478983382209188
1.0498533724340176
1.053763440860215
1.0576735092864125
1.0635386119257086
1.0703812316715542
1.0791788856304985
1.0899315738025417
1.1016617790811338
1.1143695014662756
1.1280547409579669
1.1436950146627567
1.1612903225806452
1.1827956989247312
1.206256109481916
1.2355816226783969
1.2746823069403714
1.324535679374389
1.3861192570869991
1.4594330400782014
1.544477028347996
1.640273704789834
1.7429130009775171
1.8494623655913975
1.9589442815249267
2.0664711632453567
2.157380254154448
2.236559139784946
2.320625610948192
2.404692082111437
2.4838709677419355
2.5562072336265884
2.6207233626588464
2.678396871945259
2.729227761485826
2.774193548387097
2.811339198435973
2.841642228739003
2.8641251221896384
2.873900293255132
2.873900293255132
2.8719452590420333
2.86217008797654
2.844574780058651
2.819159335288368
2.78494623655914
2.7419354838709675
2.695014662756598
2.6451612903225805
2.5943304007820136
2.5434995112414467
2.4975562072336266
2.4545454545454546
2.4115347018572826
2.3685239491691106
2.326490713587488
2.2854349951124147
2.24633431085044
2.210166177908113
2.175953079178885
2.1417399804496577
2.10752688172043
2.072336265884653
2.035190615835777
2.0009775171065494
1.967741935483871
1.9305962854349952
1.8885630498533723
1.8435972629521016
1.796676441837732
1.7487781036168133
1.7008797653958945
1.6529814271749756
1.6050830889540566
1.5571847507331378
1.5112414467253177
1.474095796676442
1.439882697947214
1.4007820136852396
1.3616813294232648
1.3225806451612905
1.2854349951124144
1.2502443792766371
1.217008797653959
1.1867057673509287
1.1583577712609971
1.1329423264907137
1.110459433040078
1.0948191593352885
1.0840664711632453
1.072336265884653
1.06158357771261
1.053763440860215
1.0478983382209188
1.0439882697947214
1.0420332355816226
1.043010752688172
1.0449657869012707
1.0478983382209188
1.0518084066471165
1.0576735092864125
1.0664711632453567
1.078201368523949
1.0909090909090908
1.1036168132942326
1.1163245356793745
1.1290322580645162
1.1436950146627567
1.1593352883675463
1.1779081133919844
1.1964809384164223
1.2160312805474096
1.2375366568914956
1.2609970674486803
1.2873900293255132
1.321603128054741
1.364613880742913
1.41544477028348
1.47702834799609
1.5464320625610948
1.6236559139784943
1.7067448680351909
1.7956989247311828
1.8885630498533723
1.9843597262952104
2.080156402737048
2.1622678396871944
2.2375366568914954
2.320625610948192
2.4056695992179864
2.490713587487781
2.572825024437928
2.650048875855328
2.720430107526881
2.7839687194525906
2.8396871945259043
2.887585532746823
2.9266862170087977
2.9501466275659824
2.962854349951124
2.9745845552297165
2.9824046920821115
2.9824046920821115
2.973607038123167
2.956011730205278
2.930596285434995
2.898338220918866
2.859237536656892
2.8152492668621703
2.76930596285435
2.7223851417399803
2.678396871945259
2.636363636363636
2.593352883675464
2.550342130987292
2.509286412512219
2.4701857282502444
2.43108504398827
2.3929618768328447
2.3548387096774195
2.317693059628544
2.2825024437927666
2.247311827956989
2.21505376344086
2.1837732160312804
2.1485826001955037
2.1114369501466275
2.074291300097752
2.035190615835777
1.9951124144672527
1.9550342130987293
1.9149560117302051
1.873900293255132
1.8347996089931573
1.7976539589442817
1.761485826001955
1.732160312805474
1.7057673509286413
1.678396871945259
1.6520039100684265
1.6285434995112416
1.6080156402737047
1.5894428152492668
1.5728250244379276
1.5581622678396871
1.5454545454545454
1.533724340175953
1.52297165200391
1.5161290322580645
1.5112414467253177
1.5053763440860215
1.500488758553275
1.495601173020528
1.4897360703812317
1.4848484848484849
1.478983382209189
1.4721407624633431
1.4652981427174976
1.4594330400782014
1.4545454545454546
1.4496578690127078
1.4486803519061584
1.4496578690127078
1.4535679374389052
1.4594330400782014
1.4682306940371457
1.479960899315738
1.4946236559139785
1.512218963831867
1.530791788856305
1.5493646138807429
1.56891495601173
1.590420332355816
1.607038123167155
1.624633431085044
1.6578690127077225
1.704789833822092
1.7634408602150538
1.8347996089931573
1.9178885630498532
2.0097751710654936
2.1094819159335287
2.2130987292277613
2.317693059628544
2.421309872922776
1.072336265884653
1.0801564027370478
1.088954056695992
1.0987292277614855
1.1114369501466277
1.1251221896383188
1.13880742913001
1.1515151515151516
1.164222873900293
1.176930596285435
1.1896383186705768
1.2043010752688172
1.2639296187683284
1.3470185728250244
1.401759530791789
1.4457478005865103
1.4897360703812317
1.5386119257087
1.5962854349951123
1.6637341153470186
1.7409579667644184
1.8269794721407624
1.920821114369501
2.005865102639296
2.086021505376344
2.176930596285435
2.270772238514174
2.364613880742913
2.4545454545454546
2.5386119257087
2.6158357771261
2.687194525904203
2.752688172043011
2.811339198435973
2.863147605083089
2.90811339198436
2.93841642228739
2.959921798631476
2.978494623655914
2.9902248289345064
2.995112414467253
2.9902248289345064
2.975562072336266
2.952101661779081
2.920821114369501
2.8826979472140764
2.838709677419355
2.790811339198436
2.7438905180840663
2.697947214076246
2.6480938416422286
2.598240469208211
2.550342130987292
2.5034213098729228
2.4594330400782014
2.4173998044965788
2.378299120234604
2.3421309872922778
2.30791788856305
2.274682306940372
2.243401759530792
2.21505376344086
2.188660801564027
2.160312805474096
2.1300097751710654
2.0977517106549364
2.0625610948191597
2.024437927663734
1.9833822091886608
1.9403714565004888
1.8963831867057677
1.8504398826979471
1.8035190615835777
1.7624633431085044
1.7233626588465298
1.6793743890518085
1.6334310850439884
1.5884652981427174
1.5454545454545454
1.5053763440860215
1.4672531769305963
1.43108504398827
1.3958944281524928
1.3636363636363635
1.3343108504398826
1.305962854349951
1.2834799608993157
1.2658846529814272
1.24633431085044
1.2267839687194526
1.2101661779081134
1.1945259042033236
1.1798631476050832
1.1671554252199414
1.1573802541544478
1.1505376344086022
1.1466275659824048
1.144672531769306
1.147605083088954
1.152492668621701
1.1564027370478984
1.160312805474096
1.166177908113392
1.1730205278592376
1.181818181818182
1.1935483870967742
1.206256109481916
1.2179863147605083
1.2297165200391007
1.2404692082111437
1.2512218963831867
1.2639296187683284
1.278592375366569
1.295210166177908
1.3176930596285434
1.3479960899315735
1.3890518084066472
1.4428152492668622
1.5102639296187683
1.590420332355816
1.6813294232649072
1.7810361681329423
1.8856304985337244
1.9794721407624636
2.065493646138808
2.161290322580645
2.260997067448681
2.3597262952101663
2.4545454545454546
2.5454545454545454
2.631476050830889
2.7126099706744866
2.788856304985337
2.857282502443793
2.916911045943304
2.9687194525904204
3.002932551319648
3.026392961876833
3.0498533724340176
3.069403714565005
3.0821114369501466
3.085043988269794
3.078201368523949
3.0625610948191597
3.040078201368524
3.010752688172043
2.9775171065493646
2.9423264907135875
2.905180840664712
2.868035190615836
2.83088954056696
2.793743890518084
2.757575757575758
2.7223851417399803
2.6881720430107525
2.654936461388074
2.621700879765396
2.587487781036168
2.5542521994134897
2.5219941348973607
2.489736070381232
2.4594330400782014
2.4301075268817205
2.3978494623655915
2.3626588465298144
2.324535679374389
2.2825024437927666
2.2375366568914954
2.189638318670577
2.139784946236559
2.0879765395894427
2.034213098729228
1.981427174975562
1.935483870967742
1.8944281524926687
1.8494623655913975
1.8025415444770283
1.7575757575757576
1.7135874877810362
1.6695992179863148
1.6285434995112416
1.590420332355816
1.5532746823069403
1.517106549364614
1.4848484848484849
1.455522971652004
1.434017595307918
1.418377321603128
1.4027370478983383
1.388074291300098
1.3743890518084063
1.3607038123167154
1.348973607038123
1.3391984359726294
1.3313782991202343
1.324535679374389
1.3186705767350928
1.313782991202346
1.313782991202346
1.316715542521994
1.3186705767350928
1.3196480938416422
1.3206256109481915
1.3225806451612905
1.3264907135874875
1.3333333333333333
1.343108504398827
1.3548387096774193
1.367546432062561
1.3812316715542523
1.3958944281524928
1.4115347018572826
1.4281524926686218
1.447702834799609
1.4711632453567938
1.5034213098729228
1.5454545454545454
1.598240469208211
1.66177908113392
1.7360703812316716
1.818181818181818
1.90811339198436
2.0019550342130987
2.0840664711632453
2.1593352883675463
2.243401759530792
2.3284457478005867
2.412512218963832
2.49266862170088
2.56891495601173
2.6392961876832843
2.704789833822092
2.764418377321604
2.8181818181818183
2.865102639296188
2.897360703812317
2.919843597262952
2.940371456500489
2.9550342130987293
2.960899315738025
2.9579667644183774
2.946236559139785
2.9257086999022484
2.8963831867057674
2.8582600195503423
2.814271749755621
2.764418377321604
2.7116324535679373
2.66177908113392
2.6148582600195502
2.565982404692082
2.5180840664711632
2.4731182795698925
2.43108504398827
2.3929618768328447
2.356793743890518
2.3225806451612905
2.289345063538612
2.257086999022483
2.225806451612903
2.1974584555229715
2.16911045943304
2.1358748778103616
2.0977517106549364
2.056695992179863
2.0117302052785924
1.962854349951124
1.9120234604105573
1.8269794721407624
1.7243401759530792
1.6441837732160314
1.576735092864125
1.517106549364614
1.4701857282502444
1.4301075268817205
1.3870967741935485
1.3450635386119256
1.3049853372434017
1.2668621700879763
1.2316715542521994
1.1994134897360704
1.1700879765395895
1.141739980449658
1.1163245356793745
1.093841642228739
1.078201368523949
1.067448680351906
1.053763440860215
1.040078201368524
1.0273704789833822
1.0146627565982405
1.002932551319648
0.9912023460410556
0.9804496578690128
0.9706744868035192
0.9628543499511242
0.9579667644183774
0.9560117302052786
0.959921798631476
0.967741935483871
0.9745845552297164
0.9833822091886608
0.9931573802541545
1.002932551319648
1.013685239491691
1.0254154447702837
1.0391006842619743
1.050830889540567
1.0625610948191593
1.075268817204301
1.088954056695992
1.104594330400782
1.1231671554252198
1.1466275659824048
1.1788856304985338
1.219941348973607
1.270772238514174
1.3333333333333333
1.4086021505376345
1.4936461388074291
1.5865102639296187
1.6852394916911049
1.7888563049853372
1.8807429130009776
1.964809384164223
2.058651026392962
2.156402737047898
2.254154447702835
2.3489736070381237
2.439882697947214
2.527859237536657
2.610948191593353
2.6881720430107525
2.758553274682307
2.820136852394917
2.8641251221896384
2.8963831867057674
2.9257086999022484
2.949169110459433
2.964809384164223
2.9696969696969697
2.963831867057673
2.948191593352884
2.924731182795699
2.89247311827957
2.852394916911046
2.807429130009776
2.7595307917888565
2.713587487781036
2.667644183773216
2.6207233626588464
2.573802541544477
2.5288367546432062
2.484848484848485
2.442815249266862
2.4027370478983383
2.3626588465298144
2.321603128054741
2.281524926686217
2.241446725317693
2.2052785923753664
2.1700879765395893
2.131964809384164
2.0928641251221896
2.0518084066471163
2.007820136852395
1.9618768328445748
1.9130009775171064
1.8621700879765395
1.8103616813294232
1.758553274682307
1.70772238514174
1.656891495601173
1.6138807429130009
1.5747800586510263
1.530791788856305
1.4858260019550342
1.4408602150537635
1.3988269794721409
1.3577712609970674
1.3186705767350928
1.281524926686217
1.24633431085044
1.2140762463343109
1.1857282502443791
1.166177908113392
1.1505376344086022
1.1319648093841643
1.1124144672531768
1.096774193548387
1.0879765395894427
1.0811339198435972
1.0772238514173995
1.0772238514173995
1.078201368523949
1.0821114369501466
1.0869990224828934
1.0928641251221896
1.1006842619745845
1.1094819159335287
1.1163245356793745
1.1241446725317692
1.133919843597263
1.1436950146627567
1.1544477028347997
1.166177908113392
1.1788856304985338
1.1925708699902249
1.2072336265884651
1.2238514173998043
1.241446725317693
1.2590420332355816
1.2776148582600195
1.3010752688172045
1.3313782991202343
1.3714565004887584
1.423264907135875
1.4868035190615836
1.5620723362658846
1.6480938416422288
1.7429130009775171
1.8435972629521016
1.948191593352884
2.0391006842619745
2.1221896383186705
2.2140762463343107
2.30791788856305
2.39980449657869
2.486803519061584
2.567937438905181
2.6422287390029324
2.7096774193548385
2.76930596285435
2.822091886608016
2.868035190615836
2.898338220918866
2.918866080156403
2.9374389051808407
2.949169110459433
2.952101661779081
2.945259042033236
2.9286412512218964
2.903225806451613
2.870967741935484
2.8299120234604107
2.782013685239492
2.7282502443792764
2.675464320625611
2.624633431085044
2.5698924731182795
2.5131964809384164
2.458455522971652
2.4056695992179864
2.355816226783969
2.3088954056695994
2.2639296187683287
2.2218963831867056
2.1818181818181817
2.1436950146627565
2.1065493646138806
2.0733137829912023
2.0439882697947214
2.0117302052785924
1.9794721407624636
1.945259042033236
1.9090909090909087
1.870967741935484
1.83088954056696
1.7878787878787878
1.7419354838709675
1.6950146627565983
1.6451612903225807
1.6011730205278591
1.5620723362658846
1.5180840664711632
1.474095796676442
1.43108504398827
1.3890518084066472
1.348973607038123
1.3118279569892473
1.2766373411534702
1.241446725317693
1.206256109481916
1.1720430107526882
1.1407624633431086
1.118279569892473
1.1006842619745845
1.0791788856304985
1.056695992179863
1.0361681329423265
1.0195503421309873
1.0058651026392962
0.9941348973607038
0.9863147605083088
0.9794721407624634
0.9745845552297164
0.9716520039100685
0.9736070381231672
0.978494623655914
0.9804496578690128
