ppg
1.825024437927664
1.8005865102639296
1.7732160312805474
1.7468230694037146
1.721407624633431
1.6920821114369502
1.6598240469208212
1.6265884652981428
1.5923753665689149
1.5581622678396871
1.5239491691104594
1.490713587487781
1.458455522971652
1.4271749755620724
1.396871945259042
1.3714565004887584
1.3509286412512218
1.3284457478005864
1.305962854349951
1.2834799608993157
1.2619745845552297
1.2424242424242424
1.2228739002932552
1.2052785923753666
1.1896383186705768
1.1749755620723363
1.160312805474096
1.1456500488758554
1.1348973607038124
1.1251221896383188
1.1143695014662756
1.1026392961876832
1.0909090909090908
1.0801564027370478
1.0694037145650048
1.0596285434995112
1.0498533724340176
1.0410557184750733
1.032258064516129
1.024437927663734
1.0205278592375366
1.0195503421309873
1.0166177908113392
1.0127077223851415
1.007820136852395
1.0039100684261977
1.0009775171065494
0.9990224828934506
0.997067448680352
0.9960899315738024
0.9951124144672532
0.9960899315738024
0.9990224828934506
1.0048875855327468
1.0117302052785924
1.0156402737047898
1.018572825024438
1.0205278592375366
1.0205278592375366
1.0195503421309873
1.0166177908113392
1.0127077223851415
1.007820136852395
1.0019550342130987
0.9951124144672532
0.9912023460410556
0.9882697947214076
0.9843597262952102
0.9824046920821116
0.9882697947214076
1.0068426197458455
1.04594330400782
1.1124144672531768
1.2121212121212122
1.3450635386119256
1.509286412512219
1.6989247311827955
1.9042033235581624
2.0869990224828934
2.2531769305962857
2.43108504398827
2.60019550342131
2.7468230694037143
2.865102639296188
2.9530791788856305
3.0087976539589443
3.034213098729228
3.0332355816226784
3.010752688172043
2.970674486803519
2.920821114369501
2.863147605083089
2.7966764418377323
2.7253176930596283
2.6529814271749754
2.581622678396872
2.5131964809384164
2.4486803519061584
2.389051808406647
2.333333333333333
2.280547409579668
2.23069403714565
2.182795698924731
2.139784946236559
2.0987292277614857
2.056695992179863
2.013685239491691
1.9726295210166176
1.9345063538611929
1.900293255131965
1.8729227761485825
1.8523949169110456
1.8377321603128052
1.8299120234604105
1.8269794721407624
1.827956989247312
1.83088954056696
1.8377321603128052
1.847507331378299
1.857282502443793
1.8670576735092863
1.873900293255132
1.87683284457478
1.8748778103616808
1.869012707722385
1.857282502443793
1.8406647116324533
1.822091886608016
1.8025415444770283
1.7781036168132942
1.750733137829912
1.721407624633431
1.689149560117302
1.6559139784946235
1.6217008797653958
1.5865102639296187
1.5532746823069403
1.521016617790811
1.4897360703812317
1.4604105571847508
1.435972629521017
1.414467253176931
1.3900293255131966
1.3655913978494625
1.3421309872922775
1.3196480938416422
1.2991202346041055
1.278592375366569
1.2590420332355816
1.2394916911045943
1.2209188660801564
1.2043010752688172
1.1925708699902249
1.1837732160312806
1.1730205278592376
1.1612903225806452
1.1495601173020529
1.1378299120234605
1.126099706744868
1.115347018572825
1.104594330400782
1.0957966764418376
1.0879765395894427
1.0811339198435972
1.0742913000977516
1.0703812316715542
1.067448680351906
1.0625610948191593
1.0576735092864125
1.0518084066471165
1.04594330400782
1.0410557184750733
1.0381231671554252
1.0371456500488758
1.0381231671554252
1.040078201368524
1.043010752688172
1.053763440860215
1.067448680351906
1.0762463343108504
1.083088954056696
1.0869990224828934
1.088954056695992
1.0899315738025417
1.0899315738025417
1.088954056695992
1.0869990224828934
1.0840664711632453
1.0811339198435972
1.0772238514173995
1.0742913000977516
1.0713587487781036
1.0654936461388074
1.06158357771261
1.0625610948191593
1.0733137829912025
1.1016617790811338
1.1534701857282503
1.2355816226783969
1.3509286412512218
1.498533724340176
1.6744868035190617
1.8416422287390029
2.005865102639296
2.1945259042033234
2.388074291300098
2.570869990224829
2.732160312805474
2.865102639296188
2.964809384164223
3.03128054740958
3.065493646138808
3.072336265884653
3.0557184750733137
3.0195503421309877
2.972629521016618
2.916911045943304
2.8533724340175954
2.7839687194525906
2.7116324535679373
2.641251221896383
2.573802541544477
2.5102639296187683
2.4516129032258065
2.3978494623655915
2.3489736070381237
2.303030303030303
2.26197458455523
2.2238514173998043
2.1847507331378297
2.144672531769306
2.104594330400782
2.064516129032258
2.026392961876833
1.992179863147605
1.9618768328445748
1.9374389051808407
1.9188660801564028
1.9071358748778104
1.9012707722385145
1.8983382209188664
1.8973607038123168
1.9012707722385145
1.90811339198436
1.916911045943304
1.924731182795699
1.9305962854349952
1.9335288367546437
1.9345063538611929
1.9315738025415443
1.924731182795699
1.913978494623656
1.9012707722385145
1.8856304985337244
1.865102639296188
1.839687194525904
1.812316715542522
1.782991202346041
1.75366568914956
1.7233626588465298
1.6930596285434996
1.6627565982404693
1.632453567937439
1.6041055718475072
1.576735092864125
1.5532746823069403
1.5327468230694037
1.5112414467253177
1.4887585532746823
1.4682306940371457
1.4486803519061584
1.43108504398827
1.414467253176931
1.3978494623655917
1.3822091886608017
1.3665689149560116
1.3509286412512218
1.3391984359726294
1.3284457478005864
1.316715542521994
1.3040078201368523
1.2913000977517106
1.2795698924731185
1.267839687194526
1.2570869990224829
1.24633431085044
1.2365591397849462
1.227761485826002
1.219941348973607
1.2130987292277615
1.209188660801564
1.2072336265884651
1.2043010752688172
1.2013685239491692
1.198435972629521
1.1964809384164223
1.195503421309873
1.195503421309873
1.1974584555229717
1.2013685239491692
1.206256109481916
1.2111436950146628
1.217008797653959
1.2228739002932552
1.2267839687194526
1.2297165200391007
1.2316715542521994
1.2316715542521994
1.23069403714565
1.227761485826002
1.2238514173998043
1.2179863147605083
1.2111436950146628
1.2023460410557183
1.1935483870967742
1.1886608015640274
1.1886608015640274
1.1974584555229717
1.2218963831867058
1.2688172043010753
1.3440860215053765
1.452590420332356
1.5943304007820136
1.7653958944281525
1.9579667644183771
2.163245356793744
2.3704789833822093
2.5434995112414467
2.6901270772238512
2.8367546432062563
2.9667644183773216
3.070381231671554
3.144672531769306
3.189638318670577
3.207233626588465
3.201368523949169
3.176930596285435
3.1378299120234603
3.088954056695992
3.0332355816226784
2.975562072336266
2.918866080156403
2.860215053763441
2.803519061583578
2.750733137829912
2.701857282502444
2.6559139784946235
2.613880742913001
2.573802541544477
2.533724340175953
2.4946236559139785
2.453567937438905
2.412512218963832
2.3714565004887587
2.3274682306940373
2.2825024437927666
2.2385141739980448
2.196480938416422
2.157380254154448
2.121212121212121
2.090909090909091
2.065493646138808
2.0449657869012707
2.0303030303030303
2.018572825024438
2.0087976539589443
2.0019550342130987
1.997067448680352
1.9931573802541545
1.989247311827957
1.9843597262952104
1.9765395894428155
1.9667644183773216
1.95405669599218
1.9393939393939397
1.921798631476051
1.9012707722385145
1.8797653958944285
1.857282502443793
1.8299120234604105
1.7996089931573802
1.7673509286412512
1.7341153470185728
1.699902248289345
1.6666666666666667
1.632453567937439
1.5992179863147604
1.5669599217986314
1.5347018572825024
1.5073313782991202
1.4838709677419355
1.458455522971652
1.4330400782013686
1.4076246334310851
1.3841642228739004
1.3616813294232648
1.3401759530791788
1.3206256109481915
1.303030303030303
1.2854349951124144
1.2697947214076246
1.2541544477028348
1.2424242424242424
1.2316715542521994
1.2189638318670577
1.206256109481916
1.1935483870967742
1.181818181818182
1.1700879765395895
1.160312805474096
1.1515151515151516
1.142717497556207
1.133919843597263
1.1251221896383188
1.1192570869990224
1.115347018572825
1.110459433040078
1.1055718475073313
1.1016617790811338
1.0987292277614855
1.0977517106549364
1.0987292277614855
1.1006842619745845
1.1036168132942326
1.1065493646138806
1.1085043988269794
1.110459433040078
1.1133919843597262
1.1163245356793745
1.115347018572825
1.1133919843597262
1.110459433040078
1.1065493646138806
1.086021505376344
1.056695992179863
1.0371456500488758
1.021505376344086
1.010752688172043
1.0068426197458455
1.010752688172043
1.0273704789833822
1.0635386119257086
1.1251221896383188
1.2160312805474096
1.3362658846529814
1.4848484848484849
1.653958944281525
1.836754643206256
2.0234604105571847
2.204301075268817
2.3714565004887587
2.517106549364614
2.6236559139784945
2.697947214076246
2.7595307917888565
2.80058651026393
2.819159335288368
2.817204301075269
2.7976539589442817
2.764418377321604
2.721407624633431
2.6725317693059627
2.619745845552297
2.5669599217986314
2.517106549364614
2.4711632453567938
2.4252199413489737
2.3812316715542523
2.3382209188660803
2.2991202346041058
2.26197458455523
2.225806451612903
2.189638318670577
2.1524926686217007
2.113391984359726
2.072336265884653
2.029325513196481
1.989247311827957
1.9530791788856303
1.9159335288367547
1.881720430107527
1.8504398826979471
1.8240469208211143
1.801564027370479
1.7839687194525904
1.7712609970674489
1.761485826001955
1.7556207233626588
1.7526881720430108
1.7497556207233629
1.7468230694037146
1.7448680351906158
1.7419354838709675
1.737047898338221
1.7302052785923754
1.7194525904203324
1.704789833822092
1.6871945259042034
1.6666666666666667
1.643206256109482
1.6187683284457477
1.5923753665689149
1.5679374389051808
1.544477028347996
1.5180840664711632
1.4897360703812317
1.4604105571847508
1.43108504398827
1.401759530791789
1.3734115347018572
1.3450635386119256
1.3176930596285434
1.29227761485826
1.2668621700879763
1.2473118279569892
1.23069403714565
1.2121212121212122
1.1945259042033236
1.176930596285435
1.160312805474096
1.144672531769306
1.1300097751710656
1.1163245356793745
1.1036168132942326
1.0918866080156402
1.0811339198435972
1.0703812316715542
1.06158357771261
1.0547409579667644
1.0469208211143697
1.0371456500488758
1.0283479960899315
1.0195503421309873
1.010752688172043
1.002932551319648
0.9960899315738024
0.9882697947214076
0.981427174975562
0.9745845552297164
0.9706744868035192
0.9696969696969696
0.9667644183773216
0.9648093841642228
0.9638318670576737
0.9648093841642228
0.967741935483871
0.9716520039100685
0.9765395894428152
0.9804496578690128
0.9833822091886608
0.9853372434017597
0.9853372434017597
0.9863147605083088
0.9863147605083088
0.9843597262952102
0.9794721407624634
0.9736070381231672
0.967741935483871
0.9618768328445748
0.9550342130987292
0.9491691104594332
0.9442815249266864
0.9433040078201368
0.9521016617790812
0.9706744868035192
1.0039100684261977
1.0625610948191593
1.1495601173020529
1.2668621700879763
1.4105571847507332
1.5757575757575757
1.7546432062561097
1.9374389051808407
2.114369501466276
2.2766373411534704
2.418377321603128
2.5219941348973607
2.5943304007820136
2.653958944281525
2.6940371456500487
2.7126099706744866
2.7116324535679373
2.69208211143695
2.658846529814272
2.6148582600195502
2.5640273704789838
2.509286412512219
2.452590420332356
2.3958944281524928
2.343108504398827
2.2952101661779083
2.2482893450635384
2.203323558162268
2.160312805474096
2.1192570869990224
2.0791788856304985
2.040078201368524
2.0
1.9589442815249267
1.9178885630498532
1.8778103616813293
1.8416422287390029
1.8093841642228736
1.7790811339198436
1.7517106549364614
1.729227761485826
1.7116324535679377
1.699902248289345
1.6920821114369502
1.6881720430107527
1.6871945259042034
1.689149560117302
1.6911045943304008
1.6930596285434996
1.694037145650049
1.6930596285434996
1.6901270772238517
1.6842619745845553
1.675464320625611
1.6637341153470186
1.6480938416422288
1.629521016617791
1.607038123167155
1.5826001955034212
1.5571847507331378
1.5298142717497556
1.504398826979472
1.4809384164222874
1.4535679374389052
1.4242424242424243
1.3949169110459434
1.3655913978494625
1.3372434017595307
1.3098729227761483
1.2825024437927663
1.2570869990224829
1.2326490713587488
1.209188660801564
1.1867057673509287
1.1700879765395895
1.1564027370478984
1.142717497556207
1.1290322580645162
1.115347018572825
1.1016617790811338
1.088954056695992
1.0772238514173995
1.0664711632453567
1.0557184750733135
1.04594330400782
1.0361681329423265
1.029325513196481
1.0234604105571847
1.0156402737047898
1.007820136852395
1.0
0.9931573802541545
0.9853372434017597
0.978494623655914
0.9706744868035192
0.9638318670576737
0.9579667644183774
0.9530791788856304
0.9481915933528836
0.9472140762463344
0.9481915933528836
0.9481915933528836
0.9491691104594332
0.9511241446725318
0.95405669599218
0.9579667644183774
0.9618768328445748
0.9657869012707724
0.9687194525904204
0.9716520039100685
0.9726295210166178
0.9745845552297164
0.9765395894428152
0.975562072336266
0.9716520039100685
0.9667644183773216
0.9608993157380256
0.95405669599218
0.946236559139785
0.9374389051808406
0.9296187683284456
0.9257086999022482
0.9296187683284456
0.946236559139785
0.9951124144672532
1.0713587487781036
1.1612903225806452
1.273704789833822
1.4115347018572826
1.5728250244379276
1.7517106549364614
1.9393939393939397
2.126099706744868
2.303030303030303
2.462365591397849
2.5972629521016617
2.6930596285435
2.757575757575758
2.806451612903226
2.834799608993157
2.8406647116324537
2.8269794721407626
2.7966764418377323
2.7536656891495603
2.702834799608993
2.64613880742913
2.5865102639296187
2.5268817204301075
2.4682306940371457
2.41544477028348
2.366568914956012
2.318670576735093
2.271749755620724
2.2277614858260018
2.1847507331378297
2.142717497556207
2.1006842619745845
2.058651026392962
2.016617790811339
1.9745845552297163
1.9345063538611929
1.900293255131965
1.8699902248289344
1.8416422287390029
1.8172043010752688
1.7986314760508308
1.7849462365591398
1.7771260997067448
1.775171065493646
1.7771260997067448
1.7810361681329423
1.7849462365591398
1.7888563049853372
1.7917888563049853
1.7927663734115349
1.7917888563049853
1.7888563049853372
1.7820136852394917
1.772238514173998
1.758553274682307
1.7409579667644184
1.7194525904203324
1.6950146627565983
1.667644183773216
1.6373411534701858
1.606060606060606
1.5786901270772238
1.5532746823069403
1.5249266862170088
1.4965786901270772
1.4672531769305963
1.436950146627566
1.4076246334310851
1.380254154447703
1.35386119257087
1.3284457478005864
1.305962854349951
1.284457478005865
1.2639296187683284
1.249266862170088
1.2365591397849462
1.2228739002932552
1.2082111436950147
1.1935483870967742
1.1798631476050832
1.166177908113392
1.152492668621701
1.1407624633431086
1.1300097751710656
1.1192570869990224
1.1094819159335287
1.1026392961876832
1.0977517106549364
1.0918866080156402
1.0840664711632453
1.075268817204301
1.067448680351906
1.0596285434995112
1.0527859237536656
1.04594330400782
1.040078201368524
1.035190615835777
1.0303030303030305
1.0254154447702837
1.024437927663734
1.024437927663734
1.024437927663734
1.024437927663734
1.0263929618768328
1.0303030303030305
1.035190615835777
1.040078201368524
1.0439882697947214
1.0478983382209188
1.0518084066471165
1.053763440860215
1.056695992179863
1.0586510263929618
1.0586510263929618
1.0557184750733135
1.0498533724340176
1.0439882697947214
1.0371456500488758
1.029325513196481
1.021505376344086
1.013685239491691
1.007820136852395
1.0087976539589445
1.018572825024438
1.0410557184750733
1.083088954056696
1.1515151515151516
1.2502443792766371
1.380254154447703
1.5366568914956011
1.7145650048875856
1.903225806451613
2.0928641251221896
2.274682306940372
2.4389051808406648
2.579667644183773
2.679374389051808
2.747800586510264
2.80058651026393
2.833822091886608
2.844574780058651
2.835777126099707
2.809384164222874
2.768328445747801
2.717497556207233
2.6608015640273703
2.5992179863147604
2.536656891495601
2.4789833822091887
2.426197458455523
2.3734115347018574
2.32355816226784
2.2766373411534704
2.232649071358749
2.189638318670577
2.147605083088954
2.104594330400782
2.06158357771261
2.018572825024438
1.9765395894428155
1.935483870967742
1.900293255131965
1.869012707722385
1.839687194525904
1.8142717497556209
1.793743890518084
1.7781036168132942
1.7673509286412512
1.761485826001955
1.7595307917888563
1.7595307917888563
1.761485826001955
1.7634408602150538
1.7644183773216031
1.7644183773216031
1.7624633431085044
1.7575757575757576
1.7487781036168133
1.7360703812316716
1.7204301075268815
1.7018572825024438
1.6813294232649072
1.6578690127077225
1.632453567937439
1.6041055718475072
1.5757575757575757
1.5503421309872922
1.525904203323558
1.4975562072336266
1.4672531769305963
1.436950146627566
1.4066471163245358
1.3773216031280548
1.348973607038123
1.3206256109481915
1.2932551319648091
1.2668621700879763
1.2434017595307918
1.224828934506354
1.2101661779081134
1.1935483870967742
1.176930596285435
1.1612903225806452
1.147605083088954
1.133919843597263
1.121212121212121
1.1085043988269794
1.096774193548387
1.0850439882697946
1.0733137829912025
1.0625610948191593
1.0547409579667644
1.0498533724340176
1.043010752688172
1.0361681329423265
1.029325513196481
1.021505376344086
1.0146627565982405
1.0068426197458455
0.9990224828934506
0.9921798631476052
0.9863147605083088
0.981427174975562
0.9794721407624634
0.9794721407624634
0.9775171065493646
0.975562072336266
0.9736070381231672
0.9736070381231672
0.9745845552297164
0.9765395894428152
0.9804496578690128
0.9843597262952102
0.9882697947214076
0.9912023460410556
0.9941348973607038
0.9980449657869012
1.002932551319648
1.0039100684261977
1.002932551319648
1.0009775171065494
0.997067448680352
0.9931573802541545
0.989247311827957
0.9833822091886608
0.9765395894428152
0.9696969696969696
0.9628543499511242
0.959921798631476
0.9628543499511242
0.9736070381231672
0.9990224828934506
1.0449657869012707
1.1192570869990224
1.2228739002932552
1.3743890518084063
1.5650048875855327
1.7644183773216031
1.9687194525904204
2.1700879765395893
2.360703812316716
2.5112414467253177
2.63049853372434
2.7419354838709675
2.833822091886608
2.898338220918866
2.935483870967742
2.946236559139785
2.9345063538611926
2.903225806451613
2.857282502443793
2.80058651026393
2.7370478983382207
2.674486803519061
2.6129032258064515
2.548387096774193
2.484848484848485
2.423264907135875
2.3655913978494625
2.3118279569892475
2.260997067448681
2.2130987292277613
2.167155425219941
2.1221896383186705
2.0772238514174
2.032258064516129
1.992179863147605
1.9560117302052784
1.919843597262952
1.884652981427175
1.8543499511241448
1.8299120234604105
1.8113391984359728
1.7996089931573802
1.7947214076246334
1.7947214076246334
1.7996089931573802
1.8064516129032255
1.812316715542522
1.818181818181818
1.823069403714565
1.826001955034213
1.8269794721407624
1.825024437927664
1.8191593352883677
1.8093841642228736
1.7947214076246334
1.7761485826001957
1.7546432062561097
1.7302052785923754
1.7038123167155426
1.6793743890518085
1.6549364613880744
1.6275659824046922
1.598240469208211
1.5679374389051808
1.5376344086021505
1.5073313782991202
1.478983382209189
1.4506353861192571
1.4242424242424243
1.3988269794721409
1.3743890518084063
1.3548387096774193
1.3391984359726294
1.3206256109481915
1.3020527859237536
1.2825024437927663
1.2639296187683284
1.24633431085044
1.2287390029325511
1.2121212121212122
1.1974584555229717
1.1837732160312806
1.1700879765395895
1.1612903225806452
1.1544477028347997
1.144672531769306
1.1348973607038124
1.1251221896383188
1.1163245356793745
1.1065493646138806
1.0977517106549364
1.0899315738025417
1.083088954056696
1.0772238514173995
1.072336265884653
1.0684261974584557
1.067448680351906
1.067448680351906
1.0664711632453567
1.064516129032258
1.0625610948191593
1.0606060606060606
1.0606060606060606
1.06158357771261
1.064516129032258
1.0684261974584557
1.0742913000977516
1.0801564027370478
1.0869990224828934
1.0928641251221896
1.096774193548387
1.099706744868035
1.1006842619745845
1.099706744868035
1.0977517106549364
1.0948191593352885
1.0918866080156402
1.0869990224828934
1.0811339198435972
1.0742913000977516
1.0664711632453567
1.06158357771261
1.06158357771261
1.067448680351906
1.0869990224828934
1.126099706744868
1.1925708699902249
1.2903225806451613
1.4193548387096775
1.5777126099706744
1.761485826001955
1.9608993157380252
2.1652003910068425
2.337243401759531
2.4838709677419355
2.632453567937439
2.7653958944281527
2.8729227761485827
2.952101661779081
3.0
3.0195503421309877
3.0146627565982405
2.9872922776148583
2.9442815249266863
2.8885630498533725
2.8240469208211145
2.7595307917888565
2.6959921798631474
2.6285434995112413
2.5620723362658846
2.4995112414467253
2.4408602150537635
2.3870967741935485
2.3391984359726297
2.294232649071359
2.251221896383187
2.2082111436950145
2.164222873900293
2.124144672531769
2.086021505376344
2.0449657869012707
2.003910068426197
1.963831867057673
1.927663734115347
1.8963831867057677
1.8729227761485825
1.855327468230694
1.844574780058651
1.8387096774193548
1.8387096774193548
1.8435972629521016
1.8484848484848484
1.8533724340175952
1.8602150537634408
1.866080156402737
1.870967741935484
1.8729227761485825
1.870967741935484
1.865102639296188
1.8543499511241448
1.839687194525904
1.822091886608016
1.801564027370479
1.7810361681329423
1.7605083088954057
1.7360703812316716
1.7086999022482894
1.6793743890518085
1.6490713587487782
1.6187683284457477
1.5894428152492668
1.5610948191593352
1.533724340175953
1.5073313782991202
1.4819159335288368
1.458455522971652
1.439882697947214
1.4242424242424243
1.4066471163245358
1.3900293255131966
1.3734115347018572
1.3577712609970674
1.343108504398827
1.3284457478005864
1.313782991202346
1.2981427174975562
1.2834799608993157
1.2697947214076246
1.260019550342131
1.252199413489736
1.2434017595307918
1.2336265884652982
1.2238514173998043
1.2150537634408602
1.206256109481916
1.198435972629521
1.1915933528836755
1.18475073313783
1.1779081133919844
1.1720430107526882
1.1671554252199414
1.1652003910068427
1.1652003910068427
1.163245356793744
1.1622678396871946
1.1612903225806452
1.1612903225806452
1.1622678396871946
1.164222873900293
1.1681329423264908
1.1730205278592376
1.1779081133919844
1.1827956989247312
1.187683284457478
1.1925708699902249
1.195503421309873
1.195503421309873
1.1935483870967742
1.1915933528836755
1.187683284457478
1.1827956989247312
1.176930596285435
1.1691104594330402
1.160312805474096
1.1515151515151516
1.147605083088954
1.1505376344086022
1.163245356793744
1.1925708699902249
1.24633431085044
1.3304007820136852
1.4467253176930597
1.5943304007820136
1.76930596285435
1.962854349951124
2.1652003910068425
2.366568914956012
2.555229716520039
2.702834799608993
2.8054740957966766
2.89247311827957
2.967741935483871
3.0205278592375366
3.048875855327468
3.053763440860215
3.0391006842619745
3.0087976539589443
2.9657869012707723
2.913000977517106
2.855327468230694
2.7947214076246336
2.7370478983382207
2.6832844574780057
2.631476050830889
2.581622678396872
2.535679374389052
2.49266862170088
2.453567937438905
2.4164222873900294
2.3792766373411536
2.340175953079179
2.2981427174975564
2.2531769305962857
2.210166177908113
2.167155425219941
2.121212121212121
2.0762463343108504
2.032258064516129
1.992179863147605
1.9560117302052784
1.9257086999022484
1.9012707722385145
1.8826979472140764
1.8699902248289344
1.8621700879765395
1.857282502443793
1.8543499511241448
1.8523949169110456
1.8504398826979471
1.8484848484848484
1.8455522971652003
1.839687194525904
1.8318670576735088
1.8211143695014664
1.8074291300097751
1.790811339198436
1.7712609970674489
1.747800586510264
