ppg
1.1779081133919844
1.1163245356793745
1.0625610948191593
1.024437927663734
1.0
0.981427174975562
0.9765395894428152
0.9863147605083088
1.0117302052785924
1.0498533724340176
1.099706744868035
1.1583577712609971
1.2189638318670577
1.2776148582600195
1.332355816226784
1.3792766373411536
1.41544477028348
1.4418377321603129
1.4623655913978495
1.47702834799609
1.4848484848484849
1.4868035190615836
1.4848484848484849
1.479960899315738
1.4701857282502444
1.456500488758553
1.4418377321603129
1.4271749755620724
1.4173998044965788
1.4173998044965788
1.4349951124144673
1.478005865102639
1.5532746823069403
1.664711632453568
1.8084066471163245
1.9745845552297163
2.1495601173020527
2.3196480938416424
2.4701857282502444
2.590420332355816
2.67644183773216
2.7233626588465296
2.7390029325513194
2.732160312805474
2.705767350928641
2.66177908113392
2.6050830889540566
2.5405669599217986
2.4711632453567938
2.3978494623655915
2.3196480938416424
2.239491691104594
2.158357771260997
2.086021505376344
2.018572825024438
1.945259042033236
1.870967741935484
1.7956989247311828
1.7194525904203324
1.643206256109482
1.565982404692082
1.487781036168133
1.409579667644184
1.332355816226784
1.2580645161290325
1.1974584555229717
1.1466275659824048
1.0948191593352885
1.0488758553274682
1.0117302052785924
0.9872922776148584
0.9794721407624634
0.9872922776148584
1.0097751710654936
1.0449657869012707
1.0879765395894427
1.1358748778103618
1.18475073313783
1.2267839687194526
1.2609970674486803
1.2913000977517106
1.3147605083088951
1.3294232649071358
1.3372434017595307
1.33822091886608
1.3333333333333333
1.3235581622678396
1.3088954056695992
1.2913000977517106
1.270772238514174
1.252199413489736
1.2336265884652982
1.2111436950146628
1.1925708699902249
1.1857282502443791
1.2003910068426198
1.2443792766373412
1.3206256109481915
1.4281524926686218
1.5620723362658846
1.7135874877810362
1.870967741935484
2.0205278592375366
2.139784946236559
2.23069403714565
2.3098729227761488
2.3655913978494625
2.3929618768328447
2.3929618768328447
2.345063538611926
2.29227761485826
2.225806451612903
2.1114369501466275
2.027370478983382
1.951124144672532
1.8807429130009776
1.804496578690127
1.7272727272727273
1.651026392961877
1.5777126099706744
1.5063538611925709
1.436950146627566
1.3695014662756595
1.3040078201368523
1.2140762463343109
1.1593352883675463
1.1124144672531768
1.0625610948191593
1.0332355816226784
1.0087976539589445
0.9931573802541545
0.989247311827957
1.018572825024438
1.072336265884653
1.1241446725317692
1.1798631476050832
1.2404692082111437
1.3040078201368523
1.3607038123167154
1.409579667644184
1.455522971652004
1.4946236559139785
1.525904203323558
1.547409579667644
1.560117302052786
1.5650048875855327
1.563049853372434
1.552297165200391
1.541544477028348
1.5278592375366569
1.4975562072336266
1.482893450635386
1.469208211143695
1.4623655913978495
1.478983382209189
1.5239491691104594
1.606060606060606
1.7243401759530792
1.8778103616813293
2.0576735092864125
2.251221896383187
2.4173998044965788
2.560117302052786
2.699902248289345
2.81622678396872
2.898338220918866
2.9442815249266863
2.9550342130987293
2.935483870967742
2.8905180840664717
2.8260019550342133
2.7497556207233624
2.665689149560117
2.5777126099706744
2.4975562072336266
2.420332355816227
2.3362658846529816
2.251221896383187
2.166177908113392
2.080156402737048
1.994134897360704
1.9090909090909087
1.825024437927664
1.7438905180840665
1.6637341153470186
1.58455522971652
1.5180840664711632
1.4604105571847508
1.396871945259042
1.3333333333333333
1.2756598240469208
1.224828934506354
1.18475073313783
1.1583577712609971
1.1466275659824048
1.1515151515151516
1.1710654936461389
1.2052785923753666
1.252199413489736
1.3020527859237536
1.3519061583577712
1.4066471163245358
1.4604105571847508
1.509286412512219
1.5503421309872922
1.581622678396872
1.6041055718475072
1.6177908113391983
1.6226783968719452
1.6217008797653958
1.6177908113391983
1.611925708699902
1.6041055718475072
1.5894428152492668
1.5708699902248289
1.552297165200391
1.5386119257087
1.5395894428152492
1.5650048875855327
1.6226783968719452
1.7165200391006843
1.8455522971652003
2.004887585532747
2.1837732160312804
2.3421309872922778
2.4809384164222874
2.619745845552297
2.739980449657869
2.8299120234604107
2.8856304985337244
2.9071358748778104
2.897360703812317
2.8611925708699903
2.8044965786901277
2.7331378299120237
2.652003910068426
2.572825024437928
2.493646138807429
2.406647116324536
2.317693059628544
2.228739002932551
2.1417399804496577
2.056695992179863
1.9726295210166176
1.889540566959922
1.8074291300097751
1.726295210166178
1.64613880742913
1.565982404692082
1.499511241446725
1.4408602150537635
1.3773216031280548
1.3128054740957966
1.2502443792766371
1.1945259042033236
1.1466275659824048
1.1114369501466277
1.0928641251221896
1.0918866080156402
1.1085043988269794
1.1436950146627567
1.187683284457478
1.238514173998045
1.2991202346041055
1.3655913978494625
1.43108504398827
1.4897360703812317
1.5405669599217986
1.5806451612903225
1.611925708699902
1.6334310850439884
1.6471163245356797
1.6549364613880744
1.6588465298142718
1.6598240469208212
1.653958944281525
1.6422287390029326
1.6256109481915937
1.607038123167155
1.5913978494623655
1.5835777126099706
1.595307917888563
1.6344086021505375
1.7067448680351909
1.8172043010752688
1.963831867057673
2.10850439882698
2.254154447702835
2.421309872922776
2.5884652981427174
2.7370478983382207
2.8533724340175954
2.932551319648094
2.9745845552297165
2.9824046920821115
2.959921798631476
2.9149560117302054
2.854349951124145
2.788856304985337
2.721407624633431
2.6451612903225805
2.5669599217986314
2.487781036168133
2.407624633431085
2.3274682306940373
2.2502443792766376
2.174975562072336
2.1006842619745845
2.0254154447702835
1.951124144672532
1.87683284457478
1.812316715542522
1.7517106549364614
1.683284457478006
1.6109481915933528
1.5395894428152492
1.4711632453567938
1.4076246334310851
1.3499511241446724
1.3040078201368523
1.2717497556207231
1.2551319648093842
1.2551319648093842
1.267839687194526
1.29227761485826
1.3304007820136852
1.3792766373411536
1.4349951124144673
1.4916911045943304
1.5464320625610948
1.595307917888563
1.635386119257087
1.6656891495601174
1.6842619745845553
1.6911045943304008
1.6901270772238517
1.6842619745845553
1.675464320625611
1.6608015640273706
1.6412512218963833
1.616813294232649
1.5894428152492668
1.5610948191593352
1.5347018572825024
1.5180840664711632
1.520039100684262
1.5503421309872922
1.6158357771260996
1.6979472140762464
1.7986314760508308
1.9374389051808407
2.0977517106549364
2.26197458455523
2.4144672531769307
2.541544477028348
2.636363636363636
2.6930596285435
2.713587487781036
2.7008797653958942
2.6608015640273703
2.5992179863147604
2.5317693059628543
2.4594330400782014
2.3734115347018574
2.280547409579668
2.185728250244379
2.088954056695992
1.9931573802541545
1.900293255131965
1.8093841642228736
1.7204301075268815
1.6334310850439884
1.5493646138807429
1.478005865102639
1.4134897360703813
1.3421309872922775
1.2688172043010753
1.195503421309873
1.1251221896383188
1.0596285434995112
0.9990224828934506
0.946236559139785
0.9042033235581622
0.8768328445747801
0.8641251221896383
0.8660801564027371
0.919843597262952
1.0048875855327468
1.0733137829912025
1.1368523949169111
1.2003910068426198
1.2649071358748778
1.327468230694037
1.3841642228739004
1.4330400782013686
1.4711632453567938
1.499511241446725
1.517106549364614
1.5278592375366569
1.5327468230694037
1.5298142717497556
1.52297165200391
1.512218963831867
1.498533724340176
1.482893450635386
1.466275659824047
1.4506353861192571
1.4408602150537635
1.4437927663734116
1.4672531769305963
1.5190615835777126
1.585532746823069
1.672531769305963
1.796676441837732
1.948191593352884
2.114369501466276
2.280547409579668
2.434017595307918
2.5640273704789838
2.662756598240469
2.7282502443792764
2.7595307917888565
2.7614858260019552
2.742913000977517
2.70772238514174
2.656891495601173
2.593352883675464
2.5219941348973607
2.4457478005865103
2.3685239491691106
2.290322580645161
2.2140762463343107
2.139784946236559
2.065493646138808
1.992179863147605
1.920821114369501
1.8602150537634408
1.8054740957966764
1.7468230694037146
1.686217008797654
1.624633431085044
1.5650048875855327
1.5063538611925709
1.4516129032258065
1.4027370478983383
1.3616813294232648
1.3304007820136852
1.3118279569892473
1.305962854349951
1.3128054740957966
1.3313782991202343
1.3636363636363635
1.4076246334310851
1.4594330400782014
1.5161290322580645
1.573802541544477
1.6285434995112416
1.678396871945259
1.721407624633431
1.7546432062561097
1.7771260997067448
1.7917888563049853
1.7986314760508308
1.8005865102639296
1.7986314760508308
1.7927663734115349
1.782991202346041
1.7702834799608993
1.7546432062561097
1.737047898338221
1.721407624633431
1.7145650048875856
1.7243401759530792
1.7487781036168133
1.793743890518084
1.873900293255132
1.989247311827957
2.131964809384164
2.291300097751711
2.455522971652004
2.6099706744868034
2.7438905180840663
2.8484848484848486
2.919843597262952
2.9579667644183774
2.963831867057673
2.9472140762463344
2.913000977517106
2.86217008797654
2.7976539589442817
2.7233626588465296
2.643206256109482
2.5591397849462365
2.4731182795698925
2.388074291300098
2.304007820136853
2.219941348973607
2.1388074291300097
2.069403714565005
2.004887585532747
1.4887585532746823
1.4838709677419355
1.4750733137829912
1.4613880742913
1.447702834799609
1.4389051808406648
1.4418377321603129
1.466275659824047
1.5073313782991202
1.5698924731182795
1.6705767350928642
1.8064516129032255
1.967741935483871
2.1436950146627565
2.3196480938416424
2.482893450635386
2.621700879765396
2.729227761485826
2.8025415444770285
2.841642228739003
2.850439882697948
2.8367546432062563
2.8044965786901277
2.757575757575758
2.7008797653958942
2.636363636363636
2.5669599217986314
2.4946236559139785
2.421309872922776
2.346041055718475
2.269794721407625
2.1925708699902247
2.117302052785924
2.050830889540567
1.988269794721408
1.919843597262952
1.847507331378299
1.772238514173998
1.6959921798631477
1.6207233626588464
1.5454545454545454
1.4701857282502444
1.3988269794721409
1.332355816226784
1.2717497556207231
1.219941348973607
1.1837732160312806
1.160312805474096
1.1436950146627567
1.13880742913001
1.1456500488758554
1.164222873900293
1.1925708699902249
1.2287390029325511
1.270772238514174
1.313782991202346
1.3558162267839686
1.393939393939394
1.4242424242424243
1.447702834799609
1.4652981427174976
1.478005865102639
1.4838709677419355
1.4848484848484849
1.4819159335288368
1.474095796676442
1.4623655913978495
1.4457478005865103
1.4271749755620724
1.409579667644184
1.3988269794721409
1.3988269794721409
1.414467253176931
1.4545454545454546
1.5249266862170088
1.6285434995112416
1.7605083088954057
1.911045943304008
2.0684261974584555
2.220918866080156
2.355816226783969
2.463343108504399
2.539589442815249
2.5806451612903225
2.593352883675464
2.582600195503421
2.550342130987292
2.4995112414467253
2.432062561094819
2.35386119257087
2.2668621700879767
2.175953079178885
2.0840664711632453
1.9931573802541545
1.9042033235581624
1.8172043010752688
1.7429130009775171
1.6764418377321604
1.6041055718475072
1.5288367546432062
1.4506353861192571
1.3734115347018572
1.2971652003910068
1.2238514173998043
1.155425219941349
1.0909090909090908
1.0303030303030305
0.975562072336266
0.935483870967742
0.906158357771261
0.8787878787878788
0.8602150537634409
0.8533724340175953
0.8611925708699902
0.8826979472140762
0.9178885630498532
0.9638318670576737
1.0175953079178883
1.0762463343108504
1.1348973607038124
1.1896383186705768
1.2355816226783969
1.2727272727272727
1.3049853372434017
1.3294232649071358
1.346041055718475
1.3558162267839686
1.359726295210166
1.356793743890518
1.3499511241446724
1.3401759530791788
1.327468230694037
1.3128054740957966
1.3010752688172045
1.2942326490713587
1.295210166177908
1.3118279569892473
1.3519061583577712
1.423264907135875
1.5288367546432062
1.6637341153470186
1.8201368523949168
1.9872922776148585
2.1515151515151514
2.302052785923754
2.4173998044965788
2.5024437927663734
2.5718475073313782
2.6158357771261
2.632453567937439
2.6236559139784945
2.593352883675464
2.5454545454545454
2.4858260019550342
2.4173998044965788
2.343108504398827
2.2658846529814274
2.1867057673509285
2.1163245356793743
2.050830889540567
1.9794721407624636
1.906158357771261
1.8318670576735088
1.7595307917888563
1.686217008797654
1.611925708699902
1.5757575757575757
1.5591397849462365
1.5161290322580645
1.4623655913978495
1.414467253176931
1.3695014662756595
1.3196480938416422
1.2717497556207231
1.23069403714565
1.1994134897360704
1.1779081133919844
1.1681329423264908
1.1710654936461389
1.1867057673509287
1.2140762463343109
1.2502443792766371
1.2932551319648091
1.3362658846529814
1.3763440860215057
1.418377321603128
1.457478005865103
1.4916911045943304
1.520039100684262
1.541544477028348
1.555229716520039
1.564027370478983
1.5698924731182795
1.5718475073313782
1.5698924731182795
1.5669599217986314
1.5620723362658846
1.5542521994134897
1.547409579667644
1.547409579667644
1.560117302052786
1.5933528836754642
1.6549364613880744
1.7497556207233629
1.8758553274682308
2.026392961876833
2.189638318670577
2.3528836754643208
2.486803519061584
2.593352883675464
2.6901270772238512
2.763440860215054
2.8084066471163247
2.825024437927664
2.8152492668621703
2.7839687194525906
2.736070381231672
2.67644183773216
2.6070381231671558
2.532746823069404
2.462365591397849
2.393939393939394
2.3196480938416424
2.243401759530792
2.166177908113392
2.0879765395894427
2.0117302052785924
1.9364613880742916
1.86119257086999
1.7859237536656891
1.710654936461388
1.6363636363636365
1.564027370478983
1.5034213098729228
1.4496578690127078
1.391006842619746
1.332355816226784
1.2756598240469208
1.2238514173998043
1.1808406647116323
1.1485826001955035
1.1280547409579669
1.1202346041055715
1.1270772238514175
1.147605083088954
1.1759530791788857
1.2111436950146628
1.2531769305962854
1.2981427174975562
1.343108504398827
1.3861192570869991
1.4252199413489737
1.458455522971652
1.4848484848484849
1.504398826979472
1.5180840664711632
1.525904203323558
1.5288367546432062
1.530791788856305
1.5288367546432062
1.521016617790811
1.509286412512219
1.4975562072336266
1.4897360703812317
1.4946236559139785
1.5190615835777126
1.5718475073313782
1.6549364613880744
1.76930596285435
1.9100684261974583
2.043010752688172
2.1700879765395893
2.310850439882698
2.44672531769306
2.563049853372434
2.652003910068426
2.7096774193548385
2.7370478983382207
2.736070381231672
2.7126099706744866
2.6715542521994133
2.6177908113391983
2.555229716520039
2.495601173020528
2.436950146627566
2.3714565004887587
2.304007820136853
2.2346041055718477
2.164222873900293
2.093841642228739
2.024437927663734
1.9550342130987293
1.884652981427175
1.81524926686217
1.7448680351906158
1.6842619745845553
1.629521016617791
1.5698924731182795
1.5073313782991202
1.444770283479961
1.3851417399804498
1.3294232649071358
1.2795698924731185
1.2375366568914956
1.2052785923753666
1.1837732160312806
1.1759530791788857
1.1827956989247312
1.1994134897360704
1.2267839687194526
1.2639296187683284
1.3088954056695992
1.3587487781036167
1.409579667644184
1.458455522971652
1.5024437927663734
1.5405669599217986
1.5728250244379276
1.5992179863147604
1.619745845552297
1.635386119257087
1.64613880742913
1.653958944281525
1.656891495601173
1.6549364613880744
1.6480938416422288
1.6383186705767352
1.6304985337243405
1.6304985337243405
1.6471163245356797
1.6881720430107527
1.7575757575757576
1.8592375366568916
1.967741935483871
2.0840664711632453
2.225806451612903
2.3743890518084068
2.5141739980449658
2.635386119257087
2.727272727272727
2.7869012707722387
2.8152492668621703
2.814271749755621
2.788856304985337
2.7438905180840663
2.6911045943304006
2.631476050830889
2.5591397849462365
2.479960899315738
2.396871945259042
2.313782991202346
2.231671554252199
2.1515151515151514
2.071358748778104
1.992179863147605
1.913978494623656
1.835777126099707
1.7575757575757576
1.689149560117302
1.6265884652981428
1.5581622678396871
1.4868035190615836
1.414467253176931
1.3450635386119256
1.2776148582600195
1.2130987292277615
1.1534701857282503
1.1016617790811338
1.0596285434995112
1.0283479960899315
1.0127077223851415
1.010752688172043
1.0175953079178883
1.0361681329423265
1.0654936461388074
1.1016617790811338
1.1436950146627567
1.1867057673509287
1.2267839687194526
1.262952101661779
1.2932551319648091
1.316715542521994
1.335288367546432
1.348973607038123
1.3577712609970674
1.3616813294232648
1.3616813294232648
1.3587487781036167
1.3528836754643203
1.3440860215053765
1.3343108504398826
1.327468230694037
1.327468230694037
1.3401759530791788
1.375366568914956
1.4242424242424243
1.4936461388074291
1.598240469208211
1.7331378299120237
1.8885630498533723
2.0527859237536656
2.212121212121212
2.356793743890518
2.47702834799609
2.567937438905181
2.6265884652981426
2.654936461388074
2.6578690127077222
2.641251221896383
2.6070381231671558
2.560117302052786
2.5034213098729228
2.441837732160313
2.376344086021505
2.30791788856305
2.239491691104594
2.1700879765395893
2.101661779081134
2.0332355816226784
1.9657869012707725
1.9071358748778104
1.8523949169110456
1.8064516129032255
1.7653958944281525
1.710654936461388
1.6490713587487782
1.585532746823069
1.521994134897361
1.4613880742913
1.404692082111437
1.35386119257087
1.3098729227761483
1.2805474095796676
1.2639296187683284
1.2541544477028348
1.2531769305962854
1.262952101661779
1.284457478005865
1.316715542521994
1.3587487781036167
1.4076246334310851
1.4594330400782014
1.5112414467253177
1.560117302052786
1.603128054740958
1.6373411534701858
1.6637341153470186
1.6852394916911049
1.7028347996089932
1.715542521994135
1.7233626588465298
1.7253176930596286
1.7233626588465298
1.7165200391006843
1.7067448680351909
1.6959921798631477
1.6901270772238517
1.6920821114369502
1.70772238514174
1.7458455522971652
1.81524926686217
1.9188660801564028
2.0547409579667644
2.2160312805474094
2.389051808406647
2.5620723362658846
2.721407624633431
2.8563049853372435
2.9589442815249267
3.026392961876833
3.0576735092864125
3.06158357771261
3.0439882697947214
3.005865102639296
2.951124144672532
2.8836754643206257
2.8084066471163247
2.727272727272727
2.643206256109482
2.558162267839687
2.4731182795698925
2.388074291300098
2.313782991202346
2.243401759530792
2.167155425219941
2.088954056695992
2.0097751710654936
1.9296187683284456
1.8504398826979471
1.7732160312805474
1.6979472140762464
1.6256109481915937
1.555229716520039
1.4868035190615836
1.4222873900293256
1.3724340175953078
1.332355816226784
1.2932551319648091
1.2619745845552297
1.2404692082111437
1.2316715542521994
1.2375366568914956
1.2580645161290325
1.2913000977517106
1.335288367546432
1.3851417399804498
1.436950146627566
1.4838709677419355
1.5249266862170088
1.5650048875855327
1.5992179863147604
1.6275659824046922
1.6500488758553276
1.6666666666666667
1.6774193548387095
1.6823069403714566
1.6813294232649072
1.6744868035190617
1.6608015640273706
1.6422287390029326
1.6265884652981428
1.616813294232649
1.6138807429130009
1.6285434995112416
1.6695992179863148
1.7409579667644184
1.8455522971652003
1.9804496578690127
2.136852394916911
2.3010752688172045
2.4604105571847508
2.6021505376344085
2.7067448680351904
2.779081133919844
2.833822091886608
2.863147605083089
2.8670576735092865
2.8455522971652005
2.803519061583578
2.7438905180840663
2.6715542521994133
2.591397849462365
2.506353861192571
2.418377321603128
2.329423264907136
2.2502443792766376
2.175953079178885
2.0957966764418376
2.0127077223851417
1.9286412512218964
1.844574780058651
1.7624633431085044
1.6813294232649072
1.603128054740958
1.5278592375366569
1.455522971652004
1.3870967741935485
1.332355816226784
1.2854349951124144
1.2336265884652982
1.1827956989247312
1.13880742913001
1.104594330400782
1.0821114369501466
1.072336265884653
1.0772238514173995
1.0948191593352885
1.1251221896383188
1.1652003910068427
1.2111436950146628
1.2561094819159335
1.300097751710655
1.346041055718475
1.388074291300098
1.423264907135875
1.4496578690127078
1.469208211143695
1.4819159335288368
1.4887585532746823
1.4897360703812317
1.4868035190615836
1.479960899315738
1.4731182795698925
1.466275659824047
1.456500488758553
1.4486803519061584
1.4496578690127078
1.4672531769305963
1.5083088954056696
1.5806451612903225
1.6881720430107527
1.8299120234604105
2.0
2.1867057673509285
2.350928641251222
2.496578690127077
2.6451612903225805
2.777126099706745
2.8807429130009776
2.951124144672532
2.988269794721408
2.995112414467253
2.9765395894428157
2.935483870967742
2.878787878787879
2.811339198435973
2.7370478983382207
2.665689149560117
2.5962854349951123
2.520039100684262
2.441837732160313
2.3626588465298144
2.2854349951124147
2.210166177908113
2.1358748778103616
2.0625610948191597
1.9902248289345064
1.9188660801564028
1.8494623655913975
1.790811339198436
1.7390029325513197
1.6852394916911049
1.632453567937439
1.5835777126099706
1.5395894428152492
1.501466275659824
1.4721407624633431
1.4535679374389052
1.4457478005865103
1.4486803519061584
1.4652981427174976
1.4936461388074291
1.5268817204301075
1.5650048875855327
1.6109481915933528
1.6608015640273706
1.710654936461388
1.7565982404692082
1.796676441837732
1.828934506353861
1.8533724340175952
1.8699902248289344
1.8807429130009776
1.8856304985337244
1.8866080156402736
1.8836754643206255
1.8758553274682308
1.8631476050830889
1.847507331378299
1.8318670576735088
1.823069403714565
1.828934506353861
1.86119257086999
1.924731182795699
2.0254154447702835
2.1593352883675463
2.318670576735093
2.4672531769305963
2.606060606060606
2.7565982404692084
2.897360703812317
3.0146627565982405
3.101661779081134
3.155425219941349
3.175953079178885
3.167155425219941
3.133919843597263
3.081133919843597
3.0146627565982405
2.9442815249266863
2.8719452590420333
2.790811339198436
2.705767350928641
2.6177908113391983
2.529814271749756
2.4408602150537635
2.3519061583577714
2.2639296187683287
2.145650048875855
2.0146627565982405
1.9100684261974583
1.8201368523949168
1.747800586510264
1.6842619745845553
1.6158357771260996
1.5454545454545454
1.4760508308895406
1.4105571847507332
1.348973607038123
1.29227761485826
1.2453567937438903
1.209188660801564
1.1867057673509287
1.1779081133919844
1.181818181818182
1.1964809384164223
1.2218963831867058
1.2580645161290325
1.3010752688172045
1.3470185728250244
1.393939393939394
1.4389051808406648
1.478983382209189
1.512218963831867
1.5395894428152492
1.560117302052786
1.573802541544477
1.5835777126099706
1.5894428152492668
1.5913978494623655
1.5884652981427174
1.5806451612903225
1.5679374389051808
1.555229716520039
1.5464320625610948
1.5493646138807429
1.5718475073313782
1.6236559139784943
1.7096774193548387
1.8064516129032255
1.919843597262952
2.067448680351906
2.233626588465298
2.40078201368524
2.5542521994134897
2.6852394916911044
2.78494623655914
2.850439882697948
2.8826979472140764
2.8856304985337244
2.863147605083089
2.820136852394917
2.768328445747801
2.7116324535679373
2.644183773216031
2.570869990224829
2.4916911045943304
2.410557184750733
2.3274682306940373
2.244379276637341
2.1622678396871944
2.081133919843597
2.0009775171065494
1.921798631476051
1.8533724340175952
1.7898338220918866
1.7194525904203324
1.6471163245356797
1.573802541544477
1.501466275659824
