ppg
2.9423264907135875
2.916911045943304
2.8797653958944283
2.83088954056696
2.76930596285435
2.705767350928641
2.6392961876832843
2.5640273704789838
2.484848484848485
2.4056695992179864
2.3304007820136854
2.260019550342131
2.1974584555229715
2.142717497556207
2.0957966764418376
2.0557184750733137
2.0205278592375366
1.991202346041056
1.9657869012707725
1.9393939393939397
1.9120234604105573
1.884652981427175
1.8563049853372435
1.826001955034213
1.793743890518084
1.758553274682307
1.7223851417399805
1.6842619745845553
1.64613880742913
1.607038123167155
1.573802541544477
1.543499511241447
1.509286412512219
1.474095796676442
1.439882697947214
1.4056695992179864
1.3724340175953078
1.3411534701857282
1.3118279569892473
1.284457478005865
1.2590420332355816
1.2346041055718475
1.2160312805474096
1.2013685239491692
1.1857282502443791
1.1710654936461389
1.1583577712609971
1.1456500488758554
1.1329423264907137
1.121212121212121
1.1114369501466277
1.1016617790811338
1.0928641251221896
1.086021505376344
1.083088954056696
1.0821114369501466
1.0791788856304985
1.075268817204301
1.0713587487781036
1.0664711632453567
1.06158357771261
1.0576735092864125
1.0527859237536656
1.0478983382209188
1.043010752688172
1.0391006842619743
1.0361681329423265
1.035190615835777
1.0283479960899315
1.0156402737047898
1.0087976539589445
1.0048875855327468
1.0019550342130987
1.0
0.9990224828934506
0.9990224828934506
1.0
1.0019550342130987
1.0039100684261977
1.0068426197458455
1.010752688172043
1.0127077223851415
1.0127077223851415
1.0097751710654936
1.007820136852395
1.0068426197458455
1.0068426197458455
1.0097751710654936
1.0205278592375366
1.043010752688172
1.0801564027370478
1.1378299120234605
1.206256109481916
1.289345063538612
1.401759530791789
1.5386119257087
1.6920821114369502
1.855327468230694
2.021505376344086
2.1837732160312804
2.3362658846529816
2.4731182795698925
2.591397849462365
2.6911045943304006
2.7614858260019552
2.811339198435973
2.8582600195503423
2.898338220918866
2.930596285434995
2.95405669599218
2.970674486803519
2.9804496578690127
2.9824046920821115
2.975562072336266
2.959921798631476
2.932551319648094
2.89345063538612
2.8475073313782997
2.792766373411535
2.7253176930596283
2.649071358748778
2.5669599217986314
2.4819159335288368
2.3978494623655915
2.3167155425219943
2.242424242424242
2.175953079178885
2.118279569892473
2.0684261974584555
2.0283479960899315
1.9960899315738023
1.9657869012707725
1.93841642228739
1.9120234604105573
1.884652981427175
1.8563049853372435
1.826001955034213
1.793743890518084
1.7605083088954057
1.726295210166178
1.6901270772238517
1.6520039100684265
1.6177908113391983
1.585532746823069
1.5483870967741935
1.509286412512219
1.4711632453567938
1.434017595307918
1.3978494623655917
1.3636363636363635
1.332355816226784
1.303030303030303
1.2746823069403714
1.2473118279569892
1.2267839687194526
1.2111436950146628
1.1935483870967742
1.176930596285435
1.1622678396871946
1.1495601173020529
1.1368523949169111
1.1251221896383188
1.115347018572825
1.1055718475073313
1.0957966764418376
1.0869990224828934
1.0801564027370478
1.0762463343108504
1.075268817204301
1.072336265884653
1.0684261974584557
1.0635386119257086
1.0586510263929618
1.0547409579667644
1.050830889540567
1.0478983382209188
1.0449657869012707
1.043010752688172
1.0410557184750733
1.0410557184750733
1.0420332355816226
1.0410557184750733
1.0391006842619743
1.0361681329423265
1.032258064516129
1.029325513196481
1.0273704789833822
1.0254154447702837
1.0234604105571847
1.0224828934506354
1.0224828934506354
1.0224828934506354
1.024437927663734
1.0283479960899315
1.0303030303030305
1.0312805474095796
1.0303030303030305
1.0283479960899315
1.0263929618768328
1.024437927663734
1.024437927663734
1.029325513196481
1.043010752688172
1.0694037145650048
1.104594330400782
1.152492668621701
1.2267839687194526
1.3264907135874875
1.4486803519061584
1.5913978494623655
1.7497556207233629
1.916911045943304
2.085043988269794
2.24633431085044
2.3958944281524928
2.5317693059628543
2.6510263929618767
2.7390029325513194
2.8044965786901277
2.8670576735092865
2.9227761485826003
2.9687194525904204
3.004887585532747
3.032258064516129
3.050830889540567
3.058651026392962
3.0557184750733137
3.0439882697947214
3.0205278592375366
2.9872922776148583
2.943304007820137
2.887585532746823
2.8211143695014664
2.745845552297165
2.6637341153470184
2.579667644183773
2.498533724340176
2.421309872922776
2.3519061583577714
2.2932551319648096
2.244379276637341
2.204301075268817
2.1730205278592374
2.146627565982405
2.121212121212121
2.0977517106549364
2.0733137829912023
2.046920821114369
2.016617790811339
1.9833822091886608
1.948191593352884
1.9100684261974583
1.8699902248289344
1.827956989247312
1.7898338220918866
1.7556207233626588
1.718475073313783
1.6803519061583578
1.6422287390029326
1.6050830889540566
1.56891495601173
1.5347018572825024
1.500488758553275
1.4672531769305963
1.434017595307918
1.401759530791789
1.3685239491691104
1.3411534701857282
1.3176930596285434
1.2903225806451613
1.2619745845552297
1.2336265884652982
1.206256109481916
1.1808406647116323
1.1583577712609971
1.13880742913001
1.1231671554252198
1.1094819159335287
1.0987292277614855
1.0918866080156402
1.0879765395894427
1.0850439882697946
1.083088954056696
1.0821114369501466
1.0821114369501466
1.083088954056696
1.0850439882697946
1.0869990224828934
1.088954056695992
1.088954056695992
1.0879765395894427
1.0879765395894427
1.0879765395894427
1.083088954056696
1.0762463343108504
1.067448680351906
1.0586510263929618
1.0488758553274682
1.0381231671554252
1.0254154447702837
1.0117302052785924
0.997067448680352
0.9824046920821116
0.9687194525904204
0.9589442815249268
0.9521016617790812
0.9433040078201368
0.9335288367546432
0.9237536656891496
0.913978494623656
0.9051808406647116
0.8983382209188661
0.8934506353861192
0.8924731182795699
0.8983382209188661
0.9130009775171064
0.9374389051808406
0.975562072336266
1.0342130987292275
1.1173020527859236
1.224828934506354
1.3558162267839686
1.5053763440860215
1.667644183773216
1.8387096774193548
2.005865102639296
2.1593352883675463
2.2981427174975564
2.419354838709677
2.5083088954056696
2.575757575757576
2.6392961876832843
2.69208211143695
2.735092864125122
2.768328445747801
2.793743890518084
2.812316715542522
2.825024437927664
2.831867057673509
2.831867057673509
2.823069403714565
2.8054740957966766
2.780058651026393
2.7468230694037143
2.7038123167155423
2.650048875855328
2.5884652981427174
2.5190615835777126
2.4457478005865103
2.3704789833822093
2.297165200391007
2.2267839687194524
2.1622678396871944
2.1055718475073317
2.060606060606061
2.024437927663734
1.9902248289345064
1.959921798631476
1.9345063538611929
1.9120234604105573
1.889540566959922
1.8670576735092863
1.8435972629521016
1.818181818181818
1.7898338220918866
1.7605083088954057
1.7341153470185728
1.70772238514174
1.6774193548387095
1.64613880742913
1.6129032258064515
1.5786901270772238
1.544477028347996
1.5112414467253177
1.478005865102639
1.4457478005865103
1.414467253176931
1.3851417399804498
1.3577712609970674
1.3372434017595307
1.3196480938416422
1.3010752688172045
1.2834799608993157
1.2658846529814272
1.249266862170088
1.2336265884652982
1.219941348973607
1.2072336265884651
1.1964809384164223
1.187683284457478
1.181818181818182
1.1788856304985338
1.176930596285435
1.173998044965787
1.1700879765395895
1.166177908113392
1.163245356793744
1.160312805474096
1.1573802541544478
1.1534701857282503
1.1505376344086022
1.147605083088954
1.1436950146627567
1.13880742913001
1.1378299120234605
1.13880742913001
1.13880742913001
1.1368523949169111
1.133919843597263
1.1300097751710656
1.126099706744868
1.121212121212121
1.1163245356793745
1.1114369501466277
1.1085043988269794
1.1055718475073313
1.104594330400782
1.1055718475073313
1.1055718475073313
1.1055718475073313
1.1065493646138806
1.1065493646138806
1.1065493646138806
1.1065493646138806
1.1065493646138806
1.10752688172043
1.10752688172043
1.1094819159335287
1.1173020527859236
1.1319648093841643
1.1573802541544478
1.198435972629521
1.2609970674486803
1.3470185728250244
1.4545454545454546
1.5806451612903225
1.7233626588465298
1.8758553274682308
2.032258064516129
2.185728250244379
2.3304007820136854
2.4457478005865103
2.5386119257087
2.631476050830889
2.7155425219941347
2.787878787878788
2.8475073313782997
2.895405669599218
2.9345063538611926
2.964809384164223
2.9872922776148583
3.002932551319648
3.0117302052785924
3.0117302052785924
3.0009775171065494
2.9824046920821115
2.956011730205278
2.920821114369501
2.874877810361681
2.8181818181818183
2.750733137829912
2.675464320625611
2.5962854349951123
2.5141739980449658
2.4330400782013686
2.3548387096774195
2.2873900293255134
2.2297165200391005
2.1739980449657867
2.12316715542522
2.078201368523949
2.040078201368524
2.006842619745845
1.9775171065493649
1.9501466275659824
1.9237536656891496
1.8963831867057677
1.869012707722385
1.8406647116324533
1.81524926686217
1.790811339198436
1.7624633431085044
1.7311827956989247
1.696969696969697
1.6608015640273706
1.624633431085044
1.5884652981427174
1.5532746823069403
1.5180840664711632
1.4848484848484849
1.452590420332356
1.426197458455523
1.404692082111437
1.3812316715542523
1.356793743890518
1.3343108504398826
1.3128054740957966
1.2932551319648091
1.2746823069403714
1.2580645161290325
1.2443792766373412
1.2316715542521994
1.2209188660801564
1.2150537634408602
1.2111436950146628
1.206256109481916
1.2003910068426198
1.1935483870967742
1.1867057673509287
1.1808406647116323
1.1759530791788857
1.1710654936461389
1.166177908113392
1.1612903225806452
1.1573802541544478
1.152492668621701
1.1505376344086022
1.1505376344086022
1.1485826001955035
1.144672531769306
1.1407624633431086
1.1368523949169111
1.1319648093841643
1.1270772238514175
1.1221896383186705
1.1173020527859236
1.1133919843597262
1.110459433040078
1.1114369501466277
1.1143695014662756
1.115347018572825
1.115347018572825
1.1143695014662756
1.1124144672531768
1.110459433040078
1.1085043988269794
1.1065493646138806
1.1055718475073313
1.1036168132942326
1.1026392961876832
1.1036168132942326
1.10752688172043
1.1133919843597262
1.1231671554252198
1.141739980449658
1.1710654936461389
1.217008797653959
1.2805474095796676
1.364613880742913
1.4701857282502444
1.5943304007820136
1.7331378299120237
1.8797653958944285
2.0097751710654936
2.1280547409579667
2.2551319648093844
2.377321603128055
2.4887585532746823
2.5835777126099706
2.662756598240469
2.7262952101661777
2.776148582600196
2.814271749755621
2.8426197458455524
2.8611925708699903
2.8719452590420333
2.870967741935484
2.863147605083089
2.8533724340175954
2.8367546432062563
2.812316715542522
2.779081133919844
2.735092864125122
2.6803519061583576
2.616813294232649
2.5454545454545454
2.4701857282502444
2.393939393939394
2.326490713587488
2.264907135874878
2.188660801564027
2.110459433040078
2.0498533724340176
2.0019550342130987
1.963831867057673
1.9315738025415443
1.903225806451613
1.8758553274682308
1.8494623655913975
1.823069403714565
1.7956989247311828
1.7702834799608993
1.7458455522971652
1.718475073313783
1.6881720430107527
1.656891495601173
1.6236559139784943
1.5884652981427174
1.5513196480938416
1.512218963831867
1.4721407624633431
1.434017595307918
1.3988269794721409
1.3695014662756595
1.3440860215053765
1.3176930596285434
1.2913000977517106
1.2658846529814272
1.241446725317693
1.219941348973607
1.2003910068426198
1.181818181818182
1.1652003910068427
1.1515151515151516
1.13880742913001
1.126099706744868
1.1173020527859236
1.110459433040078
1.1016617790811338
1.0928641251221896
1.0850439882697946
1.0791788856304985
1.0733137829912025
1.0684261974584557
1.0635386119257086
1.0586510263929618
1.053763440860215
1.0488758553274682
1.0469208211143697
1.0469208211143697
1.0449657869012707
1.0410557184750733
1.0371456500488758
1.032258064516129
1.0283479960899315
1.0234604105571847
1.018572825024438
1.013685239491691
1.0097751710654936
1.0068426197458455
1.0039100684261977
1.0039100684261977
1.0058651026392962
1.0068426197458455
1.0068426197458455
1.0068426197458455
1.0068426197458455
1.0068426197458455
1.0068426197458455
1.0068426197458455
1.0068426197458455
1.0068426197458455
1.0068426197458455
1.0097751710654936
1.0146627565982405
1.0234604105571847
1.0391006842619743
1.064516129032258
1.1055718475073313
1.166177908113392
1.2502443792766371
1.356793743890518
1.4838709677419355
1.6285434995112416
1.7849462365591398
1.946236559139785
2.085043988269794
2.206256109481916
2.332355816226784
2.450635386119257
2.5542521994134897
2.6422287390029324
2.7145650048875853
2.771260997067449
2.8152492668621703
2.8484848484848486
2.8719452590420333
2.886608015640274
2.889540566959922
2.8856304985337244
2.878787878787879
2.866080156402737
2.844574780058651
2.812316715542522
2.768328445747801
2.713587487781036
2.6480938416422286
2.575757575757576
2.4995112414467253
2.420332355816227
2.3421309872922778
2.2737047898338223
2.212121212121212
2.1524926686217007
2.0977517106549364
2.048875855327468
2.006842619745845
1.970674486803519
1.9403714565004888
1.913978494623656
1.889540566959922
1.865102639296188
1.839687194525904
1.8162267839687196
1.7927663734115349
1.7663734115347018
1.737047898338221
1.704789833822092
1.6705767350928642
1.6344086021505375
1.5972629521016617
1.5591397849462365
1.521994134897361
1.4848484848484849
1.4486803519061584
1.41544477028348
1.3890518084066472
1.3655913978494625
1.33822091886608
1.3118279569892473
1.2854349951124144
1.260019550342131
1.2355816226783969
1.2121212121212122
1.1915933528836755
1.1730205278592376
1.1573802541544478
1.1436950146627567
1.1348973607038124
1.1280547409579669
1.121212121212121
1.1133919843597262
1.1065493646138806
1.099706744868035
1.0928641251221896
1.086021505376344
1.0801564027370478
1.075268817204301
1.0703812316715542
1.0654936461388074
1.064516129032258
1.0654936461388074
1.064516129032258
1.0625610948191593
1.0596285434995112
1.056695992179863
1.0527859237536656
1.0488758553274682
1.04594330400782
1.0420332355816226
1.0420332355816226
1.0478983382209188
1.053763440860215
1.056695992179863
1.0586510263929618
1.0596285434995112
1.0596285434995112
1.0606060606060606
1.0635386119257086
1.0713587487781036
1.086021505376344
1.1124144672531768
1.1564027370478984
1.209188660801564
1.2776148582600195
1.3743890518084063
1.4965786901270772
1.6392961876832846
1.796676441837732
1.9618768328445748
2.129032258064516
2.290322580645161
2.4408602150537635
2.576735092864125
2.695014662756598
2.793743890518084
2.863147605083089
2.911045943304008
2.95405669599218
2.991202346041056
3.0205278592375366
3.043010752688172
3.0576735092864125
3.064516129032258
3.0635386119257086
3.0527859237536656
3.03128054740958
2.9980449657869013
2.956011730205278
2.906158357771261
2.844574780058651
2.773216031280548
2.6930596285435
2.6070381231671558
2.5210166177908118
2.436950146627566
2.357771260997068
2.2854349951124147
2.220918866080156
2.1652003910068425
2.117302052785924
2.0791788856304985
2.046920821114369
2.01564027370479
1.986314760508309
1.9579667644183771
1.9296187683284456
1.9012707722385145
1.871945259042033
1.8416422287390029
1.8093841642228736
1.775171065493646
1.739980449657869
1.7096774193548387
1.6803519061583578
1.6471163245356797
1.6109481915933528
1.5728250244379276
1.533724340175953
1.4926686217008798
1.452590420332356
1.414467253176931
1.3773216031280548
1.343108504398827
1.3098729227761483
1.2776148582600195
1.252199413489736
1.2316715542521994
1.209188660801564
1.1886608015640274
1.1700879765395895
1.1544477028347997
1.1397849462365592
1.126099706744868
1.1143695014662756
1.1036168132942326
1.0957966764418376
1.088954056695992
1.086021505376344
1.0850439882697946
1.083088954056696
1.0801564027370478
1.0772238514173995
1.0742913000977516
1.072336265884653
1.0694037145650048
1.067448680351906
1.0664711632453567
1.0654936461388074
1.0654936461388074
1.0654936461388074
1.067448680351906
1.0713587487781036
1.0713587487781036
1.0703812316715542
1.0684261974584557
1.0664711632453567
1.0654936461388074
1.0654936461388074
1.0654936461388074
1.0596285434995112
1.0518084066471165
1.0478983382209188
1.0478983382209188
1.0498533724340176
1.050830889540567
1.0518084066471165
1.050830889540567
1.0498533724340176
1.0478983382209188
1.04594330400782
1.0449657869012707
1.0449657869012707
1.0478983382209188
1.0557184750733135
1.0694037145650048
1.0909090909090908
1.1270772238514175
1.1798631476050832
1.2512218963831867
1.343108504398827
1.4545454545454546
1.5806451612903225
1.7174975562072337
1.8592375366568916
1.9990224828934504
2.131964809384164
2.254154447702835
2.347996089931574
2.4222873900293256
2.493646138807429
2.557184750733138
2.6099706744868034
2.652003910068426
2.6852394916911044
2.710654936461388
2.729227761485826
2.740957966764418
2.747800586510264
2.747800586510264
2.73802541544477
2.720430107526881
2.697947214076246
2.6666666666666665
2.625610948191593
2.573802541544477
2.512218963831867
2.442815249266862
2.3685239491691106
2.29227761485826
2.217986314760508
2.147605083088954
2.0840664711632453
2.03128054740958
1.9872922776148585
1.946236559139785
1.9100684261974583
1.8778103616813293
1.8484848484848484
1.8211143695014664
1.796676441837732
1.7732160312805474
1.750733137829912
1.7282502443792769
1.7067448680351909
1.6881720430107527
1.6686217008797657
1.64613880742913
1.6217008797653958
1.595307917888563
1.5679374389051808
1.5405669599217986
1.512218963831867
1.4838709677419355
1.4545454545454546
1.4242424242424243
1.3949169110459434
1.3655913978494625
1.3421309872922775
1.3206256109481915
1.2971652003910068
1.273704789833822
1.252199413489736
1.2316715542521994
1.2130987292277615
1.1974584555229717
1.1837732160312806
1.1730205278592376
1.163245356793744
1.155425219941349
1.1515151515151516
1.1505376344086022
1.1495601173020529
1.1485826001955035
1.1485826001955035
1.1485826001955035
1.1485826001955035
1.1485826001955035
1.1466275659824048
1.144672531769306
1.142717497556207
1.1407624633431086
1.1397849462365592
1.1397849462365592
1.141739980449658
1.141739980449658
1.1407624633431086
1.13880742913001
1.1368523949169111
1.133919843597263
1.1300097751710656
1.1241446725317692
1.115347018572825
1.1036168132942326
1.088954056695992
1.0772238514173995
1.0654936461388074
1.0478983382209188
1.029325513196481
1.0117302052785924
0.9990224828934506
0.9941348973607038
1.0019550342130987
1.0254154447702837
1.0664711632453567
1.1280547409579669
1.2111436950146628
1.3128054740957966
1.412512218963832
1.5141739980449658
1.6344086021505375
1.7624633431085044
1.8885630498533723
2.007820136852395
2.115347018572825
2.207233626588465
2.2844574780058653
2.346041055718475
2.393939393939394
2.43108504398827
2.452590420332356
2.463343108504399
2.4711632453567938
2.4750733137829912
2.472140762463343
2.462365591397849
2.444770283479961
2.418377321603128
2.383186705767351
2.3382209188660803
2.2844574780058653
2.222873900293255
2.15347018572825
2.0869990224828934
2.0234604105571847
1.9550342130987293
1.889540566959922
1.8299120234604105
1.7771260997067448
1.7331378299120237
1.6979472140762464
1.6715542521994136
1.6520039100684265
1.6373411534701858
1.624633431085044
1.6138807429130009
1.6041055718475072
1.5923753665689149
1.5786901270772238
1.5620723362658846
1.542521994134897
1.520039100684262
1.495601173020528
1.4682306940371457
1.4389051808406648
1.4086021505376345
1.3782991202346042
1.3479960899315735
1.3225806451612905
1.300097751710655
1.273704789833822
1.24633431085044
1.2189638318670577
1.1925708699902249
1.1671554252199414
1.1436950146627567
1.121212121212121
1.1016617790811338
1.0850439882697946
1.0713587487781036
1.0625610948191593
1.0576735092864125
1.050830889540567
1.0449657869012707
1.0391006842619743
1.0332355816226784
1.0283479960899315
1.024437927663734
1.021505376344086
1.0205278592375366
1.0205278592375366
1.021505376344086
1.0224828934506354
1.0254154447702837
1.0283479960899315
1.0303030303030305
1.0303030303030305
1.029325513196481
1.0263929618768328
1.0224828934506354
1.018572825024438
1.0146627565982405
1.0117302052785924
1.0087976539589445
1.0068426197458455
1.0068426197458455
1.0068426197458455
1.0048875855327468
1.0
0.9951124144672532
0.9912023460410556
0.9863147605083088
0.9824046920821116
0.978494623655914
0.9745845552297164
0.9716520039100685
0.9696969696969696
0.967741935483871
0.967741935483871
0.9696969696969696
0.9706744868035192
0.9716520039100685
0.9736070381231672
0.9765395894428152
0.9794721407624634
0.981427174975562
0.9833822091886608
0.9853372434017597
0.9882697947214076
0.9941348973607038
1.0048875855327468
1.021505376344086
1.0498533724340176
1.093841642228739
1.1564027370478984
1.2404692082111437
1.3450635386119256
1.469208211143695
1.6080156402737047
1.7556207233626588
1.906158357771261
2.0527859237536656
2.1739980449657867
2.2766373411534704
2.380254154447703
2.4750733137829912
2.6177908113391983
2.779081133919844
2.8856304985337244
2.959921798631476
3.0146627565982405
3.053763440860215
3.083088954056696
3.103616813294233
3.1163245356793743
3.1163245356793743
3.1065493646138806
3.0948191593352883
3.075268817204301
3.046920821114369
3.0087976539589443
2.9589442815249267
2.8993157380254155
2.8289345063538613
2.750733137829912
2.6666666666666665
2.579667644183773
2.5004887585532747
2.4281524926686218
2.3548387096774195
2.2854349951124147
2.2218963831867056
2.166177908113392
2.117302052785924
2.074291300097752
2.035190615835777
2.0
1.9657869012707725
1.932551319648094
1.8993157380254155
1.869012707722385
1.839687194525904
1.8074291300097751
1.7712609970674489
1.7350928641251222
1.696969696969697
1.6588465298142718
1.6207233626588464
1.5826001955034212
1.544477028347996
1.5053763440860215
1.4672531769305963
1.435972629521017
1.409579667644184
1.380254154447703
1.3519061583577712
1.324535679374389
1.2991202346041055
1.2776148582600195
1.2580645161290325
1.241446725317693
1.2258064516129032
1.2111436950146628
1.198435972629521
1.1867057673509287
1.1798631476050832
1.1759530791788857
1.1700879765395895
1.1622678396871946
1.1534701857282503
1.1436950146627567
1.133919843597263
1.1241446725317692
1.1163245356793745
1.1094819159335287
1.1036168132942326
1.0987292277614855
1.096774193548387
1.096774193548387
1.093841642228739
1.0909090909090908
1.0869990224828934
1.0821114369501466
1.078201368523949
1.0733137829912025
1.067448680351906
1.06158357771261
1.0557184750733135
1.0518084066471165
1.0488758553274682
1.0478983382209188
1.0498533724340176
1.050830889540567
1.0498533724340176
1.0488758553274682
1.0488758553274682
1.0478983382209188
1.0478983382209188
1.0478983382209188
1.0478983382209188
1.0469208211143697
1.04594330400782
1.0469208211143697
1.0498533724340176
1.0527859237536656
1.0606060606060606
1.0762463343108504
1.1065493646138806
1.1534701857282503
1.2209188660801564
1.3098729227761483
1.4213098729227762
1.5503421309872922
1.6920821114369502
1.8416422287390029
1.9726295210166176
2.089931573802541
2.2160312805474094
2.3391984359726297
2.450635386119257
2.547409579667644
2.6285434995112413
2.6940371456500487
2.745845552297165
2.78494623655914
2.814271749755621
2.834799608993157
2.843597262952102
2.844574780058651
2.844574780058651
2.8396871945259043
2.827956989247312
2.806451612903226
2.773216031280548
2.7282502443792764
2.673509286412512
2.6099706744868034
2.5386119257087
2.462365591397849
2.383186705767351
