ppg
1.7556207233626588
1.7282502443792769
1.6989247311827955
1.6686217008797657
1.6383186705767352
1.611925708699902
1.587487781036168
1.560117302052786
1.5327468230694037
1.5053763440860215
1.478005865102639
1.4516129032258065
1.426197458455523
1.401759530791789
1.3792766373411536
1.3587487781036167
1.3391984359726294
1.321603128054741
1.3088954056695992
1.2971652003910068
1.284457478005865
1.270772238514174
1.2570869990224829
1.2453567937438903
1.2365591397849462
1.2297165200391007
1.2238514173998043
1.219941348973607
1.2160312805474096
1.2121212121212122
1.2111436950146628
1.2101661779081134
1.2072336265884651
1.2043010752688172
1.2013685239491692
1.198435972629521
1.1945259042033236
1.1925708699902249
1.1906158357771262
1.187683284457478
1.187683284457478
1.1886608015640274
1.1867057673509287
1.1867057673509287
1.187683284457478
1.1867057673509287
1.18475073313783
1.181818181818182
1.1788856304985338
1.1788856304985338
1.1808406647116323
1.1857282502443791
1.1994134897360704
1.2238514173998043
1.2649071358748778
1.3157380254154447
1.3822091886608017
1.4760508308895406
1.5962854349951123
1.7380254154447703
1.8944281524926687
2.0576735092864125
2.2218963831867056
2.380254154447703
2.5288367546432062
2.6608015640273703
2.7751710654936463
2.8719452590420333
2.941348973607038
2.9931573802541545
3.043010752688172
3.0840664711632453
3.114369501466276
3.134897360703812
3.147605083088954
3.150537634408602
3.144672531769306
3.1309872922776147
3.10850439882698
3.074291300097752
3.0332355816226784
2.9853372434017595
2.9286412512218964
2.86217008797654
2.787878787878788
2.708699902248289
2.627565982404692
2.549364613880743
2.4750733137829912
2.406647116324536
2.346041055718475
2.294232649071359
2.251221896383187
2.2170087976539588
2.189638318670577
2.1652003910068425
2.1436950146627565
2.1251221896383186
2.1065493646138806
2.0879765395894427
2.0684261974584555
2.046920821114369
2.024437927663734
2.0
1.970674486803519
1.943304007820137
1.9159335288367547
1.8836754643206255
1.8484848484848484
1.812316715542522
1.7761485826001957
1.7409579667644184
1.7086999022482894
1.6774193548387095
1.6451612903225807
1.6138807429130009
1.58455522971652
1.555229716520039
1.530791788856305
1.5083088954056696
1.4848484848484849
1.4633431085043989
1.4428152492668622
1.4242424242424243
1.4056695992179864
1.3870967741935485
1.3695014662756595
1.35386119257087
1.3391984359726294
1.3255131964809383
1.3157380254154447
1.3069403714565004
1.295210166177908
1.2825024437927663
1.2688172043010753
1.2561094819159335
1.24633431085044
1.2394916911045943
1.2336265884652982
1.2297165200391007
1.2258064516129032
1.2218963831867058
1.217008797653959
1.2140762463343109
1.2111436950146628
1.206256109481916
1.2003910068426198
1.1945259042033236
1.1896383186705768
1.1857282502443791
1.181818181818182
1.1779081133919844
1.173998044965787
1.1710654936461389
1.166177908113392
1.163245356793744
1.1612903225806452
1.1593352883675463
1.1583577712609971
1.166177908113392
1.1886608015640274
1.2297165200391007
1.295210166177908
1.3870967741935485
1.501466275659824
1.6334310850439884
1.7810361681329423
1.9364613880742916
2.071358748778104
2.1925708699902247
2.324535679374389
2.4545454545454546
2.572825024437928
2.67644183773216
2.763440860215054
2.835777126099707
2.89345063538612
2.936461388074292
2.964809384164223
2.981427174975562
2.98435972629521
2.9775171065493646
2.9657869012707723
2.9472140762463344
2.920821114369501
2.884652981427175
2.838709677419355
2.782991202346041
2.716520039100684
2.641251221896383
2.560117302052786
2.47702834799609
2.393939393939394
2.321603128054741
2.257086999022483
2.193548387096774
2.1358748778103616
2.086021505376344
2.0449657869012707
2.0117302052785924
1.9843597262952104
1.9608993157380252
1.9393939393939397
1.9178885630498532
1.8983382209188664
1.881720430107527
1.8641251221896384
1.8416422287390029
1.8162267839687196
1.7888563049853372
1.7605083088954057
1.7302052785923754
1.6989247311827955
1.6666666666666667
1.6334310850439884
1.5972629521016617
1.5610948191593352
1.530791788856305
1.5034213098729228
1.474095796676442
1.444770283479961
1.41544477028348
1.3870967741935485
1.359726295210166
1.3333333333333333
1.3079178885630498
1.2834799608993157
1.2609970674486803
1.241446725317693
1.2228739002932552
1.209188660801564
1.198435972629521
1.1857282502443791
1.1720430107526882
1.1573802541544478
1.142717497556207
1.1300097751710656
1.1173020527859236
1.1036168132942326
1.0899315738025417
1.078201368523949
1.067448680351906
1.0625610948191593
1.0596285434995112
1.0557184750733135
1.0518084066471165
1.0488758553274682
1.0439882697947214
1.0381231671554252
1.0312805474095796
1.024437927663734
1.018572825024438
1.013685239491691
1.0097751710654936
1.0058651026392962
1.0058651026392962
1.007820136852395
1.0068426197458455
1.0039100684261977
1.0009775171065494
0.9990224828934506
0.9980449657869012
0.9960899315738024
0.9951124144672532
0.997067448680352
1.0068426197458455
1.0283479960899315
1.0606060606060606
1.1085043988269794
1.1808406647116323
1.2805474095796676
1.4037145650048877
1.5464320625610948
1.7028347996089932
1.865102639296188
2.024437927663734
2.176930596285435
2.318670576735093
2.444770283479961
2.5513196480938416
2.6295210166177907
2.6881720430107525
2.742913000977517
2.7869012707722387
2.820136852394917
2.841642228739003
2.8514173998044967
2.849462365591398
2.8377321603128056
2.817204301075269
2.788856304985337
2.750733137829912
2.708699902248289
2.659824046920821
2.5992179863147604
2.529814271749756
2.43108504398827
2.317693059628544
2.2248289345063537
2.144672531769306
2.074291300097752
2.0117302052785924
1.9579667644183771
1.9130009775171064
1.87683284457478
1.8514173998044965
1.8318670576735088
1.81524926686217
1.8005865102639296
1.7888563049853372
1.7761485826001957
1.7624633431085044
1.7468230694037146
1.729227761485826
1.7096774193548387
1.6871945259042034
1.6637341153470186
1.6441837732160314
1.6236559139784943
1.5992179863147604
1.5718475073313782
1.542521994134897
1.5112414467253177
1.479960899315738
1.4486803519061584
1.418377321603128
1.388074291300098
1.3607038123167154
1.335288367546432
1.3088954056695992
1.2883675464320623
1.2727272727272727
1.2551319648093842
1.2365591397849462
1.2189638318670577
1.2023460410557183
1.1867057673509287
1.1710654936461389
1.155425219941349
1.1407624633431086
1.1280547409579669
1.1173020527859236
1.1124144672531768
1.1094819159335287
1.104594330400782
1.0987292277614855
1.0928641251221896
1.0869990224828934
1.0811339198435972
1.075268817204301
1.0694037145650048
1.0635386119257086
1.0586510263929618
1.0557184750733135
1.0518084066471165
1.050830889540567
1.0527859237536656
1.0518084066471165
1.0478983382209188
1.0420332355816226
1.035190615835777
1.0283479960899315
1.0234604105571847
1.0195503421309873
1.0156402737047898
1.0127077223851415
1.0087976539589445
1.0087976539589445
1.010752688172043
1.0097751710654936
1.0097751710654936
1.0156402737047898
1.032258064516129
1.064516129032258
1.118279569892473
1.195503421309873
1.2961876832844574
1.4173998044965788
1.555229716520039
1.7028347996089932
1.8347996089931573
1.956989247311828
2.088954056695992
2.218963831867057
2.340175953079179
2.44672531769306
2.5376344086021505
2.611925708699902
2.6715542521994133
2.717497556207233
2.7497556207233624
2.7702834799608995
2.776148582600196
2.7722385141739982
2.764418377321604
2.7497556207233624
2.727272727272727
2.695014662756598
2.6529814271749754
2.603128054740958
2.5464320625610948
2.482893450635386
2.4144672531769307
2.3440860215053765
2.271749755620724
2.206256109481916
2.146627565982405
2.0869990224828934
2.032258064516129
1.9853372434017595
1.949169110459433
1.920821114369501
1.8993157380254155
1.881720430107527
1.866080156402737
1.8504398826979471
1.8347996089931573
1.8201368523949168
1.8064516129032255
1.790811339198436
1.772238514173998
1.7517106549364614
1.7311827956989247
1.7096774193548387
1.6852394916911049
1.6598240469208212
1.6314760508308896
1.6021505376344083
1.5708699902248289
1.543499511241447
1.5180840664711632
1.4887585532746823
1.458455522971652
1.4281524926686218
1.3978494623655917
1.3685239491691104
1.3421309872922775
1.3176930596285434
1.295210166177908
1.2746823069403714
1.2551319648093842
1.2365591397849462
1.2238514173998043
1.2130987292277615
1.2003910068426198
1.187683284457478
1.1749755620723363
1.1612903225806452
1.1485826001955035
1.1378299120234605
1.1290322580645162
1.121212121212121
1.115347018572825
1.1094819159335287
1.10752688172043
1.1085043988269794
1.1055718475073313
1.1016617790811338
1.0957966764418376
1.0899315738025417
1.083088954056696
1.0762463343108504
1.0703812316715542
1.0635386119257086
1.0586510263929618
1.0547409579667644
1.0488758553274682
1.04594330400782
1.0449657869012707
1.0410557184750733
1.0361681329423265
1.0303030303030305
1.024437927663734
1.0195503421309873
1.0166177908113392
1.0156402737047898
1.0175953079178883
1.0254154447702837
1.0439882697947214
1.072336265884653
1.115347018572825
1.1808406647116323
1.2697947214076246
1.3792766373411536
1.5083088954056696
1.651026392961877
1.8005865102639296
1.951124144672532
2.0977517106549364
2.2355816226783967
2.3597262952101663
2.4682306940371457
2.547409579667644
2.606060606060606
2.659824046920821
2.705767350928641
2.7419354838709675
2.768328445747801
2.7869012707722387
2.7976539589442817
2.7996089931573804
2.791788856304985
2.774193548387097
2.745845552297165
2.708699902248289
2.665689149560117
2.611925708699902
2.549364613880743
2.479960899315738
2.406647116324536
2.3313782991202348
2.259042033235582
2.1915933528836757
2.1309872922776147
2.0791788856304985
2.035190615835777
1.9980449657869013
1.9696969696969695
1.9472140762463344
1.9286412512218964
1.9130009775171064
1.8973607038123168
1.881720430107527
1.866080156402737
1.8504398826979471
1.8347996089931573
1.818181818181818
1.7986314760508308
1.7771260997067448
1.7575757575757576
1.7380254154447703
1.7135874877810362
1.6842619745845553
1.6529814271749756
1.619745845552297
1.5865102639296187
1.5532746823069403
1.52297165200391
1.4946236559139785
1.4682306940371457
1.4428152492668622
1.4193548387096775
1.401759530791789
1.388074291300098
1.3734115347018572
1.3587487781036167
1.3440860215053765
1.3313782991202343
1.3186705767350928
1.305962854349951
1.2932551319648091
1.2795698924731185
1.2717497556207231
1.2668621700879763
1.2609970674486803
1.1896383186705768
1.1886608015640274
1.1915933528836755
1.2023460410557183
1.224828934506354
1.2658846529814272
1.3294232649071358
1.4193548387096775
1.5356793743890518
1.675464320625611
1.833822091886608
2.003910068426197
2.15347018572825
2.2883675464320627
2.432062561094819
2.570869990224829
2.6989247311827955
2.811339198435973
2.90811339198436
2.991202346041056
3.059628543499511
3.114369501466276
3.155425219941349
3.1837732160312804
3.1925708699902247
3.189638318670577
3.1837732160312804
3.1710654936461387
3.1495601173020527
3.1192570869990224
3.080156402737048
3.0332355816226784
2.9775171065493646
2.913000977517106
2.8406647116324537
2.7624633431085046
2.6803519061583576
2.6050830889540566
2.535679374389052
2.466275659824047
2.401759530791789
2.347018572825025
2.302052785923754
2.2668621700879767
2.2375366568914954
2.2130987292277613
2.1915933528836757
2.1710654936461387
2.1515151515151514
2.133919843597263
2.115347018572825
2.0928641251221896
2.069403714565005
2.04594330400782
2.0205278592375366
1.991202346041056
1.9589442815249267
1.9266862170087975
1.89247311827957
1.857282502443793
1.8211143695014664
1.7849462365591398
1.7526881720430108
1.7233626588465298
1.6930596285434996
1.6608015640273706
1.6304985337243405
1.603128054740958
1.5786901270772238
1.5532746823069403
1.5278592375366569
1.5024437927663734
1.478005865102639
1.4545454545454546
1.436950146627566
1.4222873900293256
1.4056695992179864
1.388074291300098
1.3714565004887584
1.3558162267839686
1.3411534701857282
1.327468230694037
1.3147605083088951
1.3049853372434017
1.2961876832844574
1.2883675464320623
1.2834799608993157
1.2805474095796676
1.273704789833822
1.2639296187683284
1.2531769305962854
1.2443792766373412
1.2355816226783969
1.227761485826002
1.2218963831867058
1.217008797653959
1.2130987292277615
1.209188660801564
1.2052785923753666
1.2043010752688172
1.2043010752688172
1.203323558162268
1.2003910068426198
1.1974584555229717
1.1925708699902249
1.1857282502443791
1.176930596285435
1.1691104594330402
1.164222873900293
1.1652003910068427
1.1779081133919844
1.2013685239491692
1.2404692082111437
1.305962854349951
1.3988269794721409
1.5151515151515151
1.6500488758553276
1.801564027370479
1.962854349951124
2.126099706744868
2.2854349951124147
2.434017595307918
2.567937438905181
2.6852394916911044
2.7702834799608995
2.833822091886608
2.89345063538612
2.943304007820137
2.983382209188661
3.0127077223851417
3.032258064516129
3.042033235581622
3.042033235581622
3.032258064516129
3.0117302052785924
2.979472140762464
2.9393939393939394
2.89247311827957
2.834799608993157
2.766373411534702
2.6911045943304006
2.6099706744868034
2.525904203323558
2.441837732160313
2.361681329423265
2.2873900293255134
2.218963831867057
2.1593352883675463
2.10850439882698
2.069403714565005
2.0391006842619745
2.013685239491691
1.991202346041056
1.9726295210166176
1.9560117302052784
1.9403714565004888
1.9237536656891496
1.906158357771261
1.884652981427175
1.8602150537634408
1.833822091886608
1.8084066471163245
1.7820136852394917
1.750733137829912
1.7194525904203324
1.686217008797654
1.6500488758553276
1.6129032258064515
1.5757575757575757
1.5386119257087
1.5034213098729228
1.4711632453567938
1.4408602150537635
1.4105571847507332
1.3870967741935485
1.3685239491691104
1.3479960899315735
1.3255131964809383
1.3020527859237536
1.278592375366569
1.2561094819159335
1.2355816226783969
1.2160312805474096
1.1974584555229717
1.1788856304985338
1.1622678396871946
1.152492668621701
1.1456500488758554
1.1358748778103618
1.1251221896383188
1.1163245356793745
1.1085043988269794
1.1006842619745845
1.0928641251221896
1.0850439882697946
1.0791788856304985
1.075268817204301
1.072336265884653
1.0684261974584557
1.067448680351906
1.067448680351906
1.0635386119257086
1.0576735092864125
1.050830889540567
1.0439882697947214
1.0371456500488758
1.0303030303030305
1.0234604105571847
1.0175953079178883
1.0097751710654936
1.0019550342130987
0.9990224828934506
0.9980449657869012
0.9951124144672532
0.9921798631476052
0.9921798631476052
1.0
1.018572825024438
1.0518084066471165
1.1055718475073313
1.1837732160312806
1.2873900293255132
1.414467253176931
1.5591397849462365
1.6950146627565983
1.826001955034213
1.9745845552297163
2.126099706744868
2.236559139784946
2.313782991202346
2.3978494623655915
2.47702834799609
2.5464320625610948
2.6041055718475072
2.6480938416422286
2.678396871945259
2.69208211143695
2.695014662756598
2.69208211143695
2.6823069403714563
2.664711632453568
2.6373411534701856
2.6021505376344085
2.5591397849462365
2.50733137829912
2.4486803519061584
2.3822091886608017
2.3118279569892475
2.2385141739980448
2.1730205278592374
2.113391984359726
2.053763440860215
1.9990224828934504
1.9501466275659824
1.9071358748778104
1.870967741935484
1.8406647116324533
1.8162267839687196
1.7976539589442817
1.7839687194525904
1.772238514173998
1.761485826001955
1.7526881720430108
1.7419354838709675
1.729227761485826
1.7135874877810362
1.694037145650049
1.672531769305963
1.6490713587487782
1.6217008797653958
1.5933528836754642
1.564027370478983
1.533724340175953
1.5024437927663734
1.4750733137829912
1.4506353861192571
1.423264907135875
1.3949169110459434
1.3665689149560116
1.3391984359726294
1.3118279569892473
1.2864125122189638
1.2639296187683284
1.2434017595307918
1.224828934506354
1.2072336265884651
1.1945259042033236
1.1837732160312806
1.1710654936461389
1.1583577712609971
1.1466275659824048
1.1358748778103618
1.126099706744868
1.1163245356793745
1.10752688172043
1.099706744868035
1.0928641251221896
1.086021505376344
1.0791788856304985
1.0762463343108504
1.0742913000977516
1.0703812316715542
1.064516129032258
1.0586510263929618
1.0527859237536656
1.04594330400782
1.0391006842619743
1.0332355816226784
1.0303030303030305
1.0283479960899315
1.0273704789833822
1.029325513196481
1.032258064516129
1.0312805474095796
1.0283479960899315
1.024437927663734
1.021505376344086
1.0175953079178883
1.0127077223851415
1.0087976539589445
1.0048875855327468
1.002932551319648
1.0068426197458455
1.0195503421309873
1.0420332355816226
1.0801564027370478
1.1368523949169111
1.217008797653959
1.3196480938416422
1.4428152492668622
1.581622678396872
1.7282502443792769
1.8778103616813293
2.0254154447702835
2.163245356793744
2.2873900293255134
2.3841642228739004
2.4594330400782014
2.530791788856305
2.592375366568915
2.641251221896383
2.677419354838709
2.702834799608993
2.717497556207233
2.7233626588465296
2.720430107526881
2.70772238514174
2.6852394916911044
2.656891495601173
2.6207233626588464
2.576735092864125
2.5239491691104594
2.4613880742913
2.3919843597262958
2.3196480938416424
2.24633431085044
2.175953079178885
2.110459433040078
2.0518084066471163
2.0019550342130987
1.959921798631476
1.927663734115347
1.9012707722385145
1.878787878787879
1.8592375366568916
1.8416422287390029
1.825024437927664
1.8103616813294232
1.796676441837732
1.7810361681329423
1.7653958944281525
1.7487781036168133
1.7302052785923754
1.7126099706744868
1.694037145650049
1.672531769305963
1.6490713587487782
1.6217008797653958
1.5933528836754642
1.564027370478983
1.533724340175953
1.5024437927663734
1.4721407624633431
1.444770283479961
1.418377321603128
1.393939393939394
1.3743890518084063
1.3577712609970674
1.3391984359726294
1.3206256109481915
1.3010752688172045
1.281524926686217
1.262952101661779
1.2482893450635386
1.2355816226783969
1.224828934506354
1.2140762463343109
1.2043010752688172
1.1974584555229717
1.1925708699902249
1.18475073313783
1.1759530791788857
1.1671554252199414
1.160312805474096
1.155425219941349
1.1515151515151516
1.147605083088954
1.144672531769306
1.1407624633431086
1.1368523949169111
1.1319648093841643
1.1300097751710656
1.1290322580645162
1.1270772238514175
1.1251221896383188
1.1241446725317692
1.1231671554252198
1.1231671554252198
1.1231671554252198
1.1231671554252198
1.1231671554252198
1.1231671554252198
1.1231671554252198
1.1241446725317692
1.1270772238514175
1.1270772238514175
1.1270772238514175
1.1270772238514175
1.1319648093841643
1.1456500488758554
1.1730205278592376
1.217008797653959
1.2834799608993157
1.3724340175953078
1.482893450635386
1.6109481915933528
1.7331378299120237
1.8533724340175952
1.992179863147605
2.1378299120234603
2.280547409579668
2.4115347018572826
2.527859237536657
2.627565982404692
2.7116324535679373
2.780058651026393
2.832844574780059
2.8719452590420333
2.89345063538612
2.903225806451613
2.9100684261974585
2.911045943304008
2.905180840664712
2.8914956011730206
2.8690127077223853
2.8367546432062563
2.795698924731183
2.745845552297165
2.6881720430107525
2.6236559139784945
2.5562072336265884
2.49266862170088
2.432062561094819
2.3685239491691106
2.3059628543499517
2.2482893450635384
2.1974584555229715
2.155425219941349
2.120234604105572
2.09188660801564
2.069403714565005
2.0518084066471163
2.0361681329423265
2.022482893450636
2.0087976539589443
1.9931573802541545
1.9775171065493649
1.9608993157380252
1.9413489736070384
1.9188660801564028
1.8944281524926687
1.8699902248289344
1.844574780058651
1.8172043010752688
1.796676441837732
1.7781036168132942
1.7556207233626588
1.7311827956989247
1.7038123167155426
1.675464320625611
1.6471163245356797
1.6177908113391983
1.5894428152492668
1.563049853372434
1.5386119257087
1.5161290322580645
1.4946236559139785
1.4750733137829912
1.4594330400782014
1.4467253176930597
1.4320625610948192
1.41544477028348
1.3998044965786902
1.3851417399804498
1.370478983382209
1.356793743890518
1.3440860215053765
1.3333333333333333
1.321603128054741
1.310850439882698
1.3010752688172045
1.295210166177908
1.2913000977517106
1.2854349951124144
1.2795698924731185
1.2727272727272727
1.2658846529814272
1.260019550342131
1.2551319648093842
1.2512218963831867
1.2473118279569892
1.2443792766373412
1.2404692082111437
1.2394916911045943
1.241446725317693
1.241446725317693
1.2404692082111437
1.238514173998045
1.2365591397849462
1.2336265884652982
1.23069403714565
1.2267839687194526
1.2228739002932552
1.2209188660801564
1.2258064516129032
1.2375366568914956
1.2609970674486803
1.3020527859237536
1.3636363636363635
1.4486803519061584
1.5571847507331378
1.6852394916911049
1.827956989247312
1.978494623655914
2.1309872922776147
2.2795698924731185
2.419354838709677
2.544477028347996
2.6402737047898337
2.7145650048875853
2.7869012707722387
2.8514173998044967
2.903225806451613
2.943304007820137
2.972629521016618
2.991202346041056
3.0009775171065494
3.0019550342130987
2.994134897360704
2.9775171065493646
2.952101661779081
2.918866080156403
2.877810361681329
2.827956989247312
2.768328445747801
2.6989247311827955
2.624633431085044
2.5464320625610948
2.4672531769305963
2.3900293255131966
2.3167155425219943
2.2502443792766376
2.1915933528836757
2.145650048875855
2.1094819159335287
2.078201368523949
2.0527859237536656
2.03128054740958
2.0127077223851417
1.994134897360704
1.9745845552297163
1.9550342130987293
1.9345063538611929
1.9130009775171064
1.8905180840664717
1.8699902248289344
1.8484848484848484
1.822091886608016
1.793743890518084
1.7663734115347018
1.737047898338221
1.7057673509286413
1.675464320625611
1.6441837732160314
1.6129032258064515
1.5826001955034212
1.5513196480938416
1.521016617790811
1.4965786901270772
1.4750733137829912
1.452590420332356
1.4291300097751711
1.4056695992179864
1.3812316715542523
1.356793743890518
1.3333333333333333
1.3098729227761483
1.2883675464320623
1.267839687194526
1.249266862170088
1.2355816226783969
1.2258064516129032
1.2140762463343109
1.2013685239491692
1.1896383186705768
1.1788856304985338
1.1681329423264908
1.1573802541544478
1.147605083088954
1.1407624633431086
1.1368523949169111
1.133919843597263
1.1290322580645162
1.1270772238514175
1.126099706744868
1.1221896383186705
1.1163245356793745
1.110459433040078
1.1036168132942326
1.096774193548387
1.0909090909090908
1.086021505376344
1.083088954056696
1.0801564027370478
1.075268817204301
1.075268817204301
1.075268817204301
1.075268817204301
1.075268817204301
1.075268817204301
1.0625610948191593
1.067448680351906
1.0821114369501466
1.1124144672531768
1.1622678396871946
1.2346041055718475
1.3313782991202343
1.4516129032258065
1.5708699902248289
1.6920821114369502
1.833822091886608
1.9824046920821117
2.1270772238514173
2.2629521016617797
2.383186705767351
2.4858260019550342
2.572825024437928
2.644183773216031
2.699902248289345
2.740957966764418
2.7653958944281527
2.776148582600196
2.782991202346041
2.782991202346041
2.774193548387097
2.755620723362659
2.7282502443792764
2.6911045943304006
2.6451612903225805
2.590420332355816
2.5268817204301075
2.4565004887585533
2.3812316715542523
2.3118279569892475
2.24633431085044
2.176930596285435
2.1094819159335287
2.046920821114369
1.9931573802541545
1.948191593352884
1.911045943304008
1.8826979472140764
1.8602150537634408
1.8416422287390029
1.826001955034213
1.8132942326490715
1.801564027370479
1.7888563049853372
1.7761485826001957
1.7624633431085044
1.747800586510264
1.7311827956989247
1.710654936461388
1.686217008797654
1.6578690127077225
