ppg
2.0879765395894427
2.0733137829912023
2.059628543499511
2.04594330400782
2.032258064516129
2.018572825024438
2.004887585532747
1.991202346041056
1.9804496578690127
1.9716520039100685
1.959921798631476
1.945259042033236
1.9296187683284456
1.913978494623656
1.8983382209188664
1.8826979472140764
1.868035190615836
1.855327468230694
1.8435972629521016
1.833822091886608
1.8240469208211143
1.818181818181818
1.8132942326490715
1.8084066471163245
1.8025415444770283
1.796676441837732
1.7888563049853372
1.7820136852394917
1.7781036168132942
1.775171065493646
1.7761485826001957
1.7839687194525904
1.8035190615835777
1.8318670576735088
1.870967741935484
1.9286412512218964
2.0019550342130987
2.0879765395894427
2.1818181818181817
2.2795698924731185
2.375366568914956
2.466275659824047
2.549364613880743
2.621700879765396
2.681329423264907
2.729227761485826
2.7614858260019552
2.782013685239492
2.7966764418377323
2.8025415444770285
2.80058651026393
2.790811339198436
2.774193548387097
2.7497556207233624
2.718475073313783
2.681329423264907
2.6392961876832843
2.5943304007820136
2.552297165200391
2.512218963831867
2.469208211143695
2.3196480938416424
2.113391984359726
1.9794721407624636
1.8836754643206255
1.8093841642228736
1.750733137829912
1.7028347996089932
1.66177908113392
1.6265884652981428
1.5972629521016617
1.5757575757575757
1.560117302052786
1.544477028347996
1.5298142717497556
1.5151515151515151
1.501466275659824
1.4887585532746823
1.4750733137829912
1.4613880742913
1.4496578690127078
1.4389051808406648
1.4281524926686218
1.4203323558162269
1.412512218963832
1.4007820136852396
1.3851417399804498
1.3685239491691104
1.3519061583577712
1.3372434017595307
1.3225806451612905
1.3079178885630498
1.2932551319648091
1.2795698924731185
1.2688172043010753
1.260019550342131
1.2541544477028348
1.2502443792766371
1.2453567937438903
1.238514173998045
1.2326490713587488
1.2287390029325511
1.2258064516129032
1.2228739002932552
1.219941348973607
1.2160312805474096
1.2130987292277615
1.209188660801564
1.2082111436950147
1.209188660801564
1.2072336265884651
1.2043010752688172
1.2013685239491692
1.198435972629521
1.1945259042033236
1.1915933528836755
1.1886608015640274
1.1886608015640274
1.195503421309873
1.2121212121212122
1.2453567937438903
1.2903225806451613
1.35386119257087
1.4496578690127078
1.5786901270772238
1.737047898338221
1.920821114369501
2.1192570869990224
2.32355816226784
2.5219941348973607
2.705767350928641
2.868035190615836
3.0019550342130987
3.0928641251221896
3.1485826001955037
3.185728250244379
3.19941348973607
3.188660801564027
3.157380254154448
3.110459433040078
3.050830889540567
2.98435972629521
2.913978494623656
2.838709677419355
2.758553274682307
2.6695992179863146
2.581622678396872
2.489736070381232
2.380254154447703
2.2561094819159337
2.121212121212121
1.9804496578690127
1.8416422287390029
1.7096774193548387
1.587487781036168
1.47702834799609
1.3792766373411536
1.2932551319648091
1.2287390029325511
1.1779081133919844
1.1280547409579669
1.0850439882697946
1.0498533724340176
1.0224828934506354
1.0
0.9794721407624634
0.959921798631476
0.9364613880742912
0.9090909090909092
0.8807429130009775
0.8582600195503421
0.8396871945259042
0.8181818181818182
0.7996089931573802
0.7849462365591398
0.7741935483870968
0.7663734115347018
0.7605083088954057
0.7575757575757576
0.7565982404692082
0.7595307917888563
0.7653958944281525
0.7712609970674487
0.7771260997067448
0.7810361681329423
0.7761485826001955
0.761485826001955
0.7390029325513197
0.7106549364613881
0.678396871945259
0.6441837732160313
0.6099706744868035
0.5786901270772239
0.5513196480938416
0.5249266862170088
0.5073313782991202
0.4975562072336266
0.4848484848484848
0.4731182795698925
0.4633431085043988
0.4545454545454545
0.4467253176930596
0.4389051808406647
0.4301075268817204
0.4164222873900293
0.396871945259042
0.3724340175953079
0.3431085043988269
0.3206256109481916
0.3010752688172043
0.2776148582600195
0.2590420332355816
0.2570869990224829
0.281524926686217
0.3391984359726295
0.4340175953079179
0.5640273704789834
0.7262952101661779
0.9110459433040078
1.110459433040078
1.289345063538612
1.4545454545454546
1.629521016617791
1.8005865102639296
1.9579667644183771
2.0987292277614857
2.220918866080156
2.32355816226784
2.406647116324536
2.472140762463343
2.52297165200391
2.5610948191593352
2.5855327468230693
2.5943304007820136
2.590420332355816
2.579667644183773
2.560117302052786
2.529814271749756
2.4887585532746823
2.4379276637341154
2.378299120234604
2.3118279569892475
2.2404692082111435
2.166177908113392
2.0928641251221896
2.0303030303030303
1.975562072336266
1.921798631476051
1.870967741935484
1.825024437927664
1.7839687194525904
1.7468230694037146
1.715542521994135
1.689149560117302
1.667644183773216
1.6480938416422288
1.632453567937439
1.6187683284457477
1.608993157380254
1.6001955034213098
1.5894428152492668
1.576735092864125
1.564027370478983
1.5503421309872922
1.5347018572825024
1.5161290322580645
1.495601173020528
1.474095796676442
1.4506353861192571
1.426197458455523
1.4066471163245358
1.388074291300098
1.3665689149560116
1.3440860215053765
1.3206256109481915
1.2942326490713587
1.267839687194526
1.2424242424242424
1.217008797653959
1.1915933528836755
1.166177908113392
1.142717497556207
1.1192570869990224
1.1006842619745845
1.0840664711632453
1.06158357771261
1.0371456500488758
1.0127077223851415
0.9872922776148584
0.9628543499511242
0.9374389051808406
0.913978494623656
0.8924731182795699
0.8748778103616813
0.8592375366568915
0.8494623655913979
0.8426197458455523
0.8318670576735093
0.8191593352883676
0.8064516129032258
0.7917888563049853
0.7751710654936461
0.7595307917888563
0.7487781036168133
0.7468230694037146
0.761485826001955
0.7976539589442815
0.863147605083089
0.9452590420332356
1.0469208211143697
1.1837732160312806
1.346041055718475
1.5239491691104594
1.7086999022482894
1.889540566959922
2.058651026392962
2.2111436950146626
2.346041055718475
2.4545454545454546
2.532746823069404
2.582600195503421
2.613880742913001
2.6373411534701856
2.652003910068426
2.654936461388074
2.6480938416422286
2.631476050830889
2.6041055718475072
2.5669599217986314
2.5210166177908118
2.469208211143695
2.412512218963832
2.3528836754643208
2.297165200391007
2.24633431085044
2.1925708699902247
2.1378299120234603
2.085043988269794
2.035190615835777
1.9902248289345064
1.949169110459433
1.9120234604105573
1.878787878787879
1.8504398826979471
1.826001955034213
1.8093841642228736
1.7976539589442817
1.7859237536656891
1.7741935483870968
1.7634408602150538
1.75366568914956
1.7438905180840665
1.7341153470185728
1.7243401759530792
1.7126099706744868
1.7008797653958945
1.6881720430107527
1.675464320625611
1.6666666666666667
1.6588465298142718
1.6490713587487782
1.6373411534701858
1.6236559139784943
1.608993157380254
1.5943304007820136
1.5796676441837731
1.565982404692082
1.5513196480938416
1.5356793743890518
1.5190615835777126
1.5073313782991202
1.4975562072336266
1.4858260019550342
1.4721407624633431
1.4594330400782014
1.4467253176930597
1.4349951124144673
1.4242424242424243
1.4134897360703813
1.4037145650048877
1.393939393939394
1.3841642228739004
1.3763440860215057
1.3734115347018572
1.3724340175953078
1.3714565004887584
1.370478983382209
1.370478983382209
1.370478983382209
1.370478983382209
1.370478983382209
1.370478983382209
1.370478983382209
1.3743890518084063
1.3861192570869991
1.4066471163245358
1.4389051808406648
1.490713587487781
1.5650048875855327
1.6598240469208212
1.7732160312805474
1.9012707722385145
2.035190615835777
2.16911045943304
2.297165200391007
2.41544477028348
2.5210166177908118
2.6021505376344085
2.664711632453568
2.7233626588465296
2.774193548387097
2.814271749755621
2.841642228739003
2.8563049853372435
2.8582600195503423
2.8484848484848486
2.827956989247312
2.7966764418377323
2.7565982404692084
2.708699902248289
2.659824046920821
2.608993157380254
2.549364613880743
2.4858260019550342
2.419354838709677
2.35386119257087
2.289345063538612
2.2277614858260018
2.16911045943304
2.114369501466276
2.0625610948191597
2.0146627565982405
1.9765395894428155
1.9442815249266865
1.9120234604105573
1.8807429130009776
1.8523949169110456
1.8269794721407624
1.8035190615835777
1.7810361681329423
1.7595307917888563
1.739980449657869
1.7204301075268815
1.7008797653958945
1.6823069403714566
1.667644183773216
1.6559139784946235
1.6412512218963833
1.6265884652981428
1.611925708699902
1.5972629521016617
1.5826001955034212
1.5679374389051808
1.5532746823069403
1.5395894428152492
1.525904203323558
1.5131964809384164
1.504398826979472
1.498533724340176
1.490713587487781
1.4819159335288368
1.474095796676442
1.4652981427174976
1.455522971652004
1.4467253176930597
1.4389051808406648
1.43108504398827
1.4222873900293256
1.412512218963832
1.4027370478983383
1.396871945259042
1.3919843597262953
1.3841642228739004
1.3734115347018572
1.3626588465298142
1.3519061583577712
1.3411534701857282
1.3304007820136852
1.3196480938416422
1.3088954056695992
1.2981427174975562
1.2854349951124144
1.2776148582600195
1.273704789833822
1.270772238514174
1.2766373411534702
1.2981427174975562
1.3401759530791788
1.4066471163245358
1.4975562072336266
1.608993157380254
1.737047898338221
1.8748778103616808
2.016617790811339
2.155425219941349
2.271749755620724
2.372434017595308
2.4750733137829912
2.5718475073313782
2.6578690127077222
2.732160312805474
2.792766373411535
2.8406647116324537
2.875855327468231
2.8993157380254155
2.9120234604105573
2.9149560117302054
2.9071358748778104
2.8885630498533725
2.8611925708699903
2.825024437927664
2.779081133919844
2.7253176930596283
2.664711632453568
2.5992179863147604
2.530791788856305
2.4594330400782014
2.3870967741935485
2.315738025415445
2.24633431085044
2.1867057673509285
2.132942326490713
2.0762463343108504
2.021505376344086
1.9716520039100685
1.9257086999022484
1.884652981427175
1.8494623655913975
1.8201368523949168
1.7956989247311828
1.775171065493646
1.7595307917888563
1.7487781036168133
1.7409579667644184
1.7331378299120237
1.7243401759530792
1.7145650048875856
1.704789833822092
1.6950146627565983
1.683284457478006
1.6715542521994136
1.6598240469208212
1.6490713587487782
1.6383186705767352
1.629521016617791
1.6236559139784943
1.6207233626588464
1.6187683284457477
1.6177908113391983
1.619745845552297
1.6236559139784943
1.6285434995112416
1.635386119257087
1.6422287390029326
1.6490713587487782
1.6559139784946235
1.6637341153470186
1.672531769305963
1.6823069403714566
1.694037145650049
1.7067448680351909
1.7194525904203324
1.732160312805474
1.7448680351906158
1.7565982404692082
1.7683284457478006
1.780058651026393
1.7927663734115349
1.8054740957966764
1.8162267839687196
1.826001955034213
1.8347996089931573
1.8416422287390029
1.8084066471163245
1.7526881720430108
1.7223851417399805
1.704789833822092
1.6979472140762464
1.7067448680351909
1.737047898338221
1.793743890518084
1.8797653958944285
1.9736070381231672
2.0821114369501466
2.2218963831867056
2.3792766373411536
2.5434995112414467
2.704789833822092
2.8563049853372435
2.992179863147605
3.110459433040078
3.210166177908113
3.290322580645161
3.3528836754643208
3.396871945259042
3.418377321603128
3.4242424242424243
3.423264907135875
3.4115347018572826
3.389051808406647
3.356793743890518
3.312805474095797
3.2580645161290325
3.1925708699902247
3.118279569892473
3.037145650048876
2.949169110459433
2.865102639296188
2.7839687194525906
2.6959921798631474
2.6070381231671558
2.520039100684262
2.4379276637341154
2.3626588465298144
2.2952101661779083
2.2346041055718477
2.1808406647116323
2.134897360703812
2.0957966764418376
2.0625610948191597
2.037145650048876
2.016617790811339
1.9980449657869013
1.981427174975562
1.963831867057673
1.945259042033236
1.927663734115347
1.9100684261974583
1.89247311827957
1.873900293255132
1.855327468230694
1.835777126099707
1.818181818181818
1.8005865102639296
1.7781036168132942
1.7517106549364614
1.7223851417399805
1.6911045943304008
1.656891495601173
1.6217008797653958
1.587487781036168
1.552297165200391
1.517106549364614
1.4819159335288368
1.452590420332356
1.4271749755620724
1.3988269794721409
1.3695014662756595
1.3391984359726294
1.310850439882698
1.2834799608993157
1.2570869990224829
1.2316715542521994
1.2072336265884651
1.1837732160312806
1.160312805474096
1.1378299120234605
1.1231671554252198
1.1133919843597262
1.1006842619745845
1.0869990224828934
1.0733137829912025
1.0596285434995112
1.04594330400782
1.032258064516129
1.0175953079178883
1.0039100684261977
0.9921798631476052
0.9872922776148584
0.9921798631476052
1.0097751710654936
1.043010752688172
1.0977517106549364
1.176930596285435
1.281524926686217
1.4076246334310851
1.5483870967741935
1.6950146627565983
1.8416422287390029
1.981427174975562
2.10752688172043
2.217986314760508
2.3010752688172045
2.363636363636364
2.419354838709677
2.4613880742913
2.487781036168133
2.4995112414467253
2.495601173020528
2.4780058651026398
2.447702834799609
2.406647116324536
2.356793743890518
2.300097751710655
2.2453567937438903
2.1925708699902247
2.132942326490713
2.0733137829912023
2.01564027370479
1.9608993157380252
1.911045943304008
1.866080156402737
1.8269794721407624
1.7927663734115349
1.7644183773216031
1.7409579667644184
1.7223851417399805
1.7086999022482894
1.699902248289345
1.6930596285434996
1.6881720430107527
1.6852394916911049
1.6842619745845553
1.683284457478006
1.6823069403714566
1.6793743890518085
1.675464320625611
1.6705767350928642
1.6637341153470186
1.6588465298142718
1.653958944281525
1.6471163245356797
1.6392961876832846
1.629521016617791
1.6187683284457477
1.607038123167155
1.595307917888563
1.5826001955034212
1.5708699902248289
1.5591397849462365
1.5454545454545454
1.5298142717497556
1.517106549364614
1.504398826979472
1.4868035190615836
1.4652981427174976
1.4418377321603129
1.4173998044965788
1.393939393939394
1.370478983382209
1.3470185728250244
1.324535679374389
1.303030303030303
1.2825024437927663
1.267839687194526
1.2551319648093842
1.238514173998045
1.2209188660801564
1.206256109481916
1.1925708699902249
1.1779081133919844
1.163245356793744
1.1485826001955035
1.1329423264907137
1.1173020527859236
1.1016617790811338
1.088954056695992
1.0840664711632453
1.0909090909090908
1.110459433040078
1.1505376344086022
1.2179863147605083
1.3157380254154447
1.4437927663734116
1.595307917888563
1.7624633431085044
1.935483870967742
2.10850439882698
2.274682306940372
2.409579667644184
2.52297165200391
2.636363636363636
2.740957966764418
2.831867057673509
2.906158357771261
2.963831867057673
3.006842619745845
3.037145650048876
3.0557184750733137
3.06158357771261
3.0547409579667644
3.034213098729228
3.004887585532747
2.9667644183773216
2.9159335288367547
2.852394916911046
2.777126099706745
2.69208211143695
2.601173020527859
2.506353861192571
2.410557184750733
2.313782991202346
2.219941348973607
2.1309872922776147
2.0547409579667644
1.989247311827957
1.9227761485826005
1.858260019550342
1.7976539589442817
1.7429130009775171
1.6950146627565983
1.6520039100684265
1.611925708699902
1.5757575757575757
1.542521994134897
1.5102639296187683
1.479960899315738
1.456500488758553
1.434017595307918
1.409579667644184
1.3841642228739004
1.356793743890518
1.3294232649071358
1.303030303030303
1.2766373411534702
1.2502443792766371
1.2238514173998043
1.1964809384164223
1.1671554252199414
1.1436950146627567
1.1221896383186705
1.0928641251221896
1.0596285434995112
1.0254154447702837
0.9931573802541545
0.9628543499511242
0.9345063538611924
0.9081133919843596
0.8856304985337243
0.9042033235581622
0.9452590420332356
0.9618768328445748
0.9716520039100685
0.978494623655914
0.981427174975562
0.9833822091886608
0.9843597262952102
0.9863147605083088
0.9902248289345064
0.9941348973607038
0.9990224828934506
1.0058651026392962
1.0146627565982405
1.0254154447702837
1.040078201368524
1.0557184750733135
1.0703812316715542
1.0840664711632453
1.099706744868035
1.1192570869990224
1.1485826001955035
1.1915933528836755
1.2551319648093842
1.3421309872922775
1.4545454545454546
1.5913978494623655
1.7243401759530792
1.858260019550342
2.0175953079178885
2.1867057673509285
2.35386119257087
2.5131964809384164
2.659824046920821
2.791788856304985
2.9071358748778104
3.004887585532747
3.086021505376344
3.1495601173020527
3.1974584555229715
3.2248289345063537
3.236559139784946
3.244379276637341
3.2453567937438903
3.236559139784946
3.219941348973607
3.193548387096774
3.157380254154448
3.113391984359726
3.06158357771261
3.003910068426197
2.941348973607038
2.8807429130009776
2.820136852394917
2.755620723362659
2.6911045943304006
2.627565982404692
2.565982404692082
2.50733137829912
2.452590420332356
2.40078201368524
2.3528836754643208
2.30791788856305
2.2658846529814274
2.2277614858260018
2.1945259042033234
2.164222873900293
2.132942326490713
2.102639296187683
2.074291300097752
2.047898338220919
2.022482893450636
1.9980449657869013
1.9736070381231672
1.948191593352884
1.9227761485826005
1.8973607038123168
1.8758553274682308
1.855327468230694
1.833822091886608
1.8103616813294232
1.7859237536656891
1.761485826001955
1.737047898338221
1.7135874877810362
1.6911045943304008
1.6695992179863148
1.6490713587487782
1.6304985337243405
1.611925708699902
1.5962854349951123
1.581622678396872
1.5650048875855327
1.547409579667644
1.5298142717497556
1.512218963831867
1.4946236559139785
1.478005865102639
1.4623655913978495
1.4467253176930597
1.4330400782013686
1.4203323558162269
1.4115347018572826
1.404692082111437
1.3958944281524928
1.3851417399804498
1.3743890518084063
1.3626588465298142
1.3509286412512218
1.3391984359726294
1.327468230694037
1.3157380254154447
1.3049853372434017
1.2971652003910068
1.295210166177908
1.3020527859237536
1.3206256109481915
1.356793743890518
1.4115347018572826
1.487781036168133
1.581622678396872
1.6881720430107527
1.8025415444770283
1.919843597262952
2.032258064516129
2.1358748778103616
2.2277614858260018
2.297165200391007
2.3499511241446727
2.3958944281524928
2.43108504398827
2.453567937438905
2.463343108504399
2.4613880742913
2.447702834799609
2.423264907135875
2.391006842619746
2.3519061583577714
2.3069403714565007
2.2561094819159337
2.2082111436950145
2.161290322580645
2.1094819159335287
2.056695992179863
2.004887585532747
1.9550342130987293
1.9071358748778104
1.8641251221896384
1.826001955034213
1.7927663734115349
1.7634408602150538
1.7390029325513197
1.7204301075268815
1.7067448680351909
1.6959921798631477
1.6881720430107527
1.683284457478006
1.6813294232649072
1.6803519061583578
1.6793743890518085
1.678396871945259
1.6764418377321604
1.6735092864125125
1.6686217008797657
1.66177908113392
1.6559139784946235
1.6490713587487782
1.6383186705767352
1.6265884652981428
1.6148582600195502
1.6021505376344083
1.587487781036168
1.5718475073313782
1.555229716520039
1.5386119257087
1.521994134897361
1.5073313782991202
1.495601173020528
1.4868035190615836
1.47702834799609
1.466275659824047
1.456500488758553
1.4457478005865103
1.4349951124144673
1.4242424242424243
1.414467253176931
1.404692082111437
1.392961876832845
1.380254154447703
1.367546432062561
1.3577712609970674
1.3499511241446724
1.3401759530791788
1.3294232649071358
1.3186705767350928
1.3079178885630498
1.2971652003910068
1.2864125122189638
1.2756598240469208
1.2639296187683284
1.2531769305962854
1.2443792766373412
1.2404692082111437
1.2434017595307918
1.2551319648093842
1.281524926686217
1.327468230694037
1.3958944281524928
1.4848484848484849
1.5923753665689149
1.7126099706744868
1.839687194525904
1.9696969696969695
2.0957966764418376
2.2130987292277613
2.3059628543499517
2.3822091886608017
2.458455522971652
2.527859237536657
2.587487781036168
2.636363636363636
2.673509286412512
2.7008797653958942
2.717497556207233
2.724340175953079
2.720430107526881
2.7067448680351904
2.686217008797654
2.658846529814272
2.622678396871945
2.578690127077224
2.527859237536657
2.4701857282502444
2.407624633431085
2.3411534701857284
2.272727272727273
2.2052785923753664
2.1388074291300097
2.0762463343108504
2.018572825024438
1.970674486803519
1.9296187683284456
1.8885630498533723
1.8494623655913975
1.8142717497556209
1.7820136852394917
1.75366568914956
1.7272727272727273
1.704789833822092
1.6842619745845553
1.664711632453568
1.6471163245356797
1.6334310850439884
1.6217008797653958
1.608993157380254
1.595307917888563
1.56891495601173
1.5376344086021505
1.5161290322580645
1.498533724340176
1.482893450635386
1.4672531769305963
1.452590420332356
1.4389051808406648
1.4281524926686218
1.418377321603128
1.4056695992179864
1.3919843597262953
1.3782991202346042
1.3655913978494625
1.3528836754643203
1.3401759530791788
1.3284457478005864
1.3176930596285434
1.305962854349951
1.295210166177908
1.284457478005865
1.2776148582600195
1.2727272727272727
1.2658846529814272
1.2590420332355816
1.2512218963831867
1.2434017595307918
1.2355816226783969
1.227761485826002
1.219941348973607
1.2130987292277615
1.2072336265884651
1.2023460410557183
1.2003910068426198
1.1994134897360704
1.195503421309873
1.1906158357771262
1.187683284457478
1.1867057673509287
1.1915933528836755
1.2072336265884651
1.2394916911045943
1.2903225806451613
1.3616813294232648
1.4516129032258065
1.5571847507331378
1.656891495601173
1.7556207233626588
1.869012707722385
1.9853372434017595
2.096774193548387
2.201368523949169
2.2952101661779083
2.376344086021505
2.444770283479961
2.5024437927663734
2.548387096774193
2.582600195503421
2.603128054740958
2.6129032258064515
2.619745845552297
2.619745845552297
2.6129032258064515
2.598240469208211
2.575757575757576
2.5464320625610948
2.509286412512219
2.4652981427174976
2.4164222873900294
2.363636363636364
2.3098729227761488
2.260019550342131
2.2140762463343107
2.167155425219941
2.121212121212121
2.0772238514174
2.037145650048876
2.0019550342130987
1.970674486803519
1.9442815249266865
1.9227761485826005
1.906158357771261
1.89247311827957
1.881720430107527
1.873900293255132
1.868035190615836
1.8631476050830889
1.8602150537634408
1.8592375366568916
1.858260019550342
1.858260019550342
1.858260019550342
1.857282502443793
1.8543499511241448
1.8504398826979471
1.8455522971652003
1.839687194525904
1.8328445747800584
1.8240469208211143
1.8142717497556209
1.7986314760508308
1.7878787878787878
1.775171065493646
1.7556207233626588
1.7409579667644184
1.726295210166178
1.710654936461388
1.6989247311827955
1.689149560117302
1.678396871945259
1.6666666666666667
1.6549364613880744
1.643206256109482
1.6314760508308896
1.619745845552297
1.6011730205278591
1.5884652981427174
1.5757575757575757
1.555229716520039
1.543499511241447
1.5317693059628543
1.5190615835777126
1.499511241446725
1.4858260019550342
1.4711632453567938
1.4418377321603129
1.4281524926686218
1.41544477028348
1.404692082111437
1.4086021505376345
1.423264907135875
1.4535679374389052
1.5034213098729228
1.5718475073313782
1.656891495601173
1.7556207233626588
1.86119257086999
1.9687194525904204
2.0733137829912023
2.1710654936461387
2.259042033235582
2.335288367546432
2.3919843597262958
2.4330400782013686
2.4701857282502444
2.4995112414467253
2.520039100684262
2.530791788856305
2.533724340175953
2.5288367546432062
2.5141739980449658
2.490713587487781
2.4594330400782014
2.420332355816227
2.378299120234604
2.334310850439883
2.2844574780058653
2.2297165200391005
2.1730205278592374
2.115347018572825
2.059628543499511
2.006842619745845
1.9560117302052784
1.90811339198436
1.865102639296188
