ppg
0.9433040078201368
0.927663734115347
0.9120234604105572
0.8963831867057673
0.8807429130009775
0.8699902248289345
0.8621700879765396
0.8504398826979472
0.8377321603128055
0.8260019550342131
0.8172043010752689
0.8103616813294232
0.8015640273704789
0.7947214076246334
0.7888563049853372
0.782991202346041
0.7800586510263929
0.782991202346041
0.7908113391984359
0.8015640273704789
0.8162267839687195
0.8367546432062561
0.8651026392961877
0.906158357771261
0.959921798631476
1.0254154447702837
1.1016617790811338
1.1867057673509287
1.2766373411534702
1.367546432062561
1.447702834799609
1.52297165200391
1.6041055718475072
1.686217008797654
1.7673509286412512
1.8435972629521016
1.9130009775171064
1.9726295210166176
2.022482893450636
2.06158357771261
2.090909090909091
2.10752688172043
2.113391984359726
2.1114369501466275
2.102639296187683
2.0869990224828934
2.0664711632453567
2.040078201368524
2.0117302052785924
1.9824046920821117
1.949169110459433
1.913978494623656
1.8758553274682308
1.835777126099707
1.7947214076246334
1.7575757575757576
1.7233626588465298
1.686217008797654
1.651026392961877
1.6177908113391983
1.5865102639296187
1.5562072336265884
1.525904203323558
1.499511241446725
1.4750733137829912
1.452590420332356
1.43108504398827
1.4134897360703813
1.3988269794721409
1.3851417399804498
1.3734115347018572
1.423264907135875
1.504398826979472
1.5395894428152492
1.552297165200391
1.5562072336265884
1.552297165200391
1.543499511241447
1.533724340175953
1.521994134897361
1.5131964809384164
1.5073313782991202
1.499511241446725
1.4897360703812317
1.478983382209189
1.4672531769305963
1.4545454545454546
1.4428152492668622
1.4301075268817205
1.4164222873900294
1.4056695992179864
1.3958944281524928
1.3900293255131966
1.3851417399804498
1.3773216031280548
1.3685239491691104
1.359726295210166
1.3509286412512218
1.3440860215053765
1.3391984359726294
1.3343108504398826
1.3284457478005864
1.3225806451612905
1.3157380254154447
1.3088954056695992
1.3049853372434017
1.3020527859237536
1.2942326490713587
1.2854349951124144
1.2756598240469208
1.2649071358748778
1.2541544477028348
1.2434017595307918
1.2355816226783969
1.2336265884652982
1.241446725317693
1.2590420332355816
1.284457478005865
1.3186705767350928
1.3655913978494625
1.423264907135875
1.4916911045943304
1.5698924731182795
1.6559139784946235
1.7487781036168133
1.847507331378299
1.949169110459433
2.0518084066471163
2.1544477028347995
2.2551319648093844
2.340175953079179
2.412512218963832
2.4887585532746823
2.565982404692082
2.6402737047898337
2.7067448680351904
2.763440860215054
2.8103616813294234
2.8475073313782997
2.875855327468231
2.8963831867057674
2.906158357771261
2.905180840664712
2.8993157380254155
2.8905180840664717
2.87683284457478
2.8582600195503423
2.834799608993157
2.807429130009776
2.7781036168132944
2.7438905180840663
2.704789833822092
2.662756598240469
2.6207233626588464
2.5835777126099706
2.547409579667644
2.5083088954056696
2.4711632453567938
2.434017595307918
2.396871945259042
2.3597262952101663
2.324535679374389
2.29227761485826
2.26197458455523
2.233626588465298
2.2082111436950145
2.1867057673509285
2.16911045943304
2.15347018572825
2.1388074291300097
2.1251221896383186
2.1094819159335287
2.0948191593352883
2.0821114369501466
2.070381231671554
2.058651026392962
2.047898338220919
2.035190615835777
2.021505376344086
2.0097751710654936
1.9980449657869013
1.9843597262952104
1.9657869012707725
1.948191593352884
1.9315738025415443
1.913978494623656
1.900293255131965
1.8875855327468232
1.8729227761485825
1.8602150537634408
1.8484848484848484
1.833822091886608
1.8211143695014664
1.8093841642228736
1.7947214076246334
1.7810361681329423
1.7683284457478006
1.758553274682307
1.750733137829912
1.7438905180840665
1.7390029325513197
1.7350928641251222
1.7302052785923754
1.726295210166178
1.726295210166178
1.726295210166178
1.7243401759530792
1.7204301075268815
1.7135874877810362
1.704789833822092
1.694037145650049
1.683284457478006
1.672531769305963
1.664711632453568
1.66177908113392
1.6656891495601174
1.6793743890518085
1.6979472140762464
1.7243401759530792
1.7624633431085044
1.8113391984359728
1.8729227761485825
1.948191593352884
2.0332355816226784
2.1270772238514173
2.2277614858260018
2.332355816226784
2.4379276637341154
2.5434995112414467
2.631476050830889
2.7126099706744866
2.803519061583578
2.8944281524926687
2.9824046920821115
3.0664711632453567
3.145650048875855
3.2170087976539588
3.27761485826002
3.3284457478005867
3.3704789833822093
3.4027370478983383
3.4252199413489737
3.4349951124144678
3.4379276637341154
3.4408602150537635
3.441837732160313
3.4408602150537635
3.4359726295210167
3.4252199413489737
3.409579667644184
3.388074291300098
3.357771260997068
3.318670576735093
3.274682306940372
3.2277614858260018
3.177908113391984
3.1251221896383186
3.071358748778104
3.0175953079178885
2.963831867057673
2.9120234604105573
2.8611925708699903
2.812316715542522
2.766373411534702
2.721407624633431
2.67644183773216
2.633431085043988
2.595307917888563
2.5610948191593352
2.527859237536657
2.49266862170088
2.4574780058651027
2.426197458455523
2.396871945259042
2.366568914956012
2.3382209188660803
2.3088954056695994
2.278592375366569
2.2502443792766376
2.2248289345063537
2.201368523949169
2.1739980449657867
2.145650048875855
2.117302052785924
2.090909090909091
2.0664711632453567
2.043010752688172
2.0175953079178885
1.9902248289345064
1.9608993157380252
1.9315738025415443
1.903225806451613
1.878787878787879
1.857282502443793
1.8328445747800584
1.8064516129032255
1.780058651026393
1.7546432062561097
1.7302052785923754
1.7096774193548387
1.694037145650049
1.6813294232649072
1.6686217008797657
1.656891495601173
1.6490713587487782
1.6422287390029326
1.632453567937439
1.6207233626588464
1.607038123167155
1.590420332355816
1.573802541544477
1.560117302052786
1.547409579667644
1.5356793743890518
1.525904203323558
1.520039100684262
1.5180840664711632
1.52297165200391
1.5356793743890518
1.5591397849462365
1.595307917888563
1.6471163245356797
1.7116324535679377
1.7859237536656891
1.8670576735092863
1.9530791788856303
2.043010752688172
2.050830889540567
2.01564027370479
2.0303030303030303
2.0684261974584555
2.1270772238514173
2.1925708699902247
2.260019550342131
2.324535679374389
2.3812316715542523
2.43108504398827
2.4731182795698925
2.506353861192571
2.533724340175953
2.5542521994134897
2.567937438905181
2.572825024437928
2.5698924731182795
2.5650048875855327
2.555229716520039
2.541544477028348
2.5268817204301075
2.5102639296187683
2.489736070381232
2.464320625610948
2.4330400782013686
2.3978494623655915
2.358748778103617
2.3196480938416424
2.280547409579668
2.236559139784946
2.188660801564027
2.1388074291300097
2.088954056695992
2.042033235581622
1.9980449657869013
1.9560117302052784
1.9178885630498532
1.8807429130009776
1.8465298142717497
1.818181818181818
1.7956989247311828
1.7741935483870968
1.75366568914956
1.7331378299120237
1.7135874877810362
1.6930596285434996
1.6744868035190617
1.656891495601173
1.6383186705767352
1.619745845552297
1.603128054740958
1.587487781036168
1.5747800586510263
1.564027370478983
1.5493646138807429
1.530791788856305
1.509286412512219
1.487781036168133
1.4672531769305963
1.4467253176930597
1.4271749755620724
1.4066471163245358
1.3870967741935485
1.367546432062561
1.3509286412512218
1.3362658846529814
1.3206256109481915
1.3049853372434017
1.2903225806451613
1.2756598240469208
1.2609970674486803
1.2453567937438903
1.2316715542521994
1.2209188660801564
1.2130987292277615
1.2072336265884651
1.2013685239491692
1.198435972629521
1.1974584555229717
1.1915933528836755
1.1808406647116323
1.1681329423264908
1.1564027370478984
1.1456500488758554
1.1348973607038124
1.1251221896383188
1.1143695014662756
1.1065493646138806
1.1026392961876832
1.1036168132942326
1.10752688172043
1.1163245356793745
1.1300097751710656
1.1505376344086022
1.181818181818182
1.2258064516129032
1.281524926686217
1.346041055718475
1.4193548387096775
1.499511241446725
1.585532746823069
1.675464320625611
1.7546432062561097
1.827956989247312
1.906158357771261
1.9843597262952104
2.058651026392962
2.1280547409579667
2.190615835777126
2.244379276637341
2.290322580645161
2.329423264907136
2.360703812316716
2.3851417399804498
2.398826979472141
2.403714565004888
2.406647116324536
2.403714565004888
2.3958944281524928
2.3841642228739004
2.366568914956012
2.3440860215053765
2.318670576735093
2.2883675464320627
2.254154447702835
2.219941348973607
2.182795698924731
2.145650048875855
2.110459433040078
2.070381231671554
2.027370478983382
1.9853372434017595
1.943304007820137
1.903225806451613
1.866080156402737
1.8299120234604105
1.7956989247311828
1.7644183773216031
1.7341153470185728
1.70772238514174
1.683284457478006
1.6559139784946235
1.6285434995112416
1.6041055718475072
1.5806451612903225
1.5581622678396871
1.5356793743890518
1.512218963831867
1.4887585532746823
1.4672531769305963
1.4467253176930597
1.4252199413489737
1.4066471163245358
1.3900293255131966
1.3695014662756595
1.3470185728250244
1.3255131964809383
1.3079178885630498
1.2913000977517106
1.2756598240469208
1.2580645161290325
1.2365591397849462
1.2140762463343109
1.1896383186705768
1.1700879765395895
1.1544477028347997
1.1368523949169111
1.1192570869990224
1.1026392961876832
1.086021505376344
1.0684261974584557
1.0488758553274682
1.029325513196481
1.010752688172043
0.997067448680352
0.9853372434017597
0.9716520039100685
0.9618768328445748
0.9550342130987292
0.9442815249266864
0.9315738025415444
0.9178885630498532
0.9032258064516128
0.8885630498533724
0.873900293255132
0.8592375366568915
0.8455522971652004
0.833822091886608
0.823069403714565
0.8172043010752689
0.8172043010752689
0.8211143695014663
0.8318670576735093
0.8494623655913979
0.8768328445747801
0.9159335288367546
0.9667644183773216
1.0273704789833822
1.0948191593352885
1.1681329423264908
1.2453567937438903
1.3255131964809383
1.3998044965786902
1.469208211143695
1.544477028347996
1.6207233626588464
1.6959921798631477
1.7673509286412512
1.8318670576735088
1.8866080156402736
1.932551319648094
1.9687194525904204
1.997067448680352
2.018572825024438
2.032258064516129
2.0391006842619745
2.0410557184750733
2.038123167155425
2.0303030303030303
2.016617790811339
1.9960899315738023
1.9687194525904204
1.9364613880742916
1.900293255131965
1.858260019550342
1.812316715542522
1.7663734115347018
1.726295210166178
1.6901270772238517
1.6529814271749756
1.6177908113391983
1.5826001955034212
1.547409579667644
1.5131964809384164
1.4809384164222874
1.452590420332356
1.4271749755620724
1.404692082111437
1.3841642228739004
1.3695014662756595
1.356793743890518
1.3450635386119256
1.332355816226784
1.3186705767350928
1.3040078201368523
1.289345063538612
1.2746823069403714
1.260019550342131
1.2453567937438903
1.23069403714565
1.2160312805474096
1.1994134897360704
1.1867057673509287
1.1749755620723363
1.1622678396871946
1.1495601173020529
1.1935483870967742
1.2639296187683284
1.2913000977517106
1.2961876832844574
1.2903225806451613
1.2805474095796676
1.2668621700879763
1.252199413489736
1.2424242424242424
1.2355816226783969
1.2267839687194526
1.2179863147605083
1.2111436950146628
1.2052785923753666
1.1994134897360704
1.1935483870967742
1.187683284457478
1.181818181818182
1.1730205278592376
1.163245356793744
1.1583577712609971
1.1564027370478984
1.1495601173020529
1.1407624633431086
1.130987292277615
1.1202346041055715
1.1124144672531768
1.1055718475073313
1.0987292277614855
1.0948191593352885
1.0948191593352885
1.1016617790811338
1.1163245356793745
1.1397849462365592
1.1691104594330402
1.2072336265884651
1.2590420332355816
1.3225806451612905
1.3958944281524928
1.478005865102639
1.5708699902248289
1.6715542521994136
1.7761485826001957
1.884652981427175
1.9931573802541545
2.086021505376344
2.1700879765395893
2.260019550342131
2.347996089931574
2.432062561094819
2.509286412512219
2.576735092864125
2.635386119257087
2.686217008797654
2.7282502443792764
2.760508308895406
2.782991202346041
2.798631476050831
2.8054740957966766
2.8044965786901277
2.798631476050831
2.7869012707722387
2.771260997067449
2.750733137829912
2.7253176930596283
2.6959921798631474
2.66177908113392
2.6236559139784945
2.5855327468230693
2.5464320625610948
2.5102639296187683
2.4760508308895406
2.4408602150537635
2.406647116324536
2.372434017595308
2.3382209188660803
2.303030303030303
2.2688172043010755
2.2375366568914954
2.209188660801564
2.185728250244379
2.1652003910068425
2.146627565982405
2.1309872922776147
2.1163245356793743
2.099706744868035
2.085043988269794
2.072336265884653
2.060606060606061
2.046920821114369
2.032258064516129
2.016617790811339
1.9990224828934504
1.981427174975562
1.964809384164223
1.948191593352884
1.9315738025415443
1.9130009775171064
1.895405669599218
1.881720430107527
1.870967741935484
1.8592375366568916
1.8484848484848484
1.836754643206256
1.8240469208211143
1.8093841642228736
1.793743890518084
1.7781036168132942
1.7653958944281525
1.7565982404692082
1.7468230694037146
1.7360703812316716
1.7253176930596286
1.7145650048875856
1.7028347996089932
1.6930596285434996
1.6852394916911049
1.6793743890518085
1.6735092864125125
1.6656891495601174
1.6598240469208212
1.653958944281525
1.6451612903225807
1.635386119257087
1.624633431085044
1.6138807429130009
1.6011730205278591
1.5865102639296187
1.5708699902248289
1.5542521994134897
1.5376344086021505
1.5239491691104594
1.5141739980449658
1.5112414467253177
1.5151515151515151
1.525904203323558
1.5464320625610948
1.5786901270772238
1.624633431085044
1.6823069403714566
1.7517106549364614
1.83088954056696
1.916911045943304
2.0087976539589443
2.102639296187683
2.182795698924731
2.2521994134897363
2.324535679374389
2.396871945259042
2.469208211143695
2.5386119257087
2.603128054740958
2.662756598240469
2.717497556207233
2.766373411534702
2.8084066471163247
2.844574780058651
2.875855327468231
2.895405669599218
2.90811339198436
2.921798631476051
2.9315738025415445
2.936461388074292
2.9374389051808407
2.9335288367546437
2.9237536656891496
2.90811339198436
2.8856304985337244
2.8563049853372435
2.822091886608016
2.787878787878788
2.755620723362659
2.719452590420332
2.679374389051808
2.6392961876832843
2.603128054740958
2.5669599217986314
2.5317693059628543
2.4975562072336266
2.462365591397849
2.4281524926686218
2.3929618768328447
2.356793743890518
2.324535679374389
2.2952101661779083
2.264907135874878
2.2355816226783967
2.210166177908113
2.188660801564027
2.1700879765395893
2.1524926686217007
2.133919843597263
2.113391984359726
2.09188660801564
2.069403714565005
2.0498533724340176
2.032258064516129
2.0117302052785924
1.991202346041056
1.9696969696969695
1.9472140762463344
1.9266862170087975
1.90811339198436
1.8905180840664717
1.87683284457478
1.8641251221896384
1.8494623655913975
1.833822091886608
1.8201368523949168
1.804496578690127
1.7839687194525904
1.7634408602150538
1.7448680351906158
1.729227761485826
1.7165200391006843
1.7028347996089932
1.6871945259042034
1.6715542521994136
1.6549364613880744
1.6383186705767352
1.624633431085044
1.611925708699902
1.5972629521016617
1.581622678396872
1.5669599217986314
1.555229716520039
1.544477028347996
1.533724340175953
1.521994134897361
1.5112414467253177
1.5024437927663734
1.495601173020528
1.490713587487781
1.490713587487781
1.4975562072336266
1.5141739980449658
1.541544477028348
1.581622678396872
1.6373411534701858
1.7067448680351909
1.7859237536656891
1.873900293255132
1.970674486803519
2.072336265884653
2.1739980449657867
2.26197458455523
2.340175953079179
2.4271749755620724
2.515151515151515
2.5992179863147604
2.679374389051808
2.752688172043011
2.8181818181818183
2.87683284457478
2.9266862170087977
2.9696969696969697
2.9980449657869013
3.0087976539589443
3.013685239491691
3.0195503421309877
3.022482893450636
3.0205278592375366
3.013685239491691
3.004887585532747
2.992179863147605
2.972629521016618
2.948191593352884
2.919843597262952
2.8856304985337244
2.844574780058651
2.7996089931573804
2.750733137829912
2.697947214076246
2.6422287390029324
2.587487781036168
2.535679374389052
2.484848484848485
2.436950146627566
2.3929618768328447
2.3519061583577714
2.313782991202346
2.27761485826002
2.2453567937438903
2.2160312805474094
2.187683284457478
2.158357771260997
2.1300097751710654
2.101661779081134
2.072336265884653
2.0449657869012707
2.0195503421309877
1.9960899315738023
1.9726295210166176
1.946236559139785
1.9188660801564028
1.895405669599218
1.8729227761485825
1.8523949169110456
1.83088954056696
1.8064516129032255
1.782991202346041
1.758553274682307
1.732160312805474
1.7038123167155426
1.6774193548387095
1.6529814271749756
1.6285434995112416
1.608993157380254
1.5923753665689149
1.5728250244379276
1.5513196480938416
1.5288367546432062
1.5073313782991202
1.4868035190615836
1.466275659824047
1.447702834799609
1.4301075268817205
1.412512218963832
1.3949169110459434
1.380254154447703
1.3734115347018572
1.3685239491691104
1.359726295210166
1.3499511241446724
1.33822091886608
1.324535679374389
1.3118279569892473
1.300097751710655
1.2883675464320623
1.2766373411534702
1.2649071358748778
1.2551319648093842
1.2512218963831867
1.252199413489736
1.2541544477028348
1.2639296187683284
1.284457478005865
1.3176930596285434
1.3665689149560116
1.4291300097751711
1.5073313782991202
1.595307917888563
1.6901270772238517
1.793743890518084
1.9012707722385145
1.9951124144672527
2.080156402737048
2.1710654936461387
2.2629521016617797
2.3499511241446727
2.4330400782013686
2.5102639296187683
2.5806451612903225
2.641251221896383
2.69208211143695
2.732160312805474
2.7614858260019552
2.779081133919844
2.789833822091887
2.7996089931573804
2.8054740957966766
2.807429130009776
2.8025415444770285
2.791788856304985
2.774193548387097
2.7497556207233624
2.718475073313783
2.681329423264907
2.638318670576735
2.591397849462365
2.547409579667644
2.505376344086021
2.4604105571847508
2.4144672531769307
2.3685239491691106
2.3225806451612905
2.2766373411534704
2.231671554252199
2.189638318670577
2.1495601173020527
2.112414467253177
2.0762463343108504
2.046920821114369
2.0234604105571847
2.0009775171065494
1.9775171065493649
1.951124144672532
1.9227761485826005
1.8944281524926687
1.866080156402737
1.8387096774193548
1.812316715542522
1.7849462365591398
1.7565982404692082
1.7282502443792769
1.7038123167155426
1.683284457478006
1.6608015640273706
1.6383186705767352
1.6158357771260996
1.590420332355816
1.560117302052786
1.5288367546432062
1.4975562072336266
1.466275659824047
1.435972629521017
1.4066471163245358
1.383186705767351
1.364613880742913
1.3421309872922775
1.3176930596285434
1.2942326490713587
1.270772238514174
1.2482893450635386
1.2238514173998043
1.198435972629521
1.173998044965787
1.152492668621701
1.1329423264907137
1.1143695014662756
1.1016617790811338
1.0899315738025417
1.072336265884653
1.0547409579667644
1.0381231671554252
1.0175953079178883
0.9960899315738024
0.9765395894428152
0.956989247311828
0.93841642228739
0.9237536656891496
0.9100684261974584
0.9032258064516128
0.9012707722385142
0.9002932551319648
0.906158357771261
0.919843597262952
0.9442815249266864
0.981427174975562
1.032258064516129
1.096774193548387
1.1720430107526882
1.2570869990224829
1.348973607038123
1.444770283479961
1.5327468230694037
1.6158357771260996
1.704789833822092
1.7927663734115349
1.87683284457478
1.956989247311828
2.032258064516129
2.099706744868035
2.1593352883675463
2.2082111436950145
2.2453567937438903
2.272727272727273
2.2873900293255134
2.2932551319648096
2.2952101661779083
2.291300097751711
2.281524926686217
2.26197458455523
2.2346041055718477
2.2023460410557183
2.164222873900293
2.121212121212121
2.075268817204301
2.029325513196481
1.989247311827957
1.9521016617790807
1.9090909090909087
1.8641251221896384
1.822091886608016
1.7810361681329423
1.739980449657869
1.7008797653958945
1.6637341153470186
1.6314760508308896
1.6041055718475072
1.576735092864125
1.5503421309872922
1.5298142717497556
1.512218963831867
1.4936461388074291
1.4760508308895406
1.458455522971652
1.4408602150537635
1.4252199413489737
1.4115347018572826
1.3988269794721409
1.3870967741935485
1.3734115347018572
1.3577712609970674
1.3479960899315735
1.3401759530791788
1.327468230694037
1.313782991202346
1.3010752688172045
1.289345063538612
1.2746823069403714
1.2551319648093842
1.2346041055718475
1.2121212121212122
1.1896383186705768
1.1671554252199414
1.1456500488758554
1.1319648093841643
1.1251221896383188
1.1163245356793745
1.1026392961876832
1.0909090909090908
1.1036168132942326
1.126099706744868
1.1319648093841643
1.1290322580645162
1.1202346041055715
1.10752688172043
1.093841642228739
1.0869990224828934
1.0850439882697946
1.0811339198435972
1.0772238514173995
1.072336265884653
1.067448680351906
1.0635386119257086
1.06158357771261
1.0586510263929618
1.0576735092864125
1.0596285434995112
1.0635386119257086
1.0703812316715542
1.0850439882697946
1.10752688172043
1.1378299120234605
1.1759530791788857
1.2218963831867058
1.278592375366569
1.346041055718475
1.4222873900293256
1.5083088954056696
1.6011730205278591
1.6979472140762464
1.796676441837732
1.881720430107527
1.959921798631476
2.0449657869012707
2.1300097751710654
2.2111436950146626
2.2854349951124147
2.350928641251222
2.407624633431085
2.4574780058651027
2.498533724340176
2.5288367546432062
2.549364613880743
2.5620723362658846
2.5640273704789838
2.560117302052786
2.555229716520039
2.547409579667644
2.533724340175953
2.515151515151515
2.49266862170088
2.464320625610948
2.4330400782013686
2.40078201368524
2.367546432062561
2.333333333333333
2.303030303030303
2.2737047898338223
2.244379276637341
2.2170087976539588
2.189638318670577
2.163245356793744
2.1407624633431084
2.121212121212121
2.103616813294233
2.0869990224828934
2.071358748778104
2.06158357771261
2.056695992179863
2.053763440860215
2.0527859237536656
2.0518084066471163
2.048875855327468
2.043010752688172
2.0361681329423265
2.027370478983382
2.016617790811339
2.002932551319648
1.988269794721408
1.9716520039100685
1.9550342130987293
1.9413489736070384
1.9286412512218964
1.916911045943304
1.906158357771261
1.8963831867057677
1.889540566959922
1.8807429130009776
1.869012707722385
1.858260019550342
1.8455522971652003
1.8318670576735088
1.8162267839687196
1.8005865102639296
1.7878787878787878
1.7771260997067448
1.7663734115347018
1.75366568914956
1.7419354838709675
1.7341153470185728
1.7272727272727273
1.7223851417399805
1.718475073313783
1.715542521994135
1.710654936461388
1.7057673509286413
1.7038123167155426
1.7008797653958945
1.6989247311827955
1.6959921798631477
1.6930596285434996
1.6901270772238517
1.686217008797654
1.6803519061583578
1.6715542521994136
1.664711632453568
1.66177908113392
1.66177908113392
1.6666666666666667
1.6774193548387095
1.6950146627565983
1.7253176930596286
1.7702834799608993
1.828934506353861
1.903225806451613
1.9931573802541545
2.09188660801564
2.198435972629521
2.3098729227761488
2.420332355816227
2.529814271749756
2.6207233626588464
2.701857282502444
2.791788856304985
2.884652981427175
2.973607038123167
3.0557184750733137
3.1309872922776147
3.198435972629521
3.257086999022483
3.3098729227761488
3.35386119257087
3.389051808406647
3.4173998044965788
3.432062561094819
3.4359726295210167
3.4408602150537635
3.443792766373412
3.439882697947214
3.429130009775171
3.4144672531769307
3.396871945259042
3.3743890518084068
3.347018572825025
