ppg
1.3900293255131966
1.3655913978494625
1.3440860215053765
1.324535679374389
1.3069403714565004
1.2903225806451613
1.2776148582600195
1.2668621700879763
1.2551319648093842
1.2434017595307918
1.2326490713587488
1.2218963831867058
1.2121212121212122
1.2013685239491692
1.1915933528836755
1.181818181818182
1.1710654936461389
1.160312805474096
1.1495601173020529
1.142717497556207
1.1368523949169111
1.1300097751710656
1.1231671554252198
1.1163245356793745
1.1085043988269794
1.1006842619745845
1.0918866080156402
1.083088954056696
1.0742913000977516
1.067448680351906
1.06158357771261
1.0596285434995112
1.0596285434995112
1.0576735092864125
1.0557184750733135
1.0547409579667644
1.0547409579667644
1.0547409579667644
1.053763440860215
1.0518084066471165
1.0498533724340176
1.0478983382209188
1.0469208211143697
1.04594330400782
1.0478983382209188
1.0518084066471165
1.0547409579667644
1.0576735092864125
1.0586510263929618
1.0596285434995112
1.0596285434995112
1.0596285434995112
1.0596285434995112
1.0606060606060606
1.06158357771261
1.0625610948191593
1.0664711632453567
1.0713587487781036
1.075268817204301
1.0791788856304985
1.0879765395894427
1.104594330400782
1.1319648093841643
1.1779081133919844
1.2453567937438903
1.33822091886608
1.456500488758553
1.5972629521016617
1.7565982404692082
1.902248289345064
2.0391006842619745
2.189638318670577
2.337243401759531
2.4731182795698925
2.591397849462365
2.6911045943304006
2.7702834799608995
2.831867057673509
2.877810361681329
2.9120234604105573
2.93841642228739
2.951124144672532
2.9550342130987293
2.9579667644183774
2.9579667644183774
2.951124144672532
2.9374389051808407
2.913000977517106
2.877810361681329
2.831867057673509
2.773216031280548
2.7038123167155423
2.624633431085044
2.539589442815249
2.4594330400782014
2.3841642228739004
2.3059628543499517
2.231671554252199
2.1622678396871944
2.101661779081134
2.048875855327468
2.003910068426197
1.963831867057673
1.9286412512218964
1.895405669599218
1.8631476050830889
1.8347996089931573
1.8074291300097751
1.7771260997067448
1.7448680351906158
1.7096774193548387
1.6735092864125125
1.6363636363636365
1.5992179863147604
1.564027370478983
1.5298142717497556
1.4965786901270772
1.466275659824047
1.4379276637341154
1.414467253176931
1.3949169110459434
1.3734115347018572
1.3528836754643203
1.3333333333333333
1.3157380254154447
1.2991202346041055
1.2834799608993157
1.2688172043010753
1.2551319648093842
1.241446725317693
1.2287390029325511
1.219941348973607
1.2121212121212122
1.2023460410557183
1.1915933528836755
1.1808406647116323
1.1700879765395895
1.160312805474096
1.1515151515151516
1.141739980449658
1.1329423264907137
1.1231671554252198
1.1143695014662756
1.1055718475073313
1.099706744868035
1.0957966764418376
1.088954056695992
1.0811339198435972
1.072336265884653
1.064516129032258
1.056695992179863
1.0488758553274682
1.043010752688172
1.064516129032258
2.4252199413489737
2.3382209188660803
2.2561094819159337
2.1818181818181817
2.1163245356793743
2.0625610948191597
2.0175953079178885
1.9745845552297163
1.935483870967742
1.8983382209188664
1.8631476050830889
1.827956989247312
1.7917888563049853
1.75366568914956
1.7135874877810362
1.6715542521994136
1.6265884652981428
1.587487781036168
1.5513196480938416
1.5112414467253177
1.4701857282502444
1.4320625610948192
1.3958944281524928
1.3636363636363635
1.335288367546432
1.3118279569892473
1.29227761485826
1.2756598240469208
1.262952101661779
1.2551319648093842
1.2512218963831867
1.2473118279569892
1.2443792766373412
1.2424242424242424
1.241446725317693
1.2424242424242424
1.2443792766373412
1.2473118279569892
1.2502443792766371
1.2541544477028348
1.2590420332355816
1.262952101661779
1.267839687194526
1.2727272727272727
1.2756598240469208
1.2756598240469208
1.075268817204301
1.088954056695992
1.1036168132942326
1.118279569892473
1.1329423264907137
1.7761485826001957
1.7390029325513197
1.699902248289345
1.6598240469208212
1.619745845552297
1.5806451612903225
1.542521994134897
1.5063538611925709
1.4721407624633431
1.439882697947214
1.4134897360703813
1.3900293255131966
1.3655913978494625
1.3411534701857282
1.3176930596285434
1.2961876832844574
1.2756598240469208
1.2570869990224829
1.0791788856304985
0.9980449657869012
1.0009775171065494
2.886608015640274
2.9315738025415445
2.9657869012707723
2.992179863147605
3.0127077223851417
3.0283479960899315
3.0332355816226784
3.029325513196481
3.0234604105571847
3.010752688172043
2.989247311827957
2.956989247311828
2.9120234604105573
2.855327468230694
2.788856304985337
2.7126099706744866
2.6295210166177907
2.5425219941348973
2.462365591397849
2.3870967741935485
2.3088954056695994
2.2346041055718477
2.167155425219941
2.10752688172043
1.4701857282502444
1.469208211143695
1.4672531769305963
1.466275659824047
1.4643206256109482
1.346041055718475
1.1671554252199414
1.0742913000977516
1.024437927663734
0.9960899315738024
0.9775171065493646
0.9648093841642228
0.9560117302052786
0.9491691104594332
0.9423264907135877
0.935483870967742
0.9286412512218964
0.9208211143695014
0.913978494623656
0.9071358748778104
0.9012707722385142
0.8963831867057673
0.8914956011730205
0.8866080156402737
0.8836754643206256
0.8817204301075269
0.8787878787878788
0.8768328445747801
0.873900293255132
0.8719452590420332
0.8699902248289345
0.8680351906158358
0.8660801564027371
0.8651026392961877
0.8651026392961877
0.8651026392961877
0.8651026392961877
0.8651026392961877
0.8660801564027371
0.8660801564027371
0.8660801564027371
0.8660801564027371
0.8660801564027371
0.8670576735092864
0.8670576735092864
0.8670576735092864
0.8670576735092864
0.8670576735092864
0.8660801564027371
0.8651026392961877
0.8641251221896383
0.863147605083089
0.8621700879765396
0.8611925708699902
0.8602150537634409
0.8592375366568915
0.8572825024437928
0.855327468230694
0.8533724340175953
0.852394916911046
0.852394916911046
0.855327468230694
0.863147605083089
0.8768328445747801
0.9012707722385142
0.93841642228739
0.9902248289345064
1.056695992179863
1.1348973607038124
1.2218963831867058
1.3147605083088951
1.4066471163245358
1.4946236559139785
1.5757575757575757
1.6373411534701858
1.6842619745845553
1.7302052785923754
1.7712609970674489
1.8054740957966764
1.8347996089931573
1.858260019550342
1.8778103616813293
1.8934506353861196
1.905180840664712
1.913978494623656
1.9188660801564028
1.9188660801564028
1.9130009775171064
1.9012707722385145
1.8856304985337244
1.866080156402737
1.8416422287390029
1.812316715542522
1.7781036168132942
1.7390029325513197
1.696969696969697
1.6529814271749756
1.6080156402737047
1.564027370478983
1.5249266862170088
1.490713587487781
1.457478005865103
1.4271749755620724
1.3998044965786902
1.375366568914956
1.35386119257087
1.3333333333333333
1.313782991202346
1.295210166177908
1.2766373411534702
1.2580645161290325
1.2394916911045943
1.2218963831867058
1.2052785923753666
1.1867057673509287
1.1681329423264908
1.1485826001955035
1.1290322580645162
1.110459433040078
1.0918866080156402
1.0742913000977516
1.0576735092864125
1.0420332355816226
1.0273704789833822
1.0156402737047898
1.0058651026392962
0.9960899315738024
0.9863147605083088
0.9765395894428152
0.9667644183773216
0.956989247311828
0.9481915933528836
0.9393939393939394
0.9305962854349952
0.9227761485826002
0.9149560117302052
0.9071358748778104
0.9012707722385142
0.895405669599218
0.8885630498533724
0.8826979472140762
0.8758553274682307
0.8690127077223851
0.863147605083089
0.8572825024437928
0.8514173998044966
0.8465298142717498
0.8406647116324536
0.8357771260997068
0.8318670576735093
0.8279569892473119
0.8240469208211144
0.8191593352883676
0.8152492668621701
0.8113391984359726
0.8084066471163245
0.8054740957966764
0.8035190615835777
0.8015640273704789
0.7996089931573802
0.7966764418377321
0.7947214076246334
0.793743890518084
0.7927663734115347
0.7917888563049853
0.7898338220918866
0.7878787878787878
0.7859237536656891
0.7839687194525904
0.782991202346041
0.7820136852394917
0.7810361681329423
0.7810361681329423
0.7810361681329423
0.7810361681329423
0.7810361681329423
0.7810361681329423
0.7810361681329423
0.7810361681329423
0.7810361681329423
0.7810361681329423
0.7810361681329423
0.7820136852394917
0.7859237536656891
0.793743890518084
0.8074291300097751
0.8299120234604106
0.8572825024437928
0.8914956011730205
0.9393939393939394
1.0
1.0703812316715542
1.1466275659824048
1.224828934506354
1.3010752688172045
1.3714565004887584
1.4349951124144673
1.4887585532746823
1.5327468230694037
1.563049853372434
1.58455522971652
1.603128054740958
1.6187683284457477
1.6304985337243405
1.6392961876832846
1.6451612903225807
1.6480938416422288
1.6480938416422288
1.6441837732160314
1.635386119257087
1.6217008797653958
1.603128054740958
1.5806451612903225
1.5532746823069403
1.521016617790811
1.4848484848484849
1.4467253176930597
1.4066471163245358
1.3685239491691104
1.332355816226784
1.300097751710655
1.2717497556207231
1.2473118279569892
1.2267839687194526
1.2101661779081134
1.195503421309873
1.181818181818182
1.1671554252199414
1.152492668621701
1.1378299120234605
1.1221896383186705
1.1055718475073313
1.088954056695992
1.072336265884653
1.0547409579667644
1.0371456500488758
1.0224828934506354
1.0087976539589445
0.9951124144672532
0.981427174975562
0.967741935483871
0.95405669599218
0.9423264907135877
0.9305962854349952
0.9208211143695014
0.9120234604105572
0.9042033235581622
0.8963831867057673
0.8885630498533724
0.8826979472140762
0.8778103616813294
0.8729227761485826
0.8680351906158358
0.863147605083089
0.8572825024437928
0.8514173998044966
0.8465298142717498
0.8406647116324536
0.8357771260997068
0.83088954056696
0.8269794721407625
0.8856304985337243
0.9765395894428152
1.018572825024438
1.0371456500488758
1.043010752688172
1.0420332355816226
1.0381231671554252
1.032258064516129
1.0254154447702837
1.018572825024438
1.0117302052785924
1.0048875855327468
0.9990224828934506
0.9960899315738024
0.9960899315738024
0.9951124144672532
0.9941348973607038
0.9931573802541545
0.9921798631476052
0.9902248289345064
0.989247311827957
0.9882697947214076
0.9882697947214076
0.9882697947214076
0.9882697947214076
0.9902248289345064
0.9931573802541545
0.9941348973607038
0.9941348973607038
0.9941348973607038
0.9941348973607038
0.9931573802541545
0.9931573802541545
0.9921798631476052
0.9921798631476052
0.9921798631476052
0.9912023460410556
0.9912023460410556
0.9921798631476052
0.9951124144672532
0.9980449657869012
1.002932551319648
1.0146627565982405
1.0381231671554252
1.0772238514173995
1.1348973607038124
1.2130987292277615
1.3128054740957966
1.4320625610948192
1.5650048875855327
1.6852394916911049
1.7976539589442817
1.920821114369501
2.042033235581622
2.15347018572825
2.2502443792766376
2.3313782991202348
2.3958944281524928
2.44672531769306
2.484848484848485
2.5131964809384164
2.5347018572825024
2.549364613880743
2.5542521994134897
2.5513196480938416
2.5464320625610948
2.535679374389052
2.5180840664711632
2.49266862170088
2.458455522971652
2.4144672531769307
2.3626588465298144
2.303030303030303
2.2375366568914954
2.1681329423264906
2.103616813294233
2.0439882697947214
1.9824046920821117
1.924731182795699
1.8729227761485825
1.8269794721407624
1.7869012707722385
1.7526881720430108
1.7223851417399805
1.694037145650049
1.6656891495601174
1.6383186705767352
1.6109481915933528
1.5865102639296187
1.5620723362658846
1.5347018572825024
1.5073313782991202
1.478983382209189
1.4506353861192571
1.4213098729227762
1.392961876832845
1.3655913978494625
1.3401759530791788
1.3157380254154447
1.29227761485826
1.273704789833822
1.2580645161290325
1.241446725317693
1.2258064516129032
1.2111436950146628
1.1964809384164223
1.1827956989247312
1.1691104594330402
1.1573802541544478
1.144672531769306
1.1329423264907137
1.1221896383186705
1.1124144672531768
1.1055718475073313
1.099706744868035
1.0918866080156402
1.083088954056696
1.0742913000977516
1.0654936461388074
1.0576735092864125
1.0498533724340176
1.0420332355816226
1.0342130987292275
1.0263929618768328
1.0195503421309873
1.0146627565982405
1.0097751710654936
1.0039100684261977
0.9980449657869012
0.9921798631476052
0.9863147605083088
0.9804496578690128
0.975562072336266
0.9726295210166178
0.9706744868035192
0.9687194525904204
0.9667644183773216
0.9648093841642228
0.9648093841642228
0.9657869012707724
0.9648093841642228
0.9638318670576737
0.9608993157380256
0.9579667644183774
0.9550342130987292
0.9530791788856304
0.9511241446725318
0.9491691104594332
0.9481915933528836
0.9481915933528836
0.9501466275659824
0.9530791788856304
0.9550342130987292
0.9560117302052786
0.9560117302052786
0.9560117302052786
0.9550342130987292
0.9550342130987292
0.9550342130987292
0.9560117302052786
0.9589442815249268
0.967741935483871
0.9824046920821116
1.0068426197458455
1.04594330400782
1.1055718475073313
1.1867057673509287
1.289345063538612
1.4115347018572826
1.5464320625610948
1.6881720430107527
1.828934506353861
1.963831867057673
2.086021505376344
2.1915933528836757
2.2688172043010755
2.326490713587488
2.3792766373411536
2.423264907135875
2.458455522971652
2.484848484848485
2.504398826979472
2.5180840664711632
2.5268817204301075
2.529814271749756
2.525904203323558
2.5141739980449658
2.493646138807429
2.466275659824047
2.43108504398827
2.386119257086999
2.332355816226784
2.269794721407625
2.2023460410557183
2.131964809384164
2.0625610948191597
1.9951124144672527
1.932551319648094
1.87683284457478
1.8269794721407624
1.7859237536656891
1.7526881720430108
1.721407624633431
1.6920821114369502
1.6656891495601174
1.6392961876832846
1.6138807429130009
1.5884652981427174
1.5620723362658846
1.5347018572825024
1.5073313782991202
1.478983382209189
1.452590420332356
1.4281524926686218
1.4007820136852396
1.3734115347018572
1.3470185728250244
1.3206256109481915
1.295210166177908
1.2717497556207231
1.249266862170088
1.2297165200391007
1.2111436950146628
1.1935483870967742
1.1779081133919844
1.1652003910068427
1.1544477028347997
1.141739980449658
1.1300097751710656
1.1192570869990224
1.1094819159335287
1.099706744868035
1.0899315738025417
1.0801564027370478
1.0694037145650048
1.0596285434995112
1.0488758553274682
1.0410557184750733
1.0342130987292275
1.0263929618768328
1.0195503421309873
1.0117302052785924
1.0048875855327468
0.997067448680352
0.989247311827957
0.981427174975562
0.9745845552297164
0.9687194525904204
0.9628543499511242
0.956989247311828
0.95405669599218
0.9530791788856304
0.9511241446725318
0.9481915933528836
0.946236559139785
0.9442815249266864
0.9579667644183774
0.9794721407624634
0.9902248289345064
0.997067448680352
1.0009775171065494
1.002932551319648
1.0048875855327468
1.0068426197458455
1.007820136852395
1.007820136852395
1.007820136852395
1.0087976539589445
1.0097751710654936
1.010752688172043
1.0117302052785924
1.013685239491691
1.0146627565982405
1.0156402737047898
1.0166177908113392
1.0205278592375366
1.024437927663734
1.0273704789833822
1.029325513196481
1.0303030303030305
1.0342130987292275
1.0439882697947214
1.0654936461388074
1.1026392961876832
1.1622678396871946
1.249266862170088
1.364613880742913
1.482893450635386
1.6099706744868034
1.7663734115347018
1.9374389051808407
2.110459433040078
2.2766373411534704
2.4281524926686218
2.560117302052786
2.670576735092864
2.760508308895406
2.83088954056696
2.884652981427175
2.924731182795699
2.9472140762463344
2.9579667644183774
2.967741935483871
2.9745845552297165
2.9765395894428157
2.9716520039100685
2.9579667644183774
2.9335288367546437
2.897360703812317
2.849462365591398
2.788856304985337
2.717497556207233
2.644183773216031
2.56891495601173
2.484848484848485
2.398826979472141
2.315738025415445
2.2385141739980448
2.1710654936461387
2.112414467253177
2.0625610948191597
2.021505376344086
1.9843597262952104
1.9501466275659824
1.916911045943304
1.8856304985337244
1.8543499511241448
1.8172043010752688
1.7771260997067448
1.7331378299120237
1.686217008797654
1.6373411534701858
1.5884652981427174
1.541544477028348
1.4965786901270772
1.4535679374389052
1.4134897360703813
1.3822091886608017
1.3558162267839686
1.3294232649071358
1.3040078201368523
1.281524926686217
1.2619745845552297
1.2443792766373412
1.23069403714565
1.219941348973607
1.2121212121212122
1.2082111436950147
1.206256109481916
1.2072336265884651
1.2111436950146628
1.2160312805474096
1.219941348973607
1.224828934506354
1.2316715542521994
1.2394916911045943
1.2473118279569892
1.2541544477028348
1.260019550342131
1.2649071358748778
1.267839687194526
1.2668621700879763
1.2649071358748778
1.260019550342131
1.249266862170088
1.2346041055718475
1.2179863147605083
1.1974584555229717
1.1749755620723363
1.152492668621701
1.1300097751710656
1.1094819159335287
1.0899315738025417
1.072336265884653
1.0557184750733135
1.043010752688172
1.0342130987292275
1.024437927663734
1.0156402737047898
1.0087976539589445
1.0058651026392962
1.0068426197458455
1.0127077223851415
1.0224828934506354
1.035190615835777
1.0498533724340176
1.064516129032258
1.0791788856304985
1.0928641251221896
1.1065493646138806
1.1202346041055715
1.1329423264907137
1.144672531769306
1.155425219941349
1.1652003910068427
1.1749755620723363
1.1837732160312806
1.1915933528836755
1.2003910068426198
1.209188660801564
1.219941348973607
1.2365591397849462
1.2619745845552297
1.303030303030303
1.364613880742913
1.4506353861192571
1.5610948191593352
1.6950146627565983
1.847507331378299
2.0097751710654936
2.175953079178885
2.3362658846529816
2.4652981427174976
2.56891495601173
2.668621700879765
2.755620723362659
2.8260019550342133
2.8807429130009776
2.919843597262952
2.9472140762463344
2.964809384164223
2.975562072336266
2.979472140762464
2.9775171065493646
2.964809384164223
2.945259042033236
2.920821114369501
2.8885630498533725
2.84652981427175
2.7947214076246336
2.7341153470185726
2.664711632453568
2.5884652981427174
2.50733137829912
2.4242424242424243
2.3440860215053765
2.267839687194526
2.203323558162268
2.1485826001955037
2.096774193548387
2.0518084066471163
2.0117302052785924
1.9775171065493649
1.945259042033236
1.913978494623656
1.881720430107527
1.8465298142717497
1.8093841642228736
1.7712609970674489
1.7360703812316716
1.7008797653958945
1.66177908113392
1.6207233626588464
1.5796676441837731
1.5395894428152492
1.500488758553275
1.4633431085043989
1.4281524926686218
1.3949169110459434
1.3636363636363635
1.3333333333333333
1.3049853372434017
1.2825024437927663
1.2649071358748778
1.2473118279569892
1.2297165200391007
1.2111436950146628
1.1935483870967742
1.1759530791788857
1.160312805474096
1.1456500488758554
1.1319648093841643
1.1192570869990224
1.1085043988269794
1.1016617790811338
1.0987292277614855
1.093841642228739
1.0869990224828934
1.0801564027370478
1.0733137829912025
1.0664711632453567
1.0596285434995112
1.0527859237536656
1.04594330400782
1.0391006842619743
1.032258064516129
1.0254154447702837
1.0224828934506354
1.0205278592375366
1.0156402737047898
1.0097751710654936
1.0039100684261977
0.9990224828934506
0.9941348973607038
0.989247311827957
0.9843597262952102
0.9794721407624634
0.9745845552297164
0.9706744868035192
0.9687194525904204
0.9687194525904204
0.9657869012707724
0.9618768328445748
0.9589442815249268
0.956989247311828
0.9550342130987292
0.9530791788856304
0.9511241446725318
0.9481915933528836
0.9452590420332356
0.9442815249266864
0.9433040078201368
0.959921798631476
0.9853372434017597
0.9980449657869012
1.0058651026392962
1.0127077223851415
1.018572825024438
1.0263929618768328
1.0371456500488758
1.0547409579667644
1.0850439882697946
1.1319648093841643
1.2023460410557183
1.281524926686217
1.3763440860215057
1.5034213098729228
1.6559139784946235
1.8240469208211143
1.9990224828934504
2.1700879765395893
2.329423264907136
2.4711632453567938
2.592375366568915
2.69208211143695
2.771260997067449
2.834799608993157
2.874877810361681
2.9012707722385143
2.9257086999022484
2.9472140762463344
2.962854349951124
2.973607038123167
2.9775171065493646
2.9745845552297165
2.961876832844575
2.9393939393939394
2.90811339198436
2.865102639296188
2.8152492668621703
2.758553274682307
2.6911045943304006
2.6129032258064515
2.5288367546432062
2.4408602150537635
2.35386119257087
2.270772238514174
2.1955034213098727
2.1280547409579667
2.067448680351906
2.01564027370479
1.9696969696969695
1.9315738025415443
1.900293255131965
1.868035190615836
1.8347996089931573
1.801564027370479
1.7683284457478006
1.7350928641251222
1.7008797653958945
1.6656891495601174
1.6304985337243405
1.5943304007820136
1.5571847507331378
1.525904203323558
1.4975562072336266
1.4672531769305963
1.436950146627566
1.4076246334310851
1.3792766373411536
1.3528836754643203
1.3284457478005864
1.3049853372434017
1.2834799608993157
1.2649071358748778
1.2473118279569892
1.23069403714565
1.2179863147605083
1.2082111436950147
1.1964809384164223
1.18475073313783
1.1720430107526882
1.160312805474096
1.1485826001955035
1.1378299120234605
1.1270772238514175
1.1163245356793745
1.1055718475073313
1.0948191593352885
1.0869990224828934
1.0811339198435972
1.0733137829912025
1.0654936461388074
1.0576735092864125
1.050830889540567
1.0439882697947214
1.0371456500488758
1.0303030303030305
1.0234604105571847
1.0166177908113392
1.010752688172043
1.0048875855327468
1.0019550342130987
1.0009775171065494
0.9990224828934506
0.9951124144672532
0.9921798631476052
0.989247311827957
0.9863147605083088
0.9853372434017597
0.9853372434017597
0.9843597262952102
0.9833822091886608
0.9833822091886608
0.9843597262952102
0.9872922776148584
0.9882697947214076
0.989247311827957
0.989247311827957
0.989247311827957
0.989247311827957
0.989247311827957
0.9882697947214076
0.9872922776148584
0.9863147605083088
0.9872922776148584
0.989247311827957
0.9941348973607038
0.9990224828934506
1.0048875855327468
1.0156402737047898
1.035190615835777
1.067448680351906
1.118279569892473
1.1935483870967742
1.2961876832844574
1.4252199413489737
1.576735092864125
1.7448680351906158
1.8963831867057677
2.037145650048876
2.190615835777126
2.3391984359726297
2.474095796676442
2.590420332355816
2.6852394916911044
2.760508308895406
2.820136852394917
2.866080156402737
2.9012707722385143
2.9286412512218964
2.9423264907135875
2.946236559139785
2.9501466275659824
2.9501466275659824
2.943304007820137
2.927663734115347
2.902248289345064
2.866080156402737
2.819159335288368
2.760508308895406
2.69208211143695
2.613880742913001
2.527859237536657
2.44672531769306
2.36950146627566
2.289345063538612
2.2111436950146626
2.1388074291300097
2.074291300097752
2.0175953079178885
1.9687194525904204
1.9257086999022484
1.8875855327468232
1.8523949169110456
1.8191593352883677
1.7898338220918866
1.761485826001955
1.7302052785923754
1.6979472140762464
1.664711632453568
1.629521016617791
1.5943304007820136
1.5581622678396871
1.52297165200391
1.4887585532746823
1.456500488758553
1.4252199413489737
1.3949169110459434
1.3695014662756595
1.3479960899315735
1.3255131964809383
1.3040078201368523
1.284457478005865
1.2668621700879763
1.2502443792766371
1.2336265884652982
1.2179863147605083
1.203323558162268
1.1896383186705768
1.1759530791788857
1.1652003910068427
1.1564027370478984
1.1456500488758554
1.1300097751710656
1.1202346041055715
1.110459433040078
1.096774193548387
1.0869990224828934
1.0772238514173995
1.0684261974584557
1.0596285434995112
1.050830889540567
1.0449657869012707
1.0410557184750733
1.0342130987292275
1.0273704789833822
1.021505376344086
1.0166177908113392
1.0117302052785924
1.007820136852395
1.0048875855327468
1.0019550342130987
0.9990224828934506
0.9960899315738024
0.9960899315738024
0.9990224828934506
1.0
1.0
