ppg
1.4633431085043989
1.3782991202346042
1.3020527859237536
1.2355816226783969
1.1808406647116323
1.13880742913001
1.110459433040078
1.0948191593352885
1.088954056695992
1.0909090909090908
1.099706744868035
1.1124144672531768
1.1290322580645162
1.147605083088954
1.1681329423264908
1.1896383186705768
1.2111436950146628
1.2326490713587488
1.2531769305962854
1.2717497556207231
1.289345063538612
1.3049853372434017
1.316715542521994
1.327468230694037
1.335288367546432
1.3391984359726294
1.33822091886608
1.3333333333333333
1.3255131964809383
1.3147605083088951
1.2981427174975562
1.2776148582600195
1.2570869990224829
1.2355816226783969
1.2140762463343109
1.1925708699902249
1.176930596285435
1.166177908113392
1.160312805474096
1.164222873900293
1.187683284457478
1.2326490713587488
1.3040078201368523
1.4027370478983383
1.5278592375366569
1.675464320625611
1.8347996089931573
1.9951124144672527
2.1300097751710654
2.242424242424242
2.3499511241446727
2.4359726295210167
2.4946236559139785
2.5210166177908118
2.517106549364614
2.4858260019550342
2.43108504398827
2.356793743890518
2.264907135874878
2.160312805474096
2.06158357771261
1.964809384164223
1.8523949169110456
1.732160312805474
1.6109481915933528
1.4916911045943304
1.3773216031280548
1.2668621700879763
1.1612903225806452
1.0654936461388074
0.981427174975562
0.9090909090909092
0.8484848484848485
0.8064516129032258
0.7761485826001955
0.7497556207233627
0.729227761485826
0.7165200391006843
0.7096774193548387
0.7106549364613881
0.718475073313783
0.7331378299120235
0.7546432062561095
0.7820136852394917
0.8132942326490714
0.8435972629521017
0.8729227761485826
0.9032258064516128
0.9335288367546432
0.9618768328445748
0.9853372434017597
1.6451612903225807
1.7956989247311828
1.935483870967742
2.0576735092864125
2.155425219941349
2.2238514173998043
2.2629521016617797
2.274682306940372
2.26197458455523
2.2277614858260018
2.172043010752688
2.0977517106549364
2.0087976539589443
1.90811339198436
1.7996089931573802
1.686217008797654
1.5718475073313782
1.456500488758553
1.3421309872922775
1.2473118279569892
1.1652003910068427
1.0791788856304985
0.997067448680352
0.9217986314760508
0.8543499511241447
0.7986314760508308
0.7526881720430108
1.452590420332356
1.5992179863147604
1.7634408602150538
1.93841642228739
2.1114369501466275
2.2531769305962857
2.36950146627566
2.4789833822091887
2.56891495601173
2.631476050830889
2.662756598240469
2.662756598240469
2.635386119257087
2.5865102639296187
2.520039100684262
2.4379276637341154
2.343108504398827
2.2404692082111435
2.146627565982405
2.056695992179863
1.9589442815249267
1.8592375366568916
1.7605083088954057
1.6666666666666667
1.581622678396872
1.504398826979472
1.434017595307918
1.370478983382209
1.3157380254154447
1.2697947214076246
1.2365591397849462
1.2140762463343109
1.195503421309873
1.1837732160312806
1.1779081133919844
1.1779081133919844
1.2531769305962854
1.367546432062561
1.43108504398827
1.4711632453567938
1.501466275659824
1.5239491691104594
1.5405669599217986
1.552297165200391
1.5610948191593352
1.565982404692082
1.56891495601173
1.56891495601173
1.565982404692082
1.5610948191593352
1.555229716520039
1.5483870967741935
1.5395894428152492
1.5298142717497556
1.5190615835777126
1.5102639296187683
1.5024437927663734
1.4897360703812317
1.4760508308895406
1.4643206256109482
1.458455522971652
1.4652981427174976
1.490713587487781
1.5405669599217986
1.6207233626588464
1.7302052785923754
1.8631476050830889
2.01564027370479
2.157380254154448
2.2932551319648096
2.442815249266862
2.589442815249267
2.719452590420332
2.713587487781036
2.697947214076246
2.66177908113392
2.606060606060606
2.533724340175953
2.4486803519061584
2.3528836754643208
2.251221896383187
2.145650048875855
2.037145650048876
1.9305962854349952
1.826001955034213
1.7253176930596286
1.6422287390029326
1.5708699902248289
1.495601173020528
1.4213098729227762
1.35386119257087
1.2942326490713587
1.241446725317693
1.198435972629521
1.163245356793744
1.1358748778103618
1.1173020527859236
1.1085043988269794
1.1085043988269794
1.1163245356793745
1.1300097751710656
1.1485826001955035
1.1681329423264908
1.1896383186705768
1.2140762463343109
1.2394916911045943
1.2649071358748778
1.289345063538612
1.3128054740957966
1.3343108504398826
1.1036168132942326
1.1173020527859236
1.1368523949169111
1.160312805474096
1.1857282502443791
1.2121212121212122
1.2394916911045943
1.267839687194526
1.5542521994134897
1.1290322580645162
1.4594330400782014
1.517106549364614
1.587487781036168
1.6852394916911049
1.8025415444770283
1.9296187683284456
2.058651026392962
2.182795698924731
2.294232649071359
2.386119257086999
2.452590420332356
2.490713587487781
2.501466275659824
2.4916911045943304
2.464320625610948
2.419354838709677
2.357771260997068
2.281524926686217
2.1945259042033234
2.101661779081134
2.005865102639296
1.9071358748778104
1.8084066471163245
1.7135874877810362
1.6217008797653958
1.533724340175953
1.4604105571847508
1.3978494623655917
1.3343108504398826
1.2756598240469208
1.2238514173998043
1.1788856304985338
1.144672531769306
1.1221896383186705
1.1114369501466277
1.1085043988269794
1.1124144672531768
1.1221896383186705
1.13880742913001
1.160312805474096
1.1867057673509287
1.217008797653959
1.249266862170088
1.281524926686217
1.313782991202346
1.4389051808406648
1.4613880742913
1.4809384164222874
1.4965786901270772
1.5083088954056696
1.5161290322580645
1.520039100684262
1.521994134897361
1.521994134897361
1.5190615835777126
1.5141739980449658
1.5063538611925709
1.4965786901270772
1.4848484848484849
1.4750733137829912
1.4701857282502444
1.4721407624633431
1.4809384164222874
1.501466275659824
1.5405669599217986
1.6001955034213098
1.683284457478006
1.7859237536656891
1.9042033235581624
2.03128054740958
2.160312805474096
2.2825024437927666
2.3900293255131966
2.4682306940371457
2.5219941348973607
2.5610948191593352
2.578690127077224
2.5718475073313782
2.5434995112414467
2.495601173020528
2.43108504398827
2.35386119257087
2.2668621700879767
2.1710654936461387
2.070381231671554
1.9804496578690127
1.8963831867057677
1.804496578690127
1.7145650048875856
1.6275659824046922
1.5464320625610948
1.4731182795698925
1.4242424242424243
1.388074291300098
1.346041055718475
1.3079178885630498
1.278592375366569
1.260019550342131
1.2551319648093842
1.260019550342131
1.2697947214076246
1.2834799608993157
1.3040078201368523
1.3304007820136852
1.3626588465298142
1.3978494623655917
1.434017595307918
1.4701857282502444
1.5073313782991202
1.543499511241447
1.5747800586510263
1.603128054740958
1.6314760508308896
1.656891495601173
1.6774193548387095
1.6920821114369502
1.6989247311827955
1.696969696969697
1.6871945259042034
1.6695992179863148
1.643206256109482
1.6099706744868034
1.5757575757575757
1.547409579667644
1.52297165200391
1.499511241446725
1.4858260019550342
1.490713587487781
1.521016617790811
1.5835777126099706
1.678396871945259
1.7996089931573802
1.943304007820137
2.102639296187683
2.2658846529814274
2.4027370478983383
2.5180840664711632
2.631476050830889
2.7253176930596283
2.789833822091887
2.822091886608016
2.823069403714565
2.793743890518084
2.739980449657869
2.6666666666666665
2.579667644183773
2.4838709677419355
2.3822091886608017
2.290322580645161
2.201368523949169
2.099706744868035
1.992179863147605
1.8836754643206255
1.775171065493646
1.6715542521994136
1.5728250244379276
1.4858260019550342
1.409579667644184
1.346041055718475
1.295210166177908
1.2609970674486803
1.238514173998045
1.219941348973607
1.2082111436950147
1.203323558162268
1.2043010752688172
1.2121212121212122
1.227761485826002
1.249266862170088
1.273704789833822
1.3010752688172045
1.3313782991202343
1.3665689149560116
1.4007820136852396
1.4330400782013686
1.4643206256109482
1.4926686217008798
1.520039100684262
1.543499511241447
1.5620723362658846
1.5728250244379276
1.5747800586510263
1.573802541544477
1.56891495601173
1.560117302052786
1.5532746823069403
1.547409579667644
1.5395894428152492
1.5347018572825024
1.5347018572825024
1.5454545454545454
1.5747800586510263
1.624633431085044
1.699902248289345
1.7976539589442817
1.913978494623656
2.046920821114369
2.189638318670577
2.312805474095797
2.4222873900293256
2.5347018572825024
2.634408602150537
2.713587487781036
2.76930596285435
2.7966764418377323
2.7947214076246336
2.7653958944281527
2.7126099706744866
2.641251221896383
2.5542521994134897
2.466275659824047
2.375366568914956
2.269794721407625
2.269794721407625
2.269794721407625
2.269794721407625
2.269794721407625
2.269794721407625
2.269794721407625
2.269794721407625
2.269794721407625
1.833822091886608
1.8504398826979471
1.992179863147605
1.5679374389051808
1.021505376344086
1.0009775171065494
0.9912023460410556
0.9863147605083088
0.9872922776148584
0.9921798631476052
1.002932551319648
1.0205278592375366
1.043010752688172
1.0703812316715542
1.1006842619745845
1.1329423264907137
1.1681329423264908
1.2003910068426198
1.2287390029325511
1.2561094819159335
1.284457478005865
1.3098729227761483
1.3313782991202343
1.346041055718475
1.35386119257087
1.356793743890518
1.3558162267839686
1.3499511241446724
1.3391984359726294
1.324535679374389
1.313782991202346
1.3040078201368523
1.2932551319648091
1.2883675464320623
1.2932551319648091
1.3147605083088951
1.3577712609970674
1.426197458455523
1.521016617790811
1.6412512218963833
1.7810361681329423
1.9335288367546437
2.0684261974584555
2.188660801564027
2.312805474095797
2.4271749755620724
2.5210166177908118
2.5865102639296187
2.622678396871945
2.6285434995112413
2.6080156402737047
2.565982404692082
2.505376344086021
2.4330400782013686
2.350928641251222
2.271749755620724
2.193548387096774
2.104594330400782
2.0097751710654936
1.9120234604105573
1.8162267839687196
1.7253176930596286
1.6383186705767352
1.555229716520039
1.47702834799609
1.4066471163245358
1.343108504398827
1.295210166177908
1.2580645161290325
1.224828934506354
1.1994134897360704
1.1837732160312806
1.1779081133919844
1.181818181818182
1.195503421309873
1.219941348973607
1.252199413489736
1.2883675464320623
1.3264907135874875
1.364613880742913
1.3988269794721409
1.43108504398827
1.4652981427174976
1.499511241446725
1.533724340175953
1.5650048875855327
1.590420332355816
1.611925708699902
1.6285434995112416
1.640273704789834
1.6480938416422288
1.651026392961877
1.651026392961877
1.6471163245356797
1.6383186705767352
1.6265884652981428
1.6138807429130009
1.603128054740958
1.5962854349951123
1.5962854349951123
1.608993157380254
1.6422287390029326
1.6979472140762464
1.7761485826001957
1.87683284457478
1.975562072336266
2.0762463343108504
2.198435972629521
2.3284457478005867
2.452590420332356
2.5640273704789838
2.6559139784946235
2.7223851417399803
2.7595307917888565
2.76930596285435
2.7546432062561097
2.719452590420332
2.6725317693059627
2.616813294232649
2.547409579667644
2.4682306940371457
2.3822091886608017
2.290322580645161
2.196480938416422
2.101661779081134
2.005865102639296
1.9120234604105573
1.822091886608016
1.7350928641251222
1.6529814271749756
1.585532746823069
1.5278592375366569
1.4721407624633431
1.4213098729227762
1.3773216031280548
1.3421309872922775
1.3147605083088951
1.2942326490713587
1.2825024437927663
1.2776148582600195
1.281524926686217
1.2913000977517106
1.305962854349951
1.324535679374389
1.3470185728250244
1.3724340175953078
1.3998044965786902
1.426197458455523
1.4506353861192571
1.4731182795698925
1.4936461388074291
1.512218963831867
1.525904203323558
1.5356793743890518
1.541544477028348
1.544477028347996
1.544477028347996
1.5405669599217986
1.533724340175953
1.521994134897361
1.5083088954056696
1.495601173020528
1.4848484848484849
1.478983382209189
1.482893450635386
1.501466275659824
1.5405669599217986
1.590420332355816
1.6559139784946235
1.750733137829912
1.870967741935484
2.007820136852395
2.1515151515151514
2.291300097751711
2.420332355816227
2.5288367546432062
2.611925708699902
2.6666666666666665
2.69208211143695
2.689149560117302
2.664711632453568
2.622678396871945
2.563049853372434
2.4887585532746823
2.4027370478983383
2.310850439882698
2.21505376344086
2.117302052785924
2.0175953079178885
1.919843597262952
1.8240469208211143
1.7331378299120237
1.656891495601173
1.590420332355816
1.521016617790811
1.455522971652004
1.3958944281524928
1.343108504398827
1.2991202346041055
1.262952101661779
1.2355816226783969
1.2179863147605083
1.2082111436950147
1.2052785923753666
1.2111436950146628
1.2209188660801564
1.2346041055718475
1.252199413489736
1.2727272727272727
1.2981427174975562
1.327468230694037
1.356793743890518
1.383186705767351
1.4076246334310851
1.4320625610948192
1.4545454545454546
1.4721407624633431
1.4838709677419355
1.490713587487781
1.4936461388074291
1.4916911045943304
1.4868035190615836
1.4809384164222874
1.4731182795698925
1.4623655913978495
1.4496578690127078
1.435972629521017
1.4203323558162269
1.4037145650048877
1.3919843597262953
1.3870967741935485
1.3919843597262953
1.414467253176931
1.458455522971652
1.5268817204301075
1.6187683284457477
1.7311827956989247
1.858260019550342
1.991202346041056
2.121212121212121
2.2385141739980448
2.337243401759531
2.404692082111437
2.443792766373412
2.463343108504399
2.4594330400782014
2.432062561094819
2.3851417399804498
2.3225806451612905
2.2482893450635384
2.167155425219941
2.080156402737048
1.989247311827957
1.8944281524926687
1.8113391984359728
1.7331378299120237
1.6480938416422288
1.564027370478983
1.4838709677419355
1.4105571847507332
1.343108504398827
1.2825024437927663
1.23069403714565
1.187683284457478
1.152492668621701
1.1251221896383188
1.1065493646138806
1.096774193548387
1.0957966764418376
1.099706744868035
1.1094819159335287
1.1251221896383188
1.1436950146627567
1.1652003910068427
1.1886608015640274
1.2150537634408602
1.241446725317693
1.267839687194526
1.2942326490713587
1.3186705767350928
1.3411534701857282
1.3626588465298142
1.380254154447703
1.3958944281524928
1.4086021505376345
1.418377321603128
1.4242424242424243
1.426197458455523
1.4242424242424243
1.4193548387096775
1.412512218963832
1.4037145650048877
1.3949169110459434
1.3870967741935485
1.3792766373411536
1.3743890518084063
1.3743890518084063
1.383186705767351
1.4056695992179864
1.4457478005865103
1.5053763440860215
1.585532746823069
1.6842619745845553
1.7986314760508308
1.9042033235581624
2.002932551319648
2.110459433040078
2.2111436950146626
2.294232649071359
2.3548387096774195
2.3900293255131966
2.398826979472141
2.3812316715542523
2.3411534701857284
2.2844574780058653
2.2130987292277613
2.1309872922776147
2.0527859237536656
1.975562072336266
1.8885630498533723
1.796676441837732
1.704789833822092
1.616813294232649
1.5327468230694037
2.4858260019550342
2.455522971652004
2.4027370478983383
2.329423264907136
2.243401759530792
2.1485826001955037
2.047898338220919
1.945259042033236
1.844574780058651
1.7468230694037146
1.6520039100684265
1.5728250244379276
1.504398826979472
1.4349951124144673
1.3695014662756595
1.3098729227761483
1.260019550342131
1.2209188660801564
1.1915933528836755
1.1720430107526882
1.1612903225806452
1.1593352883675463
1.166177908113392
1.1788856304985338
1.195503421309873
1.2189638318670577
1.2482893450635386
1.281524926686217
1.3157380254154447
1.3509286412512218
1.3870967741935485
1.423264907135875
1.456500488758553
1.4887585532746823
1.5190615835777126
1.5464320625610948
1.5679374389051808
1.5835777126099706
1.5972629521016617
1.606060606060606
1.6109481915933528
1.6109481915933528
1.6080156402737047
1.603128054740958
1.595307917888563
1.58455522971652
1.5728250244379276
1.560117302052786
1.5503421309872922
1.544477028347996
1.5405669599217986
1.541544477028348
1.552297165200391
1.5747800586510263
1.6148582600195502
1.6744868035190617
1.7526881720430108
1.8484848484848484
1.9560117302052784
2.0664711632453567
2.1700879765395893
2.2502443792766376
2.30791788856305
2.3528836754643208
2.378299120234604
2.3792766373411536
2.356793743890518
2.313782991202346
2.254154447702835
2.1808406647116323
2.096774193548387
2.004887585532747
1.90811339198436
1.822091886608016
1.7429130009775171
1.6559139784946235
1.56891495601173
1.0625610948191593
1.0586510263929618
1.0547409579667644
1.0498533724340176
1.0420332355816226
1.0312805474095796
1.018572825024438
1.0058651026392962
0.9931573802541545
0.9843597262952102
0.9775171065493646
0.967741935483871
0.9560117302052786
0.946236559139785
0.9423264907135877
0.9491691104594332
0.9726295210166178
1.0146627565982405
1.0772238514173995
1.1593352883675463
1.2580645161290325
1.3528836754643203
1.4467253176930597
1.552297165200391
1.653958944281525
1.7448680351906158
1.8201368523949168
1.8748778103616808
1.905180840664712
1.9120234604105573
1.895405669599218
1.858260019550342
1.8035190615835777
1.737047898338221
1.672531769305963
1.608993157380254
1.5327468230694037
1.4516129032258065
1.3685239491691104
1.2864125122189638
1.2052785923753666
1.1280547409579669
1.075268817204301
1.0371456500488758
0.9921798631476052
0.9501466275659824
0.9208211143695014
0.9002932551319648
0.8817204301075269
0.8660801564027371
0.8533724340175953
0.844574780058651
0.8406647116324536
0.8426197458455523
0.8514173998044966
0.8660801564027371
0.8836754643206256
0.9022482893450636
0.919843597262952
0.9393939393939394
0.9589442815249268
0.975562072336266
0.9921798631476052
1.007820136852395
1.0224828934506354
1.0381231671554252
1.050830889540567
1.0596285434995112
1.0664711632453567
0.772238514173998
0.7947214076246334
0.8191593352883676
0.8426197458455523
0.8651026392961877
0.8875855327468231
0.9090909090909092
0.9305962854349952
0.9530791788856304
0.9706744868035192
0.9833822091886608
0.9941348973607038
1.0039100684261977
1.010752688172043
1.0166177908113392
1.0234604105571847
1.0332355816226784
1.04594330400782
1.06158357771261
1.086021505376344
1.118279569892473
1.163245356793744
1.2267839687194526
1.3088954056695992
1.4086021505376345
1.521016617790811
1.6373411534701858
1.7487781036168133
2.16911045943304
2.075268817204301
1.988269794721408
1.9178885630498532
1.857282502443793
1.7986314760508308
1.7458455522971652
1.699902248289345
1.6627565982404693
1.632453567937439
1.6099706744868034
1.5962854349951123
1.5884652981427174
1.5865102639296187
1.5913978494623655
1.6021505376344083
1.616813294232649
1.635386119257087
1.635386119257087
1.635386119257087
1.635386119257087
1.635386119257087
1.635386119257087
1.635386119257087
1.635386119257087
1.635386119257087
1.635386119257087
1.606060606060606
1.6138807429130009
1.6158357771260996
1.6138807429130009
1.6109481915933528
1.5513196480938416
1.478005865102639
1.412512218963832
1.3577712609970674
1.3577712609970674
1.3577712609970674
1.3577712609970674
1.3577712609970674
1.3577712609970674
1.3577712609970674
3.131964809384164
3.1192570869990224
3.081133919843597
3.021505376344086
2.945259042033236
2.857282502443793
2.7702834799608995
2.6832844574780057
2.5855327468230693
2.482893450635386
2.377321603128055
2.269794721407625
2.1622678396871944
2.0557184750733137
1.95405669599218
1.857282502443793
1.7673509286412512
1.686217008797654
1.6138807429130009
1.5581622678396871
2.825024437927664
2.811339198435973
2.76930596285435
2.702834799608993
2.616813294232649
2.515151515151515
2.40078201368524
2.29227761485826
2.188660801564027
2.0733137829912023
1.95405669599218
1.8347996089931573
1.7165200391006843
1.6021505376344083
1.4916911045943304
1.3870967741935485
1.289345063538612
1.2003910068426198
1.121212121212121
1.0606060606060606
1.0156402737047898
0.9726295210166178
0.9335288367546432
0.9032258064516128
0.8826979472140762
0.8699902248289345
0.8660801564027371
0.8690127077223851
1.0733137829912025
1.0175953079178883
0.9794721407624634
0.9550342130987292
0.9364613880742912
0.9237536656891496
0.9178885630498532
0.9188660801564028
0.9257086999022482
0.93841642228739
0.9912023460410556
1.0654936461388074
1.1173020527859236
1.160312805474096
1.1974584555229717
1.2316715542521994
1.2658846529814272
1.2991202346041055
1.3304007820136852
1.3607038123167154
1.3900293255131966
1.414467253176931
1.4349951124144673
1.452590420332356
1.4672531769305963
1.478005865102639
1.4838709677419355
1.4868035190615836
1.4858260019550342
1.4819159335288368
1.4750733137829912
1.466275659824047
1.4545454545454546
1.4408602150537635
1.426197458455523
1.412512218963832
1.4027370478983383
1.4007820136852396
1.412512218963832
1.436950146627566
1.47702834799609
1.5454545454545454
1.643206256109482
1.7673509286412512
1.9149560117302051
2.0791788856304985
2.249266862170088
2.418377321603128
2.575757575757576
2.7116324535679373
2.819159335288368
2.895405669599218
2.935483870967742
2.9472140762463344
2.9374389051808407
2.903225806451613
2.8475073313782997
2.771260997067449
2.678396871945259
2.573802541544477
2.462365591397849
2.347018572825025
2.23069403714565
2.115347018572825
2.016617790811339
1.9266862170087975
1.828934506353861
1.7302052785923754
1.6334310850439884
1.5405669599217986
1.456500488758553
1.3822091886608017
1.3186705767350928
1.2658846529814272
1.2238514173998043
1.1925708699902249
1.1700879765395895
1.1593352883675463
1.1564027370478984
1.1593352883675463
1.1681329423264908
1.1837732160312806
1.2052785923753666
1.2316715542521994
1.262952101661779
1.2971652003910068
1.3333333333333333
1.3695014662756595
1.404692082111437
1.435972629521017
1.4643206256109482
1.4926686217008798
1.4926686217008798
1.4926686217008798
1.4926686217008798
1.4926686217008798
1.4926686217008798
1.4926686217008798
1.4926686217008798
1.4926686217008798
1.4926686217008798
1.4926686217008798
2.2629521016617797
2.2561094819159337
2.251221896383187
2.247311827956989
2.2453567937438903
2.244379276637341
2.243401759530792
2.243401759530792
2.244379276637341
2.24633431085044
2.2482893450635384
2.2502443792766376
2.2531769305962857
2.2561094819159337
2.259042033235582
2.260997067448681
2.260997067448681
2.260997067448681
2.260997067448681
2.260997067448681
2.260997067448681
2.260997067448681
2.260997067448681
2.260997067448681
1.2776148582600195
1.2336265884652982
1.2013685239491692
1.1808406647116323
1.1710654936461389
1.1700879765395895
1.1779081133919844
1.1915933528836755
1.2101661779081134
1.2316715542521994
1.2570869990224829
1.2854349951124144
1.3147605083088951
1.3450635386119256
1.3763440860215057
1.4066471163245358
1.435972629521017
1.4623655913978495
1.4848484848484849
1.500488758553275
1.5112414467253177
1.5180840664711632
1.521994134897361
1.521994134897361
1.5180840664711632
1.5102639296187683
1.501466275659824
1.4897360703812317
1.4750733137829912
1.458455522971652
1.4408602150537635
1.4252199413489737
1.41544477028348
1.4115347018572826
1.418377321603128
1.4418377321603129
1.4887585532746823
1.5620723362658846
1.6627565982404693
1.7888563049853372
1.9364613880742916
2.096774193548387
2.260997067448681
2.419354838709677
2.563049853372434
2.6695992179863146
2.744868035190616
2.807429130009776
2.8484848484848486
2.859237536656892
2.838709677419355
2.790811339198436
2.720430107526881
2.632453567937439
2.5317693059628543
2.4242424242424243
2.312805474095797
2.212121212121212
2.115347018572825
2.0097751710654936
1.900293255131965
1.7917888563049853
1.686217008797654
1.5835777126099706
1.487781036168133
1.401759530791789
1.3255131964809383
1.2590420332355816
1.2043010752688172
1.1622678396871946
1.1358748778103618
1.1202346041055715
1.110459433040078
1.1065493646138806
1.10752688172043
1.1143695014662756
1.1280547409579669
