ppg
2.544477028347996
2.5083088954056696
2.466275659824047
2.420332355816227
2.3704789833822093
2.317693059628544
2.2629521016617797
2.2140762463343107
2.167155425219941
2.115347018572825
2.06158357771261
2.005865102639296
1.9501466275659824
1.895405669599218
1.8416422287390029
1.7888563049853372
1.7390029325513197
1.6920821114369502
1.6480938416422288
1.607038123167155
1.5757575757575757
1.5493646138807429
1.520039100684262
1.4926686217008798
1.4672531769305963
1.4457478005865103
1.4281524926686218
1.414467253176931
1.4066471163245358
1.4056695992179864
1.4115347018572826
1.4252199413489737
1.4467253176930597
1.4760508308895406
1.5151515151515151
1.564027370478983
1.6217008797653958
1.686217008797654
1.7565982404692082
1.83088954056696
1.9071358748778104
1.9833822091886608
2.060606060606061
2.1378299120234603
2.21505376344086
2.280547409579668
2.3391984359726297
2.4027370478983383
2.4672531769305963
2.530791788856305
2.592375366568915
2.652003910068426
2.70772238514174
2.7595307917888565
2.806451612903226
2.849462365591398
2.8856304985337244
2.909090909090909
2.924731182795699
2.9393939393939394
2.951124144672532
2.9589442815249267
2.962854349951124
2.964809384164223
2.9657869012707723
2.9667644183773216
2.9667644183773216
2.9667644183773216
2.9667644183773216
2.9667644183773216
2.961876832844575
2.9550342130987293
2.949169110459433
2.941348973607038
2.9315738025415445
2.918866080156403
2.900293255131965
2.87683284457478
2.8484848484848486
2.8152492668621703
2.776148582600196
2.7311827956989245
2.686217008797654
2.6402737047898337
2.587487781036168
2.5288367546432062
2.466275659824047
2.39980449657869
2.3313782991202348
2.260997067448681
2.190615835777126
2.121212121212121
2.0518084066471163
1.9824046920821117
1.9149560117302051
1.857282502443793
1.8054740957966764
1.7487781036168133
1.6920821114369502
1.6363636363636365
1.581622678396872
1.5278592375366569
1.47702834799609
1.43108504398827
1.3890518084066472
1.3499511241446724
1.3147605083088951
1.2903225806451613
1.2746823069403714
1.2619745845552297
1.2561094819159335
1.2590420332355816
1.273704789833822
1.2991202346041055
1.3372434017595307
1.3851417399804498
1.4428152492668622
1.5063538611925709
1.5747800586510263
1.6392961876832846
1.7008797653958945
1.7683284457478006
1.8387096774193548
1.911045943304008
1.9833822091886608
2.0557184750733137
2.126099706744868
2.1945259042033234
2.260019550342131
2.324535679374389
2.386119257086999
2.4457478005865103
2.493646138807429
2.5347018572825024
2.576735092864125
2.6158357771261
2.650048875855328
2.678396871945259
2.699902248289345
2.7155425219941347
2.7262952101661777
2.7331378299120237
2.7390029325513194
2.7438905180840663
2.744868035190616
2.7438905180840663
2.744868035190616
2.745845552297165
2.745845552297165
2.744868035190616
2.7419354838709675
2.7370478983382207
2.7282502443792764
2.7145650048875853
2.6959921798631474
2.6715542521994133
2.6422287390029324
2.611925708699902
2.5777126099706744
2.536656891495601
2.487781036168133
2.4330400782013686
2.3734115347018574
2.3098729227761488
2.243401759530792
2.1739980449657867
2.103616813294233
2.03128054740958
1.9589442815249267
1.8973607038123168
1.8406647116324533
1.7771260997067448
1.710654936461388
1.643206256109482
1.576735092864125
1.512218963831867
1.4506353861192571
1.391006842619746
1.3343108504398826
1.2795698924731185
1.2287390029325511
1.1808406647116323
1.1466275659824048
1.1192570869990224
1.088954056695992
1.0596285434995112
1.035190615835777
1.0175953079178883
1.0087976539589445
1.0097751710654936
1.021505376344086
1.0449657869012707
1.0791788856304985
1.1241446725317692
1.1730205278592376
1.2267839687194526
1.2883675464320623
1.3558162267839686
1.4281524926686218
1.5034213098729228
1.5796676441837731
1.6578690127077225
1.7360703812316716
1.812316715542522
1.8866080156402736
1.9589442815249267
2.0283479960899315
2.0879765395894427
2.1407624633431084
2.19941348973607
2.259042033235582
2.318670576735093
2.376344086021505
2.4301075268817205
2.4789833822091887
2.5219941348973607
2.5591397849462365
2.589442815249267
2.6148582600195502
2.632453567937439
2.644183773216031
2.6578690127077222
2.6715542521994133
2.684261974584555
2.6959921798631474
2.7067448680351904
2.7155425219941347
2.724340175953079
2.732160312805474
2.73802541544477
2.740957966764418
2.739980449657869
2.735092864125122
2.7262952101661777
2.7145650048875853
2.697947214076246
2.67644183773216
2.650048875855328
2.618768328445748
2.581622678396872
2.5405669599217986
2.493646138807429
2.443792766373412
2.3919843597262958
2.345063538611926
2.300097751710655
2.2482893450635384
2.1925708699902247
2.1358748778103616
2.0772238514174
2.0195503421309877
1.9608993157380252
1.903225806451613
1.8455522971652003
1.7898338220918866
1.737047898338221
1.686217008797654
1.64613880742913
1.611925708699902
1.5728250244379276
1.5356793743890518
1.501466275659824
1.4701857282502444
1.4437927663734116
1.4222873900293256
1.4076246334310851
1.401759530791789
1.404692082111437
1.418377321603128
1.4408602150537635
1.4701857282502444
1.5102639296187683
1.560117302052786
1.616813294232649
1.6803519061583578
1.7497556207233629
1.823069403714565
1.8993157380254155
1.9775171065493649
2.0547409579667644
2.1309872922776147
2.206256109481916
2.269794721407625
2.3255131964809386
2.3870967741935485
2.450635386119257
2.5141739980449658
2.575757575757576
2.634408602150537
2.6901270772238512
2.7419354838709675
2.787878787878788
2.827956989247312
2.8611925708699903
2.8826979472140764
2.8963831867057674
2.90811339198436
2.917888563049853
2.924731182795699
2.9286412512218964
2.930596285434995
2.9315738025415445
2.9335288367546437
2.935483870967742
2.9374389051808407
2.9393939393939394
2.940371456500489
2.9374389051808407
2.9315738025415445
2.9257086999022484
2.917888563049853
2.906158357771261
2.8905180840664717
2.870967741935484
2.84652981427175
2.81622678396872
2.7810361681329425
2.7390029325513194
2.69208211143695
2.64613880742913
2.5992179863147604
2.5454545454545454
2.486803519061584
2.4242424242424243
2.357771260997068
2.289345063538612
2.219941348973607
2.150537634408602
2.0821114369501466
2.0146627565982405
1.9472140762463344
1.8905180840664717
1.839687194525904
1.7820136852394917
1.721407624633431
1.6598240469208212
1.5992179863147604
1.541544477028348
1.487781036168133
1.4389051808406648
1.3978494623655917
1.367546432062561
1.3479960899315735
1.3411534701857282
1.3479960899315735
1.3665689149560116
1.3958944281524928
1.4349951124144673
1.482893450635386
1.5376344086021505
1.598240469208211
1.66177908113392
1.7272727272727273
1.7947214076246334
1.8631476050830889
1.9315738025415443
1.991202346041056
2.0557184750733137
2.1300097751710654
2.20039100684262
2.267839687194526
2.3313782991202348
2.391006842619746
2.447702834799609
2.5004887585532747
2.549364613880743
2.592375366568915
2.6295210166177907
2.6608015640273703
2.6823069403714563
2.6959921798631474
2.70772238514174
2.719452590420332
2.729227761485826
2.73802541544477
2.745845552297165
2.752688172043011
2.758553274682307
2.763440860215054
2.766373411534702
2.7673509286412514
2.763440860215054
2.755620723362659
2.745845552297165
2.7311827956989245
2.7126099706744866
2.6881720430107525
2.656891495601173
2.619745845552297
2.576735092864125
2.527859237536657
2.474095796676442
2.41544477028348
2.3519061583577714
2.294232649071359
2.2385141739980448
2.175953079178885
2.1094819159335287
2.0410557184750733
1.970674486803519
1.9012707722385145
1.8318670576735088
1.7634408602150538
1.6959921798631477
1.629521016617791
1.564027370478983
1.5102639296187683
1.4633431085043989
1.4105571847507332
1.3558162267839686
1.3020527859237536
1.2512218963831867
1.203323558162268
1.160312805474096
1.121212121212121
1.0869990224828934
1.056695992179863
1.0312805474095796
1.010752688172043
1.0
0.9960899315738024
0.9921798631476052
0.9921798631476052
0.9980449657869012
1.010752688172043
1.032258064516129
1.0635386119257086
1.104594330400782
1.155425219941349
1.2140762463343109
1.2805474095796676
1.346041055718475
1.412512218963832
1.487781036168133
1.56891495601173
1.6529814271749756
1.7380254154447703
1.825024437927664
1.911045943304008
1.9960899315738023
2.0791788856304985
2.1593352883675463
2.2385141739980448
2.3167155425219943
2.3822091886608017
2.439882697947214
2.5024437927663734
2.5669599217986314
2.6285434995112413
2.6852394916911044
2.735092864125122
2.777126099706745
2.8103616813294234
2.835777126099707
2.855327468230694
2.8690127077223853
2.875855327468231
2.878787878787879
2.8826979472140764
2.887585532746823
2.8914956011730206
2.895405669599218
2.8993157380254155
2.903225806451613
2.906158357771261
2.906158357771261
2.903225806451613
2.897360703812317
2.887585532746823
2.8729227761485827
2.855327468230694
2.833822091886608
2.8054740957966766
2.771260997067449
2.730205278592375
2.6832844574780057
2.631476050830889
2.573802541544477
2.512218963831867
2.44672531769306
2.378299120234604
2.317693059628544
2.260019550342131
2.196480938416422
2.129032258064516
2.059628543499511
1.9902248289345064
1.920821114369501
1.8523949169110456
1.7849462365591398
1.721407624633431
1.6608015640273706
1.603128054740958
1.5483870967741935
1.5053763440860215
1.469208211143695
1.4301075268817205
1.391006842619746
1.3548387096774193
1.3225806451612905
1.2961876832844574
1.2766373411534702
1.2649071358748778
1.260019550342131
1.2639296187683284
1.2776148582600195
1.2991202346041055
1.3294232649071358
1.3695014662756595
1.418377321603128
1.4750733137829912
1.5376344086021505
1.6050830889540566
1.675464320625611
1.7497556207233629
1.826001955034213
1.903225806451613
1.9804496578690127
2.0576735092864125
2.124144672531769
2.1847507331378297
2.251221896383187
2.3196480938416424
2.386119257086999
2.452590420332356
2.5161290322580645
2.576735092864125
2.633431085043988
2.6852394916911044
2.7311827956989245
2.771260997067449
2.7996089931573804
2.819159335288368
2.8367546432062563
2.8514173998044967
2.86217008797654
2.8699902248289346
2.87683284457478
2.8826979472140764
2.8885630498533725
2.89345063538612
2.897360703812317
2.9012707722385143
2.903225806451613
2.900293255131965
2.895405669599218
2.8914956011730206
2.884652981427175
2.875855327468231
2.863147605083089
2.84652981427175
2.825024437927664
2.7996089931573804
2.768328445747801
2.7311827956989245
2.689149560117302
2.6471163245356792
2.603128054740958
2.552297165200391
2.496578690127077
2.4359726295210167
2.3734115347018574
2.30791788856305
2.2404692082111435
2.1730205278592374
2.1065493646138806
2.0391006842619745
1.970674486803519
1.9130009775171064
1.86119257086999
1.8025415444770283
1.7429130009775171
1.683284457478006
1.624633431085044
1.5679374389051808
1.5151515151515151
1.466275659824047
1.4203323558162269
1.3792766373411536
1.3421309872922775
1.3088954056695992
1.2873900293255132
1.2746823069403714
1.2658846529814272
1.2639296187683284
1.2717497556207231
1.2903225806451613
1.3196480938416422
1.3607038123167154
1.412512218963832
1.4711632453567938
1.5347018572825024
1.603128054740958
1.6686217008797657
1.7331378299120237
1.804496578690127
1.8797653958944285
1.956989247311828
2.035190615835777
2.1114369501466275
2.185728250244379
2.2580645161290325
2.329423264907136
2.398826979472141
2.4652981427174976
2.5288367546432062
2.5806451612903225
2.625610948191593
2.673509286412512
2.719452590420332
2.760508308895406
2.795698924731183
2.8240469208211145
2.8690127077223853
2.918866080156403
2.945259042033236
2.959921798631476
2.9687194525904204
2.970674486803519
2.9716520039100685
2.975562072336266
2.979472140762464
2.981427174975562
2.9824046920821115
2.9824046920821115
2.978494623655914
2.972629521016618
2.962854349951124
2.949169110459433
2.9315738025415445
2.909090909090909
2.8836754643206257
2.854349951124145
2.819159335288368
2.7781036168132944
2.7311827956989245
2.677419354838709
2.618768328445748
2.555229716520039
2.487781036168133
2.418377321603128
2.347018572825025
2.2737047898338223
2.210166177908113
2.1515151515151514
2.086021505376344
2.01564027370479
1.9442815249266865
1.870967741935484
1.7986314760508308
1.7272727272727273
1.6578690127077225
1.5923753665689149
1.5288367546432062
1.4682306940371457
1.4105571847507332
1.364613880742913
1.327468230694037
1.2854349951124144
1.2434017595307918
1.2043010752688172
1.1700879765395895
1.141739980449658
1.1202346041055715
1.1085043988269794
1.1065493646138806
1.1173020527859236
1.1407624633431086
1.1730205278592376
1.2130987292277615
1.262952101661779
1.321603128054741
1.3861192570869991
1.456500488758553
1.530791788856305
1.6080156402737047
1.6871945259042034
1.7673509286412512
1.8465298142717497
1.9237536656891496
2.0
2.0664711632453567
2.126099706744868
2.188660801564027
2.2521994134897363
2.314760508308896
2.376344086021505
2.4359726295210167
2.490713587487781
2.5405669599217986
2.58455522971652
2.622678396871945
2.654936461388074
2.677419354838709
2.6940371456500487
2.710654936461388
2.724340175953079
2.73802541544477
2.750733137829912
2.7624633431085046
2.773216031280548
2.782013685239492
2.789833822091887
2.795698924731183
2.798631476050831
2.7976539589442817
2.792766373411535
2.78494623655914
2.774193548387097
2.757575757575758
2.736070381231672
2.70772238514174
2.673509286412512
2.633431085043988
2.587487781036168
2.5376344086021505
2.484848484848485
2.4271749755620724
2.3743890518084068
2.32355816226784
2.2658846529814274
2.203323558162268
2.1388074291300097
2.072336265884653
2.005865102639296
1.9403714565004888
1.8758553274682308
1.8132942326490715
1.7526881720430108
1.6950146627565983
1.6392961876832846
1.5943304007820136
1.5581622678396871
1.5190615835777126
1.479960899315738
1.444770283479961
1.4134897360703813
1.3861192570869991
1.364613880742913
1.348973607038123
1.3401759530791788
1.3391984359726294
1.3470185728250244
1.3626588465298142
1.3861192570869991
1.4173998044965788
1.457478005865103
1.5073313782991202
1.565982404692082
1.6314760508308896
1.7018572825024438
1.7771260997067448
1.8563049853372435
1.9374389051808407
2.018572825024438
2.099706744868035
2.1700879765395893
2.2346041055718477
2.3059628543499517
2.380254154447703
2.455522971652004
2.529814271749756
2.6021505376344085
2.6725317693059627
2.740957966764418
2.8054740957966766
2.8641251221896384
2.916911045943304
2.9550342130987293
2.983382209188661
3.0117302052785924
3.0361681329423265
3.0547409579667644
3.0684261974584555
3.0772238514174
3.0821114369501466
3.085043988269794
3.0869990224828934
3.088954056695992
3.090909090909091
3.088954056695992
3.0840664711632453
3.081133919843597
3.078201368523949
3.075268817204301
3.070381231671554
3.0625610948191597
3.0527859237536656
3.040078201368524
3.022482893450636
2.99902248289345
2.970674486803519
2.9374389051808407
2.903225806451613
2.865102639296188
2.819159335288368
2.7673509286412514
2.710654936461388
2.649071358748778
2.5835777126099706
2.5161290322580645
2.4457478005865103
2.3734115347018574
2.3010752688172045
2.2297165200391005
2.167155425219941
2.1094819159335287
2.0449657869012707
1.9775171065493649
1.9090909090909087
1.8416422287390029
1.7761485826001957
1.7126099706744868
1.6520039100684265
1.5943304007820136
1.5395894428152492
1.4887585532746823
1.4418377321603129
1.4076246334310851
1.3812316715542523
1.35386119257087
1.3284457478005864
1.3079178885630498
1.295210166177908
1.2913000977517106
1.2981427174975562
1.3157380254154447
1.3450635386119256
1.3861192570869991
1.4389051808406648
1.4936461388074291
1.5513196480938416
1.6177908113391983
1.6901270772238517
1.7653958944281525
1.8416422287390029
1.9178885630498532
1.9951124144672527
2.070381231671554
2.145650048875855
2.219941348973607
2.29227761485826
2.363636363636364
2.4242424242424243
2.4780058651026398
2.535679374389052
2.593352883675464
2.6480938416422286
2.697947214076246
2.7438905180840663
2.7839687194525906
2.817204301075269
2.843597262952102
2.8641251221896384
2.8797653958944283
2.887585532746823
2.8914956011730206
2.895405669599218
2.8993157380254155
2.903225806451613
2.906158357771261
2.909090909090909
2.9120234604105573
2.913000977517106
2.913978494623656
2.913000977517106
2.909090909090909
2.9012707722385143
2.889540566959922
2.850439882697948
2.795698924731183
2.7536656891495603
2.7145650048875853
2.673509286412512
2.6285434995112413
2.578690127077224
2.5239491691104594
2.464320625610948
2.40078201368524
2.334310850439883
2.274682306940372
2.217986314760508
2.15347018572825
2.085043988269794
2.0146627565982405
1.9442815249266865
1.873900293255132
1.8035190615835777
1.7331378299120237
1.664711632453568
1.5992179863147604
1.5366568914956011
1.47702834799609
1.4291300097751711
1.3890518084066472
1.3421309872922775
1.2932551319648091
1.2453567937438903
1.2013685239491692
1.1622678396871946
1.1300097751710656
1.1055718475073313
1.0909090909090908
1.0869990224828934
1.0948191593352885
1.1133919843597262
1.141739980449658
1.1798631476050832
1.227761485826002
1.284457478005865
1.3470185728250244
1.41544477028348
1.487781036168133
1.563049853372434
1.640273704789834
1.718475073313783
1.796676441837732
1.8729227761485825
1.9393939393939397
2.0009775171065494
2.0664711632453567
2.131964809384164
2.1974584555229715
2.260997067448681
2.3225806451612905
2.3812316715542523
2.4349951124144678
2.482893450635386
2.525904203323558
2.563049853372434
2.590420332355816
2.6099706744868034
2.6295210166177907
2.64613880742913
2.6608015640273703
2.674486803519061
2.687194525904203
2.697947214076246
2.7067448680351904
2.713587487781036
2.718475073313783
2.721407624633431
2.7223851417399803
2.719452590420332
2.7126099706744866
2.704789833822092
2.6940371456500487
2.678396871945259
2.6578690127077222
2.63049853372434
2.598240469208211
2.560117302052786
2.5161290322580645
2.4672531769305963
2.412512218963832
2.361681329423265
2.312805474095797
2.2561094819159337
2.1955034213098727
2.131964809384164
2.0664711632453567
2.0
1.9335288367546437
1.868035190615836
1.804496578690127
1.7419354838709675
1.6823069403714566
1.624633431085044
1.5777126099706744
1.5376344086021505
1.4936461388074291
1.4506353861192571
1.409579667644184
1.3734115347018572
1.3411534701857282
1.3118279569892473
1.2873900293255132
1.2688172043010753
1.2570869990224829
1.2541544477028348
1.2609970674486803
1.2776148582600195
1.3010752688172045
1.3333333333333333
1.3763440860215057
1.4291300097751711
1.4897360703812317
1.5571847507331378
1.6304985337243405
1.7086999022482894
1.7898338220918866
1.871945259042033
1.95405669599218
2.024437927663734
2.0879765395894427
2.157380254154448
2.2297165200391005
2.302052785923754
2.3734115347018574
2.443792766373412
2.5131964809384164
2.579667644183773
2.644183773216031
2.7038123167155423
2.757575757575758
2.798631476050831
2.8289345063538613
2.859237536656892
2.8856304985337244
2.906158357771261
2.921798631476051
2.9335288367546437
2.9423264907135875
2.948191593352884
2.952101661779081
2.9550342130987293
2.956989247311828
2.9550342130987293
2.951124144672532
2.949169110459433
2.948191593352884
2.946236559139785
2.9423264907135875
2.935483870967742
2.9257086999022484
2.913000977517106
2.897360703812317
2.87683284457478
2.852394916911046
2.822091886608016
2.789833822091887
2.7546432062561097
2.7116324535679373
2.662756598240469
2.6080156402737047
2.548387096774193
2.484848484848485
2.418377321603128
2.3499511241446727
2.2795698924731185
2.2082111436950145
2.1378299120234603
2.0762463343108504
2.018572825024438
1.95405669599218
1.8866080156402736
1.818181818181818
1.750733137829912
1.6852394916911049
1.6207233626588464
1.5591397849462365
1.500488758553275
1.444770283479961
1.3919843597262953
1.3421309872922775
1.3049853372434017
1.2756598240469208
1.2443792766373412
1.2150537634408602
1.1925708699902249
1.1779081133919844
1.1720430107526882
1.1759530791788857
1.1915933528836755
1.2189638318670577
1.2580645161290325
1.3069403714565004
1.3587487781036167
1.414467253176931
1.479960899315738
1.552297165200391
1.6285434995112416
1.70772238514174
1.7888563049853372
1.8699902248289344
1.9501466275659824
2.0283479960899315
2.104594330400782
2.1808406647116323
2.2551319648093844
2.3167155425219943
2.3714565004887587
2.43108504398827
2.4916911045943304
2.5513196480938416
2.606060606060606
2.654936461388074
2.696969696969697
2.7331378299120237
2.760508308895406
2.782013685239492
2.7976539589442817
2.806451612903226
2.8103616813294234
2.814271749755621
2.8181818181818183
2.823069403714565
2.8269794721407626
2.83088954056696
2.833822091886608
2.834799608993157
2.832844574780059
2.8289345063538613
2.8211143695014664
2.809384164222874
2.793743890518084
2.7751710654936463
2.752688172043011
2.7253176930596283
2.6940371456500487
2.656891495601173
2.6158357771261
2.56891495601173
2.5161290322580645
2.458455522971652
2.3958944281524928
2.3304007820136854
2.270772238514174
2.2130987292277613
2.147605083088954
2.078201368523949
2.006842619745845
1.935483870967742
1.8631476050830889
1.7917888563049853
1.7096774193548387
1.6217008797653958
1.5405669599217986
1.4652981427174976
1.393939393939394
1.3372434017595307
1.289345063538612
1.2355816226783969
1.1808406647116323
1.1280547409579669
1.078201368523949
1.032258064516129
0.9921798631476052
0.9579667644183774
0.9315738025415444
0.913978494623656
0.906158357771261
0.9120234604105572
0.9286412512218964
0.95405669599218
0.989247311827957
1.0361681329423265
1.093841642228739
1.1593352883675463
1.2316715542521994
1.3088954056695992
1.3900293255131966
1.474095796676442
1.5591397849462365
1.6441837732160314
1.7204301075268815
1.790811339198436
1.8670576735092863
1.945259042033236
2.022482893450636
2.0987292277614857
2.172043010752688
2.242424242424242
2.3098729227761488
2.3734115347018574
2.43108504398827
2.482893450635386
2.52297165200391
2.5542521994134897
2.58455522971652
2.611925708699902
2.636363636363636
2.6559139784946235
2.6725317693059627
2.6881720430107525
2.701857282502444
2.7145650048875853
2.7253176930596283
2.735092864125122
2.742913000977517
2.744868035190616
2.7438905180840663
2.742913000977517
2.739980449657869
2.7341153470185726
2.7253176930596283
2.7145650048875853
2.697947214076246
2.67644183773216
2.650048875855328
2.6177908113391983
2.578690127077224
2.5386119257087
2.4975562072336266
2.4486803519061584
2.393939393939394
2.335288367546432
2.2737047898338223
2.210166177908113
2.146627565982405
2.0821114369501466
2.0175953079178885
1.9530791788856303
1.8905180840664717
1.828934506353861
1.7781036168132942
1.7331378299120237
1.6823069403714566
1.629521016617791
1.576735092864125
1.525904203323558
1.478005865102639
1.4320625610948192
1.3900293255131966
1.3519061583577712
1.3186705767350928
1.2913000977517106
1.2746823069403714
1.2658846529814272
1.2609970674486803
1.262952101661779
1.2727272727272727
1.29227761485826
1.3235581622678396
1.3665689149560116
1.4203323558162269
1.4838709677419355
1.555229716520039
1.6334310850439884
1.7165200391006843
1.7927663734115349
1.866080156402737
1.9472140762463344
2.032258064516129
2.117302052785924
2.201368523949169
2.283479960899316
2.364613880742913
2.443792766373412
2.520039100684262
2.592375366568915
2.66177908113392
2.717497556207233
2.764418377321604
2.814271749755621
2.860215053763441
2.902248289345064
2.9374389051808407
2.9657869012707723
2.9872922776148583
