ppg
1.4731182795698925
1.651026392961877
1.828934506353861
2.006842619745845
2.1818181818181817
2.3499511241446727
2.505376344086021
2.644183773216031
2.7468230694037143
2.823069403714565
2.8905180840664717
2.941348973607038
2.972629521016618
2.983382209188661
2.9745845552297165
2.948191593352884
2.906158357771261
2.850439882697948
2.782991202346041
2.7038123167155423
2.624633431085044
2.5434995112414467
2.450635386119257
2.3499511241446727
2.244379276637341
2.1358748778103616
2.0254154447702835
1.9159335288367547
1.8084066471163245
1.704789833822092
1.606060606060606
1.5131964809384164
1.4281524926686218
1.3607038123167154
1.3049853372434017
1.2512218963831867
1.203323558162268
1.1622678396871946
1.130987292277615
1.1094819159335287
1.096774193548387
1.0928641251221896
1.096774193548387
1.1065493646138806
1.1221896383186705
1.1397849462365592
1.1593352883675463
1.181818181818182
1.2052785923753666
1.227761485826002
1.2502443792766371
1.2717497556207231
1.29227761485826
1.3098729227761483
1.324535679374389
1.3362658846529814
1.3450635386119256
1.3499511241446724
1.3548387096774193
1.3577712609970674
1.3577712609970674
1.3548387096774193
1.3499511241446724
1.3421309872922775
1.332355816226784
1.3206256109481915
1.3069403714565004
1.29227761485826
1.2766373411534702
1.2609970674486803
1.2482893450635386
1.2365591397849462
1.2218963831867058
1.2052785923753666
1.187683284457478
1.1700879765395895
1.1544477028347997
1.142717497556207
1.1378299120234605
1.144672531769306
1.1671554252199414
1.2082111436950147
1.2717497556207231
1.3440860215053765
1.4301075268817205
1.547409579667644
1.689149560117302
1.8494623655913975
2.0205278592375366
2.1945259042033234
2.366568914956012
2.5288367546432062
2.675464320625611
2.8044965786901277
2.911045943304008
2.983382209188661
3.0303030303030303
3.0664711632453567
3.0869990224828934
3.089931573802541
3.075268817204301
3.0439882697947214
2.9980449657869013
2.9393939393939394
2.8699902248289346
2.790811339198436
2.704789833822092
2.6129032258064515
2.5249266862170088
2.4389051808406648
2.343108504398827
2.2404692082111435
2.134897360703812
2.0283479960899315
1.9227761485826005
1.8201368523949168
1.721407624633431
1.6275659824046922
1.5405669599217986
1.4613880742913
1.3988269794721409
1.3479960899315735
1.2981427174975562
1.2541544477028348
1.2179863147605083
1.1915933528836755
1.1730205278592376
1.163245356793744
1.1612903225806452
1.166177908113392
1.1759530791788857
1.1906158357771262
1.2082111436950147
1.227761485826002
1.24633431085044
1.2668621700879763
1.2864125122189638
1.3049853372434017
1.321603128054741
1.3372434017595307
1.3509286412512218
1.3626588465298142
1.3714565004887584
1.3773216031280548
1.3792766373411536
1.380254154447703
1.380254154447703
1.3763440860215057
1.3695014662756595
1.3607038123167154
1.3499511241446724
1.3362658846529814
1.321603128054741
1.305962854349951
1.289345063538612
1.2727272727272727
1.2561094819159335
1.2375366568914956
1.2218963831867058
1.209188660801564
1.1945259042033236
1.1808406647116323
1.1720430107526882
1.1730205278592376
1.187683284457478
1.2209188660801564
1.2766373411534702
1.3577712609970674
1.4633431085043989
1.5933528836754642
1.7204301075268815
1.8494623655913975
2.003910068426197
2.1700879765395893
2.3391984359726297
2.501466275659824
2.6510263929618767
2.7839687194525906
2.8963831867057674
2.986314760508309
3.0527859237536656
3.096774193548387
3.1192570869990224
3.1192570869990224
3.102639296187683
3.074291300097752
3.0332355816226784
2.981427174975562
2.919843597262952
2.849462365591398
2.7722385141739982
2.6881720430107525
2.598240469208211
2.5034213098729228
2.4056695992179864
2.314760508308896
2.2277614858260018
2.131964809384164
2.032258064516129
1.932551319648094
1.833822091886608
1.7390029325513197
1.6490713587487782
1.5650048875855327
1.487781036168133
1.418377321603128
1.356793743890518
1.3098729227761483
1.273704789833822
1.2404692082111437
1.2130987292277615
1.1935483870967742
1.1808406647116323
1.1759530791788857
1.176930596285435
1.1837732160312806
1.195503421309873
1.2111436950146628
1.2287390029325511
1.2482893450635386
1.2668621700879763
1.284457478005865
1.3020527859237536
1.3176930596285434
1.3313782991202343
1.343108504398827
1.3519061583577712
1.3577712609970674
1.3616813294232648
1.3626588465298142
1.3616813294232648
1.3577712609970674
1.3548387096774193
1.3499511241446724
1.3411534701857282
1.3294232649071358
1.316715542521994
1.3020527859237536
1.2864125122189638
1.270772238514174
1.2541544477028348
1.2365591397849462
1.2179863147605083
1.198435972629521
1.1798631476050832
1.1671554252199414
1.160312805474096
1.1573802541544478
1.163245356793744
1.1827956989247312
1.2209188660801564
1.281524926686217
1.3665689149560116
1.4760508308895406
1.607038123167155
1.7282502443792769
1.8484848484848484
1.9716520039100685
2.093841642228739
2.236559139784946
2.3822091886608017
2.5210166177908118
2.6451612903225805
2.750733137829912
2.835777126099707
2.900293255131965
2.943304007820137
2.964809384164223
2.967741935483871
2.952101661779081
2.921798631476051
2.8807429130009776
2.83088954056696
2.7722385141739982
2.705767350928641
2.632453567937439
2.5542521994134897
2.469208211143695
2.3792766373411536
2.2854349951124147
2.188660801564027
2.090909090909091
2.003910068426197
1.921798631476051
1.8328445747800584
1.7419354838709675
1.6520039100684265
1.5650048875855327
1.482893450635386
1.4066471163245358
1.3372434017595307
1.2756598240469208
1.2218963831867058
1.176930596285435
1.1407624633431086
1.1163245356793745
1.1016617790811338
1.0899315738025417
1.0840664711632453
1.083088954056696
1.0879765395894427
1.096774193548387
1.1085043988269794
1.1231671554252198
1.13880742913001
1.155425219941349
1.1710654936461389
1.1857282502443791
1.198435972629521
1.2101661779081134
1.2209188660801564
1.2287390029325511
1.2346041055718475
1.2375366568914956
1.2375366568914956
1.2346041055718475
1.2297165200391007
1.2238514173998043
1.2160312805474096
1.2072336265884651
1.1994134897360704
1.1915933528836755
1.181818181818182
1.1710654936461389
1.1583577712609971
1.1436950146627567
1.1280547409579669
1.1114369501466277
1.0957966764418376
1.0801564027370478
1.064516129032258
1.0488758553274682
1.0371456500488758
1.0283479960899315
1.018572825024438
1.0117302052785924
1.0117302052785924
1.0224828934506354
1.0488758553274682
1.093841642228739
1.1612903225806452
1.2541544477028348
1.3695014662756595
1.5073313782991202
1.6627565982404693
1.8054740957966764
1.9423264907135875
2.0987292277614857
2.259042033235582
2.4144672531769307
2.557184750733138
2.6832844574780057
2.788856304985337
2.870967741935484
2.930596285434995
2.9687194525904204
2.9872922776148583
2.98435972629521
2.9667644183773216
2.9374389051808407
2.897360703812317
2.84652981427175
2.7869012707722387
2.718475073313783
2.6422287390029324
2.5610948191593352
2.4750733137829912
2.3851417399804498
2.29227761485826
2.196480938416422
2.1094819159335287
2.026392961876833
1.9364613880742916
1.842619745845552
1.7487781036168133
1.6578690127077225
1.5698924731182795
1.4868035190615836
1.409579667644184
1.3391984359726294
1.2766373411534702
1.2228739002932552
1.1827956989247312
1.152492668621701
1.1241446725317692
1.1016617790811338
1.0869990224828934
1.0801564027370478
1.0791788856304985
1.083088954056696
1.0918866080156402
1.104594330400782
1.1192570869990224
1.133919843597263
1.1485826001955035
1.163245356793744
1.176930596285435
1.1906158357771262
1.203323558162268
1.2140762463343109
1.2228739002932552
1.2287390029325511
1.2316715542521994
1.2326490713587488
1.2297165200391007
1.224828934506354
1.217008797653959
1.209188660801564
1.2013685239491692
1.1906158357771262
1.176930596285435
1.163245356793744
1.1485826001955035
1.133919843597263
1.118279569892473
1.1026392961876832
1.0869990224828934
1.072336265884653
1.0576735092864125
1.0439882697947214
1.0342130987292275
1.0273704789833822
1.018572825024438
1.0097751710654936
1.0
0.9912023460410556
0.9833822091886608
0.9765395894428152
0.9687194525904204
0.9618768328445748
0.95405669599218
0.946236559139785
0.9413489736070382
0.9393939393939394
0.9374389051808406
0.93841642228739
0.9452590420332356
0.9628543499511242
0.9951124144672532
1.0469208211143697
1.121212121212121
1.2189638318670577
1.3421309872922775
1.4868035190615836
1.6265884652981428
1.7663734115347018
1.9305962854349952
2.1055718475073317
2.280547409579668
2.447702834799609
2.601173020527859
2.735092864125122
2.84652981427175
2.935483870967742
3.0
3.042033235581622
3.06158357771261
3.059628543499511
3.040078201368524
3.010752688172043
2.9696969696969697
2.917888563049853
2.8563049853372435
2.7859237536656893
2.7096774193548385
2.627565982404692
2.5405669599217986
2.449657869012708
2.355816226783969
2.2688172043010755
2.1847507331378297
2.0928641251221896
1.9960899315738023
1.8993157380254155
1.8035190615835777
1.7096774193548387
1.619745845552297
1.5347018572825024
1.4545454545454546
1.3822091886608017
1.3176930596285434
1.2609970674486803
1.2179863147605083
1.18475073313783
1.1544477028347997
1.1300097751710656
1.1124144672531768
1.1026392961876832
1.099706744868035
1.1026392961876832
1.110459433040078
1.121212121212121
1.133919843597263
1.1485826001955035
1.163245356793744
1.176930596285435
1.1906158357771262
1.2043010752688172
1.217008797653959
1.227761485826002
1.2355816226783969
1.2404692082111437
1.241446725317693
1.2394916911045943
1.2365591397849462
1.2316715542521994
1.2258064516129032
1.219941348973607
1.2140762463343109
1.203323558162268
1.1906158357771262
1.1896383186705768
1.1935483870967742
1.187683284457478
1.176930596285435
1.163245356793744
1.1495601173020529
1.1348973607038124
1.121212121212121
1.110459433040078
1.1016617790811338
1.0899315738025417
1.078201368523949
1.0664711632453567
1.0547409579667644
1.0439882697947214
1.0342130987292275
1.0263929618768328
1.018572825024438
1.0117302052785924
1.0068426197458455
1.0019550342130987
1.0009775171065494
1.0019550342130987
1.0019550342130987
1.0009775171065494
1.0
0.9980449657869012
0.9960899315738024
0.9941348973607038
0.9912023460410556
0.9882697947214076
0.9853372434017597
0.9833822091886608
0.9843597262952102
0.989247311827957
0.997067448680352
1.010752688172043
1.0361681329423265
1.078201368523949
1.1407624633431086
1.2258064516129032
1.3343108504398826
1.4643206256109482
1.6129032258064515
1.775171065493646
1.946236559139785
2.0957966764418376
2.23069403714565
2.376344086021505
2.5190615835777126
2.649071358748778
2.7614858260019552
2.8533724340175954
2.9237536656891496
2.972629521016618
3.0
3.007820136852395
2.9980449657869013
2.973607038123167
2.9374389051808407
2.8914956011730206
2.8367546432062563
2.773216031280548
2.7038123167155423
2.6285434995112413
2.548387096774193
2.464320625610948
2.378299120234604
2.289345063538612
2.198435972629521
2.1055718475073317
2.022482893450636
1.945259042033236
1.8621700879765395
1.7771260997067448
1.694037145650049
1.6148582600195502
1.5395894428152492
1.469208211143695
1.4056695992179864
1.3499511241446724
1.3010752688172045
1.2609970674486803
1.2326490713587488
1.2130987292277615
1.1974584555229717
1.1867057673509287
1.181818181818182
1.1808406647116323
1.1837732160312806
1.1906158357771262
1.2003910068426198
1.2121212121212122
1.224828934506354
1.238514173998045
1.252199413489736
1.2649071358748778
1.2766373411534702
1.2873900293255132
1.295210166177908
1.3010752688172045
1.3049853372434017
1.305962854349951
1.3049853372434017
1.3020527859237536
1.2971652003910068
1.2903225806451613
1.281524926686217
1.273704789833822
1.2658846529814272
1.2541544477028348
1.241446725317693
1.227761485826002
1.2130987292277615
1.1974584555229717
1.181818181818182
1.166177908113392
1.1505376344086022
1.1358748778103618
1.121212121212121
1.1065493646138806
1.0957966764418376
1.0869990224828934
1.0772238514173995
1.0684261974584557
1.0596285434995112
1.050830889540567
1.0439882697947214
1.0381231671554252
1.0332355816226784
1.0283479960899315
1.024437927663734
1.021505376344086
1.021505376344086
1.0234604105571847
1.0234604105571847
1.0224828934506354
1.021505376344086
1.0195503421309873
1.018572825024438
1.0166177908113392
1.0156402737047898
1.013685239491691
1.0127077223851415
1.013685239491691
1.0205278592375366
1.0332355816226784
1.0547409579667644
1.0909090909090908
1.144672531769306
1.2179863147605083
1.3147605083088951
1.4330400782013686
1.5708699902248289
1.7243401759530792
1.8885630498533723
2.0576735092864125
2.2248289345063537
2.363636363636364
2.4809384164222874
2.6021505376344085
2.713587487781036
2.809384164222874
2.886608015640274
2.943304007820137
2.978494623655914
2.9931573802541545
2.9902248289345064
2.972629521016618
2.941348973607038
2.9012707722385143
2.8533724340175954
2.7966764418377323
2.732160312805474
2.66177908113392
2.5865102639296187
2.50733137829912
2.4252199413489737
2.3411534701857284
2.254154447702835
2.1652003910068425
2.0762463343108504
1.9872922776148585
1.9090909090909087
1.8377321603128052
1.7624633431085044
1.686217008797654
1.6129032258064515
1.544477028347996
1.4809384164222874
1.4242424242424243
1.3763440860215057
1.3362658846529814
1.3040078201368523
1.2795698924731185
1.2639296187683284
1.2551319648093842
1.2502443792766371
1.2502443792766371
1.2551319648093842
1.2639296187683284
1.2756598240469208
1.289345063538612
1.3049853372434017
1.3206256109481915
1.335288367546432
1.348973607038123
1.3607038123167154
1.370478983382209
1.3773216031280548
1.3812316715542523
1.383186705767351
1.383186705767351
1.380254154447703
1.375366568914956
1.3685239491691104
1.359726295210166
1.348973607038123
1.3372434017595307
1.324535679374389
1.313782991202346
1.3040078201368523
1.29227761485826
1.278592375366569
1.2639296187683284
1.249266862170088
1.2346041055718475
1.2189638318670577
1.203323558162268
1.1896383186705768
1.176930596285435
1.1652003910068427
1.1544477028347997
1.147605083088954
1.142717497556207
1.1368523949169111
1.130987292277615
1.1241446725317692
1.118279569892473
1.1133919843597262
1.1085043988269794
1.1036168132942326
1.0987292277614855
1.093841642228739
1.0899315738025417
1.0879765395894427
1.0869990224828934
1.0840664711632453
1.0811339198435972
1.0791788856304985
1.0821114369501466
1.0928641251221896
1.115347018572825
1.1534701857282503
1.2111436950146628
1.289345063538612
1.391006842619746
1.512218963831867
1.6275659824046922
1.7438905180840665
1.8826979472140764
2.03128054740958
2.1818181818181817
2.3274682306940373
2.462365591397849
2.582600195503421
2.6832844574780057
2.764418377321604
2.8240469208211145
2.8641251221896384
2.8807429130009776
2.8797653958944283
2.8690127077223853
2.8455522971652005
2.811339198435973
2.7673509286412514
2.713587487781036
2.6529814271749754
2.5865102639296187
2.515151515151515
2.4389051808406648
2.358748778103617
2.275659824046921
2.19941348973607
2.1251221896383186
2.0439882697947214
1.9589442815249267
1.8729227761485825
1.7878787878787878
1.7057673509286413
1.6265884652981428
1.5513196480938416
1.4809384164222874
1.4173998044965788
1.359726295210166
1.3147605083088951
1.278592375366569
1.2443792766373412
1.2150537634408602
1.1925708699902249
1.1759530791788857
1.1652003910068427
1.160312805474096
1.160312805474096
1.164222873900293
1.1720430107526882
1.181818181818182
1.1935483870967742
1.2052785923753666
1.2179863147605083
1.23069403714565
1.241446725317693
1.2512218963831867
1.260019550342131
1.2668621700879763
1.2717497556207231
1.2746823069403714
1.2756598240469208
1.2746823069403714
1.2717497556207231
1.2697947214076246
1.267839687194526
1.2619745845552297
1.2541544477028348
1.2443792766373412
1.2336265884652982
1.2209188660801564
1.2082111436950147
1.195503421309873
1.181818181818182
1.1681329423264908
1.155425219941349
1.142717497556207
1.133919843597263
1.1270772238514175
1.1173020527859236
1.1065493646138806
1.096774193548387
1.0869990224828934
1.078201368523949
1.0684261974584557
1.0596285434995112
1.0518084066471165
1.0449657869012707
1.0381231671554252
1.035190615835777
1.0332355816226784
1.029325513196481
1.024437927663734
1.018572825024438
1.0127077223851415
1.007820136852395
1.0039100684261977
1.0019550342130987
1.0039100684261977
1.0127077223851415
1.0312805474095796
1.0635386119257086
1.104594330400782
1.1583577712609971
1.2355816226783969
1.3343108504398826
1.4545454545454546
1.5913978494623655
1.7409579667644184
1.8973607038123168
2.0557184750733137
2.207233626588465
2.347996089931574
2.474095796676442
2.567937438905181
2.638318670576735
2.702834799608993
2.7536656891495603
2.7869012707722387
2.8025415444770285
2.80058651026393
2.782991202346041
2.7517106549364616
2.70772238514174
2.653958944281525
2.591397849462365
2.527859237536657
2.463343108504399
2.3900293255131966
2.310850439882698
2.2267839687194524
2.1388074291300097
2.048875855327468
1.9560117302052784
1.8631476050830889
1.7712609970674489
1.6823069403714566
1.5972629521016617
1.517106549364614
1.4506353861192571
1.393939393939394
1.335288367546432
1.278592375366569
1.227761485826002
1.1837732160312806
1.1485826001955035
1.1202346041055715
1.099706744868035
1.086021505376344
1.078201368523949
1.0772238514173995
1.0821114369501466
1.0909090909090908
1.1026392961876832
1.1163245356793745
1.1319648093841643
1.147605083088954
1.163245356793744
1.1779081133919844
1.1925708699902249
1.206256109481916
1.2189638318670577
1.2297165200391007
1.238514173998045
1.2453567937438903
1.2502443792766371
1.252199413489736
1.2512218963831867
1.2473118279569892
1.2424242424242424
1.2346041055718475
1.2258064516129032
1.2160312805474096
1.2052785923753666
1.1935483870967742
1.181818181818182
1.1730205278592376
1.1652003910068427
1.155425219941349
1.1436950146627567
1.130987292277615
1.118279569892473
1.1065493646138806
1.0957966764418376
1.0850439882697946
1.0742913000977516
1.064516129032258
1.0547409579667644
1.04594330400782
1.040078201368524
1.0361681329423265
1.029325513196481
1.021505376344086
1.0127077223851415
1.0039100684261977
0.9951124144672532
0.9882697947214076
0.9824046920821116
0.9804496578690128
0.9843597262952102
0.9990224828934506
1.0224828934506354
1.056695992179863
1.110459433040078
1.1857282502443791
1.2805474095796676
1.3949169110459434
1.5249266862170088
1.667644183773216
1.8172043010752688
1.967741935483871
2.113391984359726
2.2482893450635384
2.3685239491691106
2.458455522971652
2.5268817204301075
2.5884652981427174
2.636363636363636
2.6666666666666665
2.679374389051808
2.674486803519061
2.653958944281525
2.619745845552297
2.573802541544477
2.5161290322580645
2.449657869012708
2.3822091886608017
2.313782991202346
2.2346041055718477
2.1485826001955037
2.058651026392962
1.9657869012707725
1.8699902248289344
1.775171065493646
1.6813294232649072
1.5913978494623655
1.5063538611925709
1.426197458455523
1.3528836754643203
1.2942326490713587
1.24633431085044
1.1994134897360704
1.1564027370478984
1.118279569892473
1.0879765395894427
1.0654936461388074
1.0518084066471165
1.04594330400782
1.0469208211143697
1.053763440860215
1.064516129032258
1.0791788856304985
1.0957966764418376
1.1143695014662756
1.133919843597263
1.152492668621701
1.1788856304985338
1.209188660801564
1.2326490713587488
1.252199413489736
1.267839687194526
1.2795698924731185
1.2883675464320623
1.295210166177908
1.300097751710655
1.303030303030303
1.303030303030303
1.300097751710655
1.2942326490713587
1.2864125122189638
1.278592375366569
1.270772238514174
1.2609970674486803
1.2512218963831867
1.2404692082111437
1.23069403714565
1.2238514173998043
1.217008797653959
1.2072336265884651
1.1964809384164223
1.18475073313783
1.173998044965787
1.1622678396871946
1.1495601173020529
1.1368523949169111
1.1241446725317692
1.1114369501466277
1.0987292277614855
1.0879765395894427
1.0811339198435972
1.078201368523949
1.078201368523949
1.0840664711632453
1.1006842619745845
1.1319648093841643
1.181818181818182
1.2531769305962854
1.3470185728250244
1.4623655913978495
1.595307917888563
1.7429130009775171
1.8758553274682308
2.0009775171065494
2.1407624633431084
2.281524926686217
2.4144672531769307
2.533724340175953
2.635386119257087
2.716520039100684
2.777126099706745
2.817204301075269
2.8377321603128056
2.8396871945259043
2.825024437927664
2.7976539589442817
2.758553274682307
2.708699902248289
2.649071358748778
2.5806451612903225
2.504398826979472
2.421309872922776
2.334310850439883
2.242424242424242
2.1485826001955037
2.0527859237536656
1.9560117302052784
1.870967741935484
1.7927663734115349
1.7086999022482894
1.6236559139784943
1.541544477028348
1.4643206256109482
1.3919843597262953
1.327468230694037
1.270772238514174
1.2228739002932552
1.1827956989247312
1.1515151515151516
1.1280547409579669
1.115347018572825
1.110459433040078
1.1094819159335287
1.1133919843597262
1.1221896383186705
1.1348973607038124
1.1505376344086022
1.1681329423264908
1.1867057673509287
1.2052785923753666
1.2228739002932552
1.2404692082111437
1.2561094819159335
1.2697947214076246
1.2834799608993157
1.295210166177908
1.3040078201368523
1.310850439882698
1.3157380254154447
1.3176930596285434
1.316715542521994
1.313782991202346
1.3098729227761483
1.3040078201368523
1.2981427174975562
1.29227761485826
1.284457478005865
1.273704789833822
1.2619745845552297
1.249266862170088
1.2355816226783969
1.2218963831867058
1.2082111436950147
1.1935483870967742
1.1788856304985338
1.164222873900293
1.1505376344086022
1.1407624633431086
1.1329423264907137
1.1241446725317692
1.1192570869990224
1.121212121212121
1.1348973607038124
1.1652003910068427
1.2150537634408602
1.2864125122189638
1.380254154447703
1.4946236559139785
1.6265884652981428
1.750733137829912
1.8729227761485825
2.0146627565982405
2.163245356793744
2.3088954056695994
2.444770283479961
2.5669599217986314
2.6715542521994133
2.7565982404692084
2.8211143695014664
2.8670576735092865
2.89247311827957
2.900293255131965
2.8914956011730206
2.868035190615836
2.833822091886608
2.788856304985337
2.7341153470185726
2.6715542521994133
2.6021505376344085
2.5268817204301075
2.4457478005865103
2.3597262952101663
2.269794721407625
2.177908113391984
2.0948191593352883
2.016617790811339
1.9305962854349952
1.842619745845552
1.7556207233626588
1.6715542521994136
1.5923753665689149
1.5190615835777126
1.4516129032258065
1.3919843597262953
1.3411534701857282
1.2991202346041055
1.2658846529814272
1.2453567937438903
1.2326490713587488
1.2238514173998043
1.219941348973607
1.2218963831867058
1.227761485826002
1.2375366568914956
1.2512218963831867
1.2668621700879763
1.2834799608993157
1.3010752688172045
1.3176930596285434
1.332355816226784
1.346041055718475
1.359726295210166
1.3714565004887584
1.3812316715542523
1.3890518084066472
1.3958944281524928
1.3998044965786902
1.4007820136852396
1.3998044965786902
1.396871945259042
1.3919843597262953
1.3841642228739004
1.3773216031280548
1.3714565004887584
1.3616813294232648
1.3509286412512218
1.33822091886608
1.324535679374389
1.3088954056695992
1.29227761485826
1.2756598240469208
1.260019550342131
1.24633431085044
1.2375366568914956
1.2355816226783969
1.2424242424242424
1.2609970674486803
1.295210166177908
1.3479960899315735
1.4213098729227762
1.5161290322580645
1.629521016617791
1.758553274682307
1.900293255131965
2.048875855327468
2.1974584555229715
2.3421309872922778
2.4604105571847508
2.558162267839687
2.656891495601173
2.745845552297165
2.819159335288368
2.874877810361681
2.913000977517106
