ppg
1.3079178885630498
1.4301075268817205
1.5708699902248289
1.7243401759530792
1.8836754643206255
2.040078201368524
2.188660801564027
2.32355816226784
2.442815249266862
2.532746823069404
2.601173020527859
2.667644183773216
2.7282502443792764
2.7810361681329425
2.827956989247312
2.868035190615836
2.903225806451613
2.932551319648094
2.956011730205278
2.973607038123167
2.98435972629521
2.986314760508309
2.9765395894428157
2.956989247311828
2.929618768328446
2.8914956011730206
2.843597262952102
2.7839687194525906
2.7155425219941347
2.6392961876832843
2.5591397849462365
2.4780058651026398
2.3978494623655915
2.3225806451612905
2.2580645161290325
2.203323558162268
2.150537634408602
2.102639296187683
2.058651026392962
2.0195503421309877
1.9833822091886608
1.949169110459433
1.9159335288367547
1.8826979472140764
1.8494623655913975
1.8162267839687196
1.782991202346041
1.75366568914956
1.726295210166178
1.696969696969697
1.6666666666666667
1.635386119257087
1.6041055718475072
1.573802541544477
1.543499511241447
1.5131964809384164
1.4838709677419355
1.455522971652004
1.4291300097751711
1.4076246334310851
1.388074291300098
1.3665689149560116
1.343108504398827
1.3186705767350928
1.2942326490713587
1.2697947214076246
1.2453567937438903
1.2218963831867058
1.198435972629521
1.1759530791788857
1.1544477028347997
1.1329423264907137
1.1173020527859236
1.1055718475073313
1.0918866080156402
1.078201368523949
1.0664711632453567
1.056695992179863
1.0498533724340176
1.0449657869012707
1.0439882697947214
1.04594330400782
1.0498533724340176
1.0557184750733135
1.0635386119257086
1.0733137829912025
1.0840664711632453
1.093841642228739
1.1036168132942326
1.1124144672531768
1.118279569892473
1.1221896383186705
1.1241446725317692
1.1231671554252198
1.1202346041055715
1.115347018572825
1.1085043988269794
1.1036168132942326
1.0987292277614855
1.088954056695992
1.0772238514173995
1.064516129032258
1.050830889540567
1.0361681329423265
1.021505376344086
1.007820136852395
0.9951124144672532
0.9843597262952102
0.9745845552297164
0.9696969696969696
0.9687194525904204
0.967741935483871
0.9696969696969696
0.9794721407624634
1.0009775171065494
1.0391006842619743
1.099706744868035
1.18475073313783
1.2961876832844574
1.43108504398827
1.58455522971652
1.7497556207233629
1.8973607038123168
2.03128054740958
2.174975562072336
2.314760508308896
2.442815249266862
2.5532746823069403
2.64613880742913
2.7223851417399803
2.7839687194525906
2.832844574780059
2.870967741935484
2.900293255131965
2.916911045943304
2.924731182795699
2.9335288367546437
2.940371456500489
2.9423264907135875
2.9393939393939394
2.929618768328446
2.9120234604105573
2.884652981427175
2.8484848484848486
2.8025415444770285
2.747800586510264
2.6852394916911044
2.621700879765396
2.558162267839687
2.4887585532746823
2.4173998044965788
2.3489736070381237
2.2844574780058653
2.225806451612903
2.174975562072336
2.131964809384164
2.0948191593352883
2.06158357771261
2.03128054740958
2.004887585532747
1.9794721407624636
1.951124144672532
1.920821114369501
1.8885630498533723
1.8543499511241448
1.818181818181818
1.7810361681329423
1.7438905180840665
1.7057673509286413
1.667644183773216
1.6304985337243405
1.5943304007820136
1.564027370478983
1.5376344086021505
1.5083088954056696
1.478983382209189
1.4496578690127078
1.4213098729227762
1.3949169110459434
1.3695014662756595
1.3450635386119256
1.3225806451612905
1.3020527859237536
1.2825024437927663
1.267839687194526
1.2551319648093842
1.241446725317693
1.2267839687194526
1.2130987292277615
1.2003910068426198
1.187683284457478
1.1759530791788857
1.1652003910068427
1.1544477028347997
1.144672531769306
1.1348973607038124
1.126099706744868
1.1202346041055715
1.1163245356793745
1.1094819159335287
1.1016617790811338
1.093841642228739
1.086021505376344
1.078201368523949
1.0703812316715542
1.0635386119257086
1.0576735092864125
1.0527859237536656
1.0478983382209188
1.04594330400782
1.0469208211143697
1.0449657869012707
1.0420332355816226
1.040078201368524
1.0381231671554252
1.035190615835777
1.0332355816226784
1.0312805474095796
1.0303030303030305
1.029325513196481
1.029325513196481
1.029325513196481
1.0312805474095796
1.035190615835777
1.0381231671554252
1.0410557184750733
1.043010752688172
1.0439882697947214
1.0449657869012707
1.04594330400782
1.0478983382209188
1.0527859237536656
1.0625610948191593
1.083088954056696
1.1114369501466277
1.152492668621701
1.217008797653959
1.3069403714565004
1.4213098729227762
1.5571847507331378
1.70772238514174
1.866080156402737
2.0254154447702835
2.177908113391984
2.317693059628544
2.442815249266862
2.5376344086021505
2.610948191593353
2.6832844574780057
2.748778103616813
2.8054740957966766
2.855327468230694
2.8993157380254155
2.9374389051808407
2.970674486803519
2.99902248289345
3.021505376344086
3.038123167155425
3.046920821114369
3.0449657869012707
3.0332355816226784
3.01564027370479
2.9902248289345064
2.9550342130987293
2.9100684261974585
2.854349951124145
2.789833822091887
2.717497556207233
2.6392961876832843
2.558162267839687
2.47702834799609
2.404692082111437
2.340175953079179
2.2766373411534704
2.217986314760508
2.166177908113392
2.120234604105572
2.0791788856304985
2.042033235581622
2.006842619745845
1.9726295210166176
1.93841642228739
1.903225806451613
1.8670576735092863
1.833822091886608
1.8025415444770283
1.7673509286412512
1.7302052785923754
1.6920821114369502
1.653958944281525
1.6158357771260996
1.5777126099706744
1.541544477028348
1.5063538611925709
1.4721407624633431
1.4408602150537635
1.41544477028348
1.3949169110459434
1.3724340175953078
1.348973607038123
1.3264907135874875
1.3049853372434017
1.2854349951124144
1.2658846529814272
1.2473118279569892
1.2297165200391007
1.2130987292277615
1.1964809384164223
1.1808406647116323
1.1691104594330402
1.160312805474096
1.1495601173020529
1.1378299120234605
1.126099706744868
1.1143695014662756
1.1026392961876832
1.0918866080156402
1.0811339198435972
1.0713587487781036
1.0625610948191593
1.0625610948191593
1.0713587487781036
1.075268817204301
1.0733137829912025
1.0694037145650048
1.064516129032258
1.0586510263929618
1.0527859237536656
1.0478983382209188
1.043010752688172
1.0391006842619743
1.035190615835777
1.0312805474095796
1.0283479960899315
1.029325513196481
1.0312805474095796
1.0312805474095796
1.0312805474095796
1.0303030303030305
1.0303030303030305
1.0303030303030305
1.0303030303030305
1.0312805474095796
1.032258064516129
1.0332355816226784
1.0342130987292275
1.0381231671554252
1.043010752688172
1.04594330400782
1.0488758553274682
1.0518084066471165
1.0586510263929618
1.0733137829912025
1.099706744868035
1.1436950146627567
1.2082111436950147
1.2961876832844574
1.4066471163245358
1.5356793743890518
1.6578690127077225
1.7771260997067448
1.9130009775171064
2.0518084066471163
2.1837732160312804
2.304007820136853
2.409579667644184
2.5004887585532747
2.576735092864125
2.641251221896383
2.695014662756598
2.739980449657869
2.7702834799608995
2.791788856304985
2.81622678396872
2.838709677419355
2.857282502443793
2.870967741935484
2.8797653958944283
2.8807429130009776
2.8729227761485827
2.855327468230694
2.827956989247312
2.789833822091887
2.740957966764418
2.687194525904203
2.6295210166177907
2.563049853372434
2.4916911045943304
2.420332355816227
2.350928641251222
2.2854349951124147
2.2248289345063537
2.1710654936461387
2.12316715542522
2.081133919843597
2.043010752688172
2.0097751710654936
1.9794721407624636
1.948191593352884
1.916911045943304
1.884652981427175
1.8514173998044965
1.8172043010752688
1.7820136852394917
1.7468230694037146
1.710654936461388
1.6744868035190617
1.6392961876832846
1.6050830889540566
1.5757575757575757
1.5493646138807429
1.521016617790811
1.4916911045943304
1.4623655913978495
1.4349951124144673
1.4086021505376345
1.3841642228739004
1.3607038123167154
1.3391984359726294
1.3196480938416422
1.300097751710655
1.2854349951124144
1.2727272727272727
1.2580645161290325
1.2434017595307918
1.2297165200391007
1.2160312805474096
1.203323558162268
1.1906158357771262
1.1788856304985338
1.1671554252199414
1.155425219941349
1.144672531769306
1.133919843597263
1.1270772238514175
1.1221896383186705
1.1143695014662756
1.1055718475073313
1.096774193548387
1.0879765395894427
1.0801564027370478
1.072336265884653
1.0654936461388074
1.0596285434995112
1.053763440860215
1.0498533724340176
1.0488758553274682
1.0488758553274682
1.0478983382209188
1.04594330400782
1.0439882697947214
1.0410557184750733
1.0381231671554252
1.0361681329423265
1.0342130987292275
1.032258064516129
1.0312805474095796
1.0303030303030305
1.032258064516129
1.0361681329423265
1.0381231671554252
1.040078201368524
1.0420332355816226
1.0439882697947214
1.04594330400782
1.0478983382209188
1.0488758553274682
1.0498533724340176
1.0518084066471165
1.0557184750733135
1.064516129032258
1.0801564027370478
1.1065493646138806
1.1505376344086022
1.2140762463343109
1.3010752688172045
1.4105571847507332
1.5386119257087
1.6813294232649072
1.8299120234604105
1.9775171065493649
2.118279569892473
2.24633431085044
2.345063538611926
2.423264907135875
2.4995112414467253
2.567937438905181
2.6265884652981426
2.67644183773216
2.719452590420332
2.755620723362659
2.7869012707722387
2.8132942326490715
2.834799608993157
2.849462365591398
2.8582600195503423
2.8563049853372435
2.8455522971652005
2.8299120234604107
2.806451612903226
2.774193548387097
2.7331378299120237
2.681329423264907
2.621700879765396
2.555229716520039
2.4858260019550342
2.4144672531769307
2.345063538611926
2.2844574780058653
2.231671554252199
2.1808406647116323
2.134897360703812
2.0928641251221896
2.0557184750733137
2.022482893450636
1.991202346041056
1.9618768328445748
1.9315738025415443
1.9012707722385145
1.869012707722385
1.835777126099707
1.8054740957966764
1.7761485826001957
1.7429130009775171
1.70772238514174
1.672531769305963
1.6383186705767352
1.6050830889540566
1.5728250244379276
1.541544477028348
1.512218963831867
1.4838709677419355
1.457478005865103
1.436950146627566
1.418377321603128
1.3978494623655917
1.3773216031280548
1.3577712609970674
1.3391984359726294
1.321603128054741
1.3049853372434017
1.2883675464320623
1.2727272727272727
1.2580645161290325
1.2434017595307918
1.2297165200391007
1.219941348973607
1.2130987292277615
1.2043010752688172
1.1945259042033236
1.1837732160312806
1.173998044965787
1.163245356793744
1.1534701857282503
1.1436950146627567
1.133919843597263
1.1251221896383188
1.1163245356793745
1.1114369501466277
1.1085043988269794
1.104594330400782
1.099706744868035
1.0948191593352885
1.0909090909090908
1.0869990224828934
1.0840664711632453
1.0821114369501466
1.0791788856304985
1.0762463343108504
1.0733137829912025
1.0713587487781036
1.0713587487781036
1.0742913000977516
1.075268817204301
1.0762463343108504
1.0762463343108504
1.0713587487781036
1.064516129032258
1.06158357771261
1.06158357771261
1.0625610948191593
1.0635386119257086
1.064516129032258
1.067448680351906
1.0703812316715542
1.0713587487781036
1.072336265884653
1.0742913000977516
1.0811339198435972
1.0977517106549364
1.1280547409579669
1.176930596285435
1.249266862170088
1.346041055718475
1.4672531769305963
1.6080156402737047
1.7409579667644184
1.869012707722385
2.0146627565982405
2.161290322580645
2.3010752688172045
2.429130009775171
2.5405669599217986
2.636363636363636
2.716520039100684
2.7839687194525906
2.8406647116324537
2.8885630498533725
2.919843597262952
2.9423264907135875
2.9667644183773216
2.989247311827957
3.0087976539589443
3.022482893450636
3.029325513196481
3.027370478983382
3.016617790811339
2.9960899315738025
2.963831867057673
2.919843597262952
2.8641251221896384
2.8054740957966766
2.742913000977517
2.6715542521994133
2.595307917888563
2.5180840664711632
2.442815249266862
2.372434017595308
2.30791788856305
2.251221896383187
2.20039100684262
2.156402737047898
2.1163245356793743
2.081133919843597
2.0498533724340176
2.0175953079178885
1.9833822091886608
1.949169110459433
1.9130009775171064
1.8758553274682308
1.8377321603128052
1.7996089931573802
1.761485826001955
1.7233626588465298
1.6852394916911049
1.6480938416422288
1.6158357771260996
1.587487781036168
1.5581622678396871
1.5278592375366569
1.4975562072336266
1.4682306940371457
1.4408602150537635
1.41544477028348
1.391006842619746
1.3685239491691104
1.3470185728250244
1.3264907135874875
1.3098729227761483
1.2961876832844574
1.2805474095796676
1.2649071358748778
1.249266862170088
1.2336265884652982
1.2179863147605083
1.203323558162268
1.1896383186705768
1.1759530791788857
1.163245356793744
1.1505376344086022
1.13880742913001
1.130987292277615
1.1251221896383188
1.1163245356793745
1.1065493646138806
1.0977517106549364
1.088954056695992
1.0801564027370478
1.072336265884653
1.064516129032258
1.0576735092864125
1.0527859237536656
1.0478983382209188
1.04594330400782
1.04594330400782
1.0439882697947214
1.0410557184750733
1.0381231671554252
1.0361681329423265
1.0332355816226784
1.0312805474095796
1.029325513196481
1.0283479960899315
1.0273704789833822
1.0263929618768328
1.029325513196481
1.0332355816226784
1.035190615835777
1.0361681329423265
1.0361681329423265
1.0361681329423265
1.0371456500488758
1.0371456500488758
1.0371456500488758
1.0371456500488758
1.0381231671554252
1.040078201368524
1.0449657869012707
1.056695992179863
1.0772238514173995
1.1114369501466277
1.166177908113392
1.2443792766373412
1.3479960899315735
1.474095796676442
1.619745845552297
1.7781036168132942
1.9403714565004888
2.0987292277614857
2.2482893450635384
2.366568914956012
2.463343108504399
2.558162267839687
2.644183773216031
2.719452590420332
2.782991202346041
2.8367546432062563
2.8826979472140764
2.921798631476051
2.956011730205278
2.9853372434017595
3.0087976539589443
3.0254154447702835
3.0303030303030303
3.026392961876833
3.0195503421309877
3.004887585532747
2.981427174975562
2.9472140762463344
2.902248289345064
2.84652981427175
2.782013685239492
2.7116324535679373
2.636363636363636
2.5591397849462365
2.4887585532746823
2.4252199413489737
2.360703812316716
2.300097751710655
2.2453567937438903
2.196480938416422
2.1524926686217007
2.112414467253177
2.075268817204301
2.040078201368524
2.004887585532747
1.9687194525904204
1.932551319648094
1.8993157380254155
1.868035190615836
1.8328445747800584
1.7956989247311828
1.7575757575757576
1.7194525904203324
1.6813294232649072
1.643206256109482
1.606060606060606
1.5698924731182795
1.5356793743890518
1.5024437927663734
1.4760508308895406
1.4545454545454546
1.43108504398827
1.4076246334310851
1.3841642228739004
1.3616813294232648
1.3401759530791788
1.3196480938416422
1.300097751710655
1.2805474095796676
1.2619745845552297
1.2443792766373412
1.2287390029325511
1.2179863147605083
1.209188660801564
1.1974584555229717
1.1857282502443791
1.1730205278592376
1.160312805474096
1.1485826001955035
1.1368523949169111
1.1251221896383188
1.1143695014662756
1.104594330400782
1.0957966764418376
1.0899315738025417
1.0869990224828934
1.0811339198435972
1.0742913000977516
1.067448680351906
1.06158357771261
1.0557184750733135
1.0498533724340176
1.0449657869012707
1.040078201368524
1.0361681329423265
1.0332355816226784
1.0312805474095796
1.032258064516129
1.0342130987292275
1.0342130987292275
1.0332355816226784
1.032258064516129
1.0312805474095796
1.0312805474095796
1.0312805474095796
1.0312805474095796
1.032258064516129
1.0332355816226784
1.0342130987292275
1.0371456500488758
1.0410557184750733
1.043010752688172
1.043010752688172
1.0439882697947214
1.0469208211143697
1.0557184750733135
1.075268817204301
1.110459433040078
1.166177908113392
1.2453567937438903
1.3509286412512218
1.4711632453567938
1.5835777126099706
1.7028347996089932
1.8465298142717497
1.997067448680352
2.1436950146627565
2.280547409579668
2.4027370478983383
2.5083088954056696
2.598240469208211
2.673509286412512
2.7370478983382207
2.790811339198436
2.827956989247312
2.855327468230694
2.884652981427175
2.913000977517106
2.9374389051808407
2.956989247311828
2.9696969696969697
2.975562072336266
2.972629521016618
2.959921798631476
2.936461388074292
2.9012707722385143
2.855327468230694
2.803519061583578
2.7468230694037143
2.6803519061583576
2.6070381231671558
2.530791788856305
2.4545454545454546
2.3812316715542523
2.312805474095797
2.2502443792766376
2.1945259042033234
2.145650048875855
2.101661779081134
2.064516129032258
2.03128054740958
1.997067448680352
1.962854349951124
1.9286412512218964
1.8934506353861196
1.857282502443793
1.8211143695014664
1.7839687194525904
1.7468230694037146
1.7096774193548387
1.672531769305963
1.635386119257087
1.603128054740958
1.5747800586510263
1.543499511241447
1.5102639296187683
1.47702834799609
1.444770283479961
1.412512218963832
1.3812316715542523
1.3499511241446724
1.3186705767350928
1.2883675464320623
1.2580645161290325
1.2346041055718475
1.2140762463343109
1.1906158357771262
1.166177908113392
1.142717497556207
1.1202346041055715
1.099706744868035
1.0811339198435972
1.064516129032258
1.0498533724340176
1.0381231671554252
1.0273704789833822
1.0195503421309873
1.0166177908113392
1.0166177908113392
1.0166177908113392
1.0166177908113392
1.0166177908113392
1.0166177908113392
1.0166177908113392
1.0175953079178883
1.018572825024438
1.0195503421309873
1.0195503421309873
1.0195503421309873
1.0224828934506354
1.0263929618768328
1.0263929618768328
1.0254154447702837
1.0234604105571847
1.0205278592375366
1.0166177908113392
1.0127077223851415
1.0087976539589445
1.0048875855327468
1.0019550342130987
1.0
1.0009775171065494
1.0039100684261977
1.0039100684261977
1.0039100684261977
1.002932551319648
1.002932551319648
1.0039100684261977
1.0048875855327468
1.0068426197458455
1.0087976539589445
1.0117302052785924
1.0166177908113392
1.0254154447702837
1.0391006842619743
1.06158357771261
1.096774193548387
1.1515151515151516
1.227761485826002
1.3284457478005864
1.4516129032258065
1.5943304007820136
1.7487781036168133
1.90811339198436
2.065493646138808
2.21505376344086
2.334310850439883
2.43108504398827
2.5268817204301075
2.613880742913001
2.6881720430107525
2.7497556207233624
2.7996089931573804
2.841642228739003
2.875855327468231
2.9042033235581624
2.9266862170087977
2.9442815249266863
2.956011730205278
2.956989247311828
2.9501466275659824
2.941348973607038
2.9257086999022484
2.9012707722385143
2.8670576735092865
2.823069403714565
2.768328445747801
2.704789833822092
2.633431085043988
2.558162267839687
2.4819159335288368
2.4134897360703813
2.350928641251222
2.289345063538612
2.231671554252199
2.1808406647116323
2.1358748778103616
2.0957966764418376
2.059628543499511
2.026392961876833
1.994134897360704
1.9618768328445748
1.9296187683284456
1.8963831867057677
1.866080156402737
1.835777126099707
1.8025415444770283
1.7673509286412512
1.7311827956989247
2.144672531769306
2.2844574780058653
2.409579667644184
2.5190615835777126
2.60019550342131
2.662756598240469
2.724340175953079
2.7810361681329425
2.831867057673509
2.87683284457478
2.917888563049853
2.95405669599218
2.9853372434017595
3.0117302052785924
3.032258064516129
3.046920821114369
3.053763440860215
3.0498533724340176
3.0361681329423265
3.016617790811339
2.9902248289345064
2.9530791788856305
2.906158357771261
2.849462365591398
2.7839687194525906
2.7116324535679373
2.634408602150537
2.555229716520039
2.4760508308895406
2.406647116324536
2.345063538611926
2.283479960899316
2.2267839687194524
2.175953079178885
2.1300097751710654
2.088954056695992
2.0518084066471163
2.016617790811339
1.9833822091886608
1.949169110459433
1.9149560117302051
1.8836754643206255
1.8533724340175952
1.8201368523949168
1.7839687194525904
1.7468230694037146
1.7096774193548387
1.6715542521994136
1.6344086021505375
1.5972629521016617
1.5620723362658846
1.5278592375366569
1.495601173020528
1.4652981427174976
1.4418377321603129
1.4222873900293256
1.4007820136852396
1.3792766373411536
1.3587487781036167
1.3391984359726294
1.3206256109481915
1.3040078201368523
1.2883675464320623
1.2746823069403714
1.2619745845552297
1.2502443792766371
1.2434017595307918
1.238514173998045
1.2316715542521994
1.224828934506354
1.217008797653959
1.209188660801564
1.2003910068426198
1.1915933528836755
1.1827956989247312
1.173998044965787
1.1652003910068427
1.155425219941349
1.1466275659824048
1.1407624633431086
1.1358748778103618
1.1290322580645162
1.1221896383186705
1.1143695014662756
1.1065493646138806
1.0987292277614855
1.0791788856304985
1.053763440860215
1.0381231671554252
1.0273704789833822
1.0195503421309873
1.0166177908113392
1.0156402737047898
1.0127077223851415
1.010752688172043
1.0087976539589445
1.0068426197458455
1.0048875855327468
1.0039100684261977
1.0039100684261977
1.0039100684261977
1.0039100684261977
1.0039100684261977
1.0048875855327468
1.0087976539589445
1.0127077223851415
1.0146627565982405
1.0166177908113392
1.0205278592375366
1.029325513196481
1.0478983382209188
1.0811339198435972
1.1329423264907137
1.2072336265884651
1.3040078201368523
1.4203323558162269
1.533724340175953
1.6480938416422288
1.7820136852394917
1.9227761485826005
2.06158357771261
2.189638318670577
2.304007820136853
2.403714565004888
2.4887585532746823
2.5610948191593352
2.621700879765396
2.673509286412512
2.718475073313783
2.7497556207233624
2.7722385141739982
2.7966764418377323
2.819159335288368
2.838709677419355
2.852394916911046
2.859237536656892
2.8582600195503423
2.8484848484848486
2.8289345063538613
2.798631476050831
2.757575757575758
2.710654936461388
2.6578690127077222
2.5962854349951123
2.5268817204301075
2.453567937438905
2.380254154447703
2.30791788856305
2.2404692082111435
2.1788856304985336
2.124144672531769
2.075268817204301
2.032258064516129
1.994134897360704
1.9618768328445748
1.9335288367546437
1.903225806451613
1.8729227761485825
1.842619745845552
1.8113391984359728
1.7781036168132942
1.7448680351906158
1.7096774193548387
1.6744868035190617
1.6392961876832846
1.603128054740958
1.5728250244379276
1.5454545454545454
1.5151515151515151
1.4848484848484849
1.455522971652004
1.4271749755620724
1.4007820136852396
1.3763440860215057
1.3528836754643203
1.3304007820136852
1.3098729227761483
1.2913000977517106
1.2727272727272727
1.2590420332355816
1.2482893450635386
1.2346041055718475
1.219941348973607
1.2052785923753666
1.1906158357771262
1.176930596285435
1.163245356793744
1.1505376344086022
1.13880742913001
1.1280547409579669
1.118279569892473
1.1114369501466277
1.1065493646138806
1.099706744868035
1.0909090909090908
1.083088954056696
1.0742913000977516
1.0654936461388074
1.0576735092864125
1.050830889540567
1.0449657869012707
1.0391006842619743
1.0332355816226784
1.0283479960899315
1.0263929618768328
1.0263929618768328
1.0234604105571847
1.0205278592375366
1.0175953079178883
1.0146627565982405
1.0127077223851415
1.0117302052785924
1.0117302052785924
1.0117302052785924
1.0117302052785924
1.0117302052785924
1.013685239491691
1.0166177908113392
1.018572825024438
1.0195503421309873
1.0205278592375366
1.0224828934506354
1.0234604105571847
1.0234604105571847
1.0224828934506354
1.0224828934506354
1.0234604105571847
1.0283479960899315
1.0410557184750733
1.0606060606060606
1.0909090909090908
1.1397849462365592
1.2101661779081134
1.3040078201368523
1.4193548387096775
1.5513196480938416
1.6930596285434996
1.839687194525904
1.9833822091886608
2.118279569892473
2.239491691104594
2.332355816226784
2.4056695992179864
2.4760508308895406
2.539589442815249
2.595307917888563
2.643206256109482
2.6832844574780057
2.718475073313783
2.748778103616813
