ppg
1.9130009775171064
2.075268817204301
2.231671554252199
2.3734115347018574
2.498533724340176
2.6050830889540566
2.69208211143695
2.760508308895406
2.8132942326490715
2.852394916911046
2.8797653958944283
2.8914956011730206
2.89345063538612
2.8944281524926687
2.8905180840664717
2.8826979472140764
2.8670576735092865
2.843597262952102
2.8103616813294234
2.7702834799608995
2.7223851417399803
2.6666666666666665
2.6050830889540566
2.5464320625610948
2.490713587487781
2.432062561094819
2.3734115347018574
2.3196480938416424
2.271749755620724
2.2277614858260018
2.189638318670577
2.156402737047898
2.1270772238514173
2.101661779081134
2.078201368523949
2.056695992179863
2.037145650048876
2.0175953079178885
1.9960899315738023
1.9716520039100685
1.945259042033236
1.916911045943304
1.8866080156402736
1.855327468230694
1.823069403714565
1.7888563049853372
1.7546432062561097
1.7204301075268815
1.6911045943304008
1.664711632453568
1.6344086021505375
1.6050830889540566
1.573802541544477
1.542521994134897
1.5131964809384164
1.4858260019550342
1.4594330400782014
1.434017595307918
1.409579667644184
1.3861192570869991
1.3636363636363635
1.3470185728250244
1.3333333333333333
1.3157380254154447
1.2971652003910068
1.2795698924731185
1.262952101661779
1.249266862170088
1.2375366568914956
1.2287390029325511
1.219941348973607
1.209188660801564
1.198435972629521
1.1906158357771262
1.1837732160312806
1.1720430107526882
1.1593352883675463
1.1485826001955035
1.1378299120234605
1.1280547409579669
1.118279569892473
1.1094819159335287
1.099706744868035
1.088954056695992
1.0791788856304985
1.0742913000977516
1.0703812316715542
1.0654936461388074
1.0596285434995112
1.053763440860215
1.0478983382209188
1.043010752688172
1.0381231671554252
1.0332355816226784
1.0273704789833822
1.021505376344086
1.0156402737047898
1.0097751710654936
1.007820136852395
1.007820136852395
1.0039100684261977
0.997067448680352
0.9902248289345064
0.9833822091886608
0.978494623655914
0.9794721407624634
0.9931573802541545
1.0234604105571847
1.0762463343108504
1.1573802541544478
1.2482893450635386
1.3528836754643203
1.490713587487781
1.6500488758553276
1.8201368523949168
1.992179863147605
2.158357771260997
2.3118279569892475
2.4457478005865103
2.5591397849462365
2.6529814271749754
2.729227761485826
2.788856304985337
2.827956989247312
2.8514173998044967
2.8719452590420333
2.884652981427175
2.889540566959922
2.8885630498533725
2.881720430107527
2.8690127077223853
2.8484848484848486
2.820136852394917
2.782991202346041
2.73802541544477
2.6901270772238512
2.6392961876832843
2.581622678396872
2.5210166177908118
2.4604105571847508
2.40078201368524
2.346041055718475
2.2961876832844577
2.2521994134897363
2.2130987292277613
2.1788856304985336
2.1495601173020527
2.12316715542522
2.1006842619745845
2.0821114369501466
2.0625610948191597
2.043010752688172
2.021505376344086
1.9990224828934504
1.975562072336266
1.9501466275659824
1.921798631476051
1.8905180840664717
1.857282502443793
1.822091886608016
1.7917888563049853
1.7634408602150538
1.732160312805474
1.699902248289345
1.667644183773216
1.6363636363636365
1.606060606060606
1.5757575757575757
1.5464320625610948
1.5190615835777126
1.4926686217008798
1.4672531769305963
1.4437927663734116
1.426197458455523
1.4105571847507332
1.391006842619746
1.3695014662756595
1.348973607038123
1.3313782991202343
1.3147605083088951
1.2991202346041055
1.2854349951124144
1.2727272727272727
1.260019550342131
1.2473118279569892
1.238514173998045
1.2326490713587488
1.2238514173998043
1.2130987292277615
1.2013685239491692
1.1896383186705768
1.1779081133919844
1.166177908113392
1.155425219941349
1.1456500488758554
1.1368523949169111
1.1300097751710656
1.1221896383186705
1.118279569892473
1.1173020527859236
1.1143695014662756
1.1085043988269794
1.1016617790811338
1.0957966764418376
1.0899315738025417
1.0840664711632453
1.078201368523949
1.0733137829912025
1.0684261974584557
1.0625610948191593
1.0606060606060606
1.0606060606060606
1.0576735092864125
1.0547409579667644
1.0498533724340176
1.0449657869012707
1.0391006842619743
1.035190615835777
1.0391006842619743
1.053763440860215
1.086021505376344
1.1407624633431086
1.2228739002932552
1.3147605083088951
1.4203323558162269
1.5581622678396871
1.7165200391006843
1.8856304985337244
2.0547409579667644
2.2170087976539588
2.3655913978494625
2.498533724340176
2.6129032258064515
2.708699902248289
2.7869012707722387
2.8396871945259043
2.875855327468231
2.911045943304008
2.940371456500489
2.960899315738025
2.9745845552297165
2.9804496578690127
2.979472140762464
2.972629521016618
2.9579667644183774
2.9335288367546437
2.9042033235581624
2.8690127077223853
2.8260019550342133
2.7781036168132944
2.7233626588465296
2.664711632453568
2.6041055718475072
2.5434995112414467
2.4858260019550342
2.432062561094819
2.3851417399804498
2.3440860215053765
2.3088954056695994
2.2795698924731185
2.254154447702835
2.23069403714565
2.207233626588465
2.1837732160312804
2.160312805474096
2.134897360703812
2.10850439882698
2.080156402737048
2.0498533724340176
2.018572825024438
1.986314760508309
1.9530791788856303
1.9178885630498532
1.8856304985337244
1.855327468230694
1.823069403714565
1.7888563049853372
1.7546432062561097
1.721407624633431
1.689149560117302
1.6578690127077225
1.6275659824046922
1.5972629521016617
1.5679374389051808
1.541544477028348
1.521994134897361
1.5053763440860215
1.4868035190615836
1.4682306940371457
1.4506353861192571
1.4330400782013686
1.41544477028348
1.396871945259042
1.3782991202346042
1.3616813294232648
1.3440860215053765
1.3264907135874875
1.3147605083088951
1.3049853372434017
1.29227761485826
1.2795698924731185
1.267839687194526
1.2580645161290325
1.2482893450635386
1.238514173998045
1.227761485826002
1.217008797653959
1.2052785923753666
1.1935483870967742
1.1837732160312806
1.1779081133919844
1.1730205278592376
1.166177908113392
1.1583577712609971
1.1505376344086022
1.141739980449658
1.133919843597263
1.1270772238514175
1.1202346041055715
1.1133919843597262
1.10752688172043
1.1016617790811338
1.099706744868035
1.0987292277614855
1.0948191593352885
1.0899315738025417
1.0850439882697946
1.0791788856304985
1.0733137829912025
1.067448680351906
1.0625610948191593
1.06158357771261
1.0684261974584557
1.088954056695992
1.1329423264907137
1.1906158357771262
1.2668621700879763
1.3763440860215057
1.5131964809384164
1.6715542521994136
1.842619745845552
2.01564027370479
2.1837732160312804
2.3391984359726297
2.47702834799609
2.595307917888563
2.6940371456500487
2.763440860215054
2.8132942326490715
2.8611925708699903
2.902248289345064
2.9345063538611926
2.9589442815249267
2.9745845552297165
2.9824046920821115
2.983382209188661
2.9775171065493646
2.963831867057673
2.9423264907135875
2.913000977517106
2.878787878787879
2.838709677419355
2.789833822091887
2.732160312805474
2.668621700879765
2.601173020527859
2.533724340175953
2.4682306940371457
2.406647116324536
2.3519061583577714
2.304985337243402
2.264907135874878
2.232649071358749
2.2052785923753664
2.179863147605083
2.156402737047898
2.132942326490713
2.110459433040078
2.0869990224828934
2.0625610948191597
2.035190615835777
2.006842619745845
1.9765395894428155
1.945259042033236
1.913978494623656
1.8856304985337244
1.8592375366568916
1.8299120234604105
1.7986314760508308
1.7653958944281525
1.7311827956989247
1.6950146627565983
1.6598240469208212
1.6256109481915937
1.5923753665689149
1.5610948191593352
1.5327468230694037
1.509286412512219
1.4887585532746823
1.466275659824047
1.4437927663734116
1.4222873900293256
1.3998044965786902
1.3782991202346042
1.359726295210166
1.3411534701857282
1.3235581622678396
1.305962854349951
1.2883675464320623
1.273704789833822
1.262952101661779
1.2551319648093842
1.2453567937438903
1.2346041055718475
1.2228739002932552
1.2111436950146628
1.1994134897360704
1.1886608015640274
1.1779081133919844
1.1671554252199414
1.1573802541544478
1.1485826001955035
1.1436950146627567
1.1397849462365592
1.133919843597263
1.126099706744868
1.118279569892473
1.1094819159335287
1.1006842619745845
1.0928641251221896
1.086021505376344
1.0801564027370478
1.0742913000977516
1.0684261974584557
1.0625610948191593
1.0596285434995112
1.0596285434995112
1.0596285434995112
1.0576735092864125
1.053763440860215
1.0488758553274682
1.0439882697947214
1.0381231671554252
1.0312805474095796
1.0254154447702837
1.0234604105571847
1.0312805474095796
1.0498533724340176
1.0840664711632453
1.142717497556207
1.2287390029325511
1.3440860215053765
1.4848484848484849
1.6451612903225807
1.8162267839687196
1.989247311827957
2.157380254154448
2.312805474095797
2.452590420332356
2.5718475073313782
2.6578690127077222
2.720430107526881
2.777126099706745
2.825024437927664
2.8611925708699903
2.886608015640274
2.9042033235581624
2.913978494623656
2.9159335288367547
2.913000977517106
2.903225806451613
2.886608015640274
2.863147605083089
2.831867057673509
2.793743890518084
2.747800586510264
2.6959921798631474
2.6373411534701856
2.5747800586510263
2.5112414467253177
2.4486803519061584
2.3900293255131966
2.335288367546432
2.286412512218964
2.244379276637341
2.210166177908113
2.182795698924731
2.156402737047898
2.132942326490713
2.1114369501466275
2.090909090909091
2.070381231671554
2.047898338220919
2.024437927663734
2.0
1.9745845552297163
1.946236559139785
1.919843597262952
1.8934506353861196
1.8631476050830889
1.8299120234604105
1.7956989247311828
1.7595307917888563
1.7223851417399805
1.6871945259042034
1.6520039100684265
1.6177908113391983
1.5865102639296187
1.5562072336265884
1.5278592375366569
1.504398826979472
1.4838709677419355
1.4613880742913
1.435972629521017
1.4105571847507332
1.3861192570869991
1.3626588465298142
1.3411534701857282
1.321603128054741
1.3049853372434017
1.289345063538612
1.273704789833822
1.2619745845552297
1.252199413489736
1.241446725317693
1.2297165200391007
1.2179863147605083
1.206256109481916
1.1945259042033236
1.1827956989247312
1.1710654936461389
1.160312805474096
1.1485826001955035
1.1368523949169111
1.1300097751710656
1.1251221896383188
1.118279569892473
1.110459433040078
1.1026392961876832
1.093841642228739
1.0850439882697946
1.0772238514173995
1.0703812316715542
1.0635386119257086
1.0576735092864125
1.0518084066471165
1.04594330400782
1.043010752688172
1.043010752688172
1.040078201368524
1.035190615835777
1.029325513196481
1.0234604105571847
1.0175953079178883
1.0117302052785924
1.0058651026392962
1.0
0.9941348973607038
0.989247311827957
0.989247311827957
0.9980449657869012
1.0166177908113392
1.053763440860215
1.115347018572825
1.2052785923753666
1.3235581622678396
1.4672531769305963
1.6304985337243405
1.8054740957966764
1.9833822091886608
2.1544477028347995
2.312805474095797
2.4379276637341154
2.5376344086021505
2.633431085043988
2.7155425219941347
2.782991202346041
2.8377321603128056
2.8807429130009776
2.913000977517106
2.936461388074292
2.952101661779081
2.9589442815249267
2.9579667644183774
2.9472140762463344
2.9286412512218964
2.906158357771261
2.875855327468231
2.835777126099707
2.787878787878788
2.7331378299120237
2.6725317693059627
2.608993157380254
2.5454545454545454
2.4838709677419355
2.4252199413489737
2.3704789833822093
2.324535679374389
2.2854349951124147
2.2482893450635384
2.21505376344086
2.1867057673509285
2.160312805474096
2.1358748778103616
2.113391984359726
2.09188660801564
2.069403714565005
2.0449657869012707
2.018572825024438
1.994134897360704
1.970674486803519
1.943304007820137
1.9130009775171064
1.8807429130009776
1.8465298142717497
1.8113391984359728
1.775171065493646
1.737047898338221
1.6989247311827955
1.6608015640273706
1.6236559139784943
1.5894428152492668
1.5620723362658846
1.5386119257087
1.5131964809384164
1.4868035190615836
1.4613880742913
1.436950146627566
1.4134897360703813
1.3919843597262953
1.3724340175953078
1.3528836754643203
1.335288367546432
1.3186705767350928
1.3069403714565004
1.2971652003910068
1.2854349951124144
1.2717497556207231
1.2580645161290325
1.2453567937438903
1.2336265884652982
1.2209188660801564
1.209188660801564
1.1974584555229717
1.1857282502443791
1.173998044965787
1.164222873900293
1.1583577712609971
1.1544477028347997
1.1495601173020529
1.144672531769306
1.1397849462365592
1.1329423264907137
1.1251221896383188
1.1173020527859236
1.1085043988269794
1.099706744868035
1.0909090909090908
1.083088954056696
1.0791788856304985
1.0772238514173995
1.075268817204301
1.072336265884653
1.0694037145650048
1.067448680351906
1.0664711632453567
1.0664711632453567
1.0654936461388074
1.0625610948191593
1.0586510263929618
1.053763440860215
1.0488758553274682
1.0488758553274682
1.0547409579667644
1.0684261974584557
1.0987292277614855
1.1505376344086022
1.2297165200391007
1.3372434017595307
1.4701857282502444
1.6256109481915937
1.7956989247311828
1.9726295210166176
2.146627565982405
2.290322580645161
2.412512218963832
2.535679374389052
2.649071358748778
2.745845552297165
2.8240469208211145
2.886608015640274
2.935483870967742
2.9716520039100685
2.997067448680352
3.0146627565982405
3.026392961876833
3.0332355816226784
3.0303030303030303
3.0205278592375366
3.007820136852395
2.989247311827957
2.962854349951124
2.9266862170087977
2.881720430107527
2.827956989247312
2.768328445747801
2.7038123167155423
2.638318670576735
2.572825024437928
2.5141739980449658
2.4613880742913
2.410557184750733
2.363636363636364
2.3225806451612905
2.2873900293255134
2.2561094819159337
2.2267839687194524
2.20039100684262
2.174975562072336
2.150537634408602
2.124144672531769
2.096774193548387
2.071358748778104
2.04594330400782
2.016617790811339
1.9843597262952104
1.9501466275659824
1.9130009775171064
1.8758553274682308
1.8387096774193548
1.801564027370479
1.7653958944281525
1.7302052785923754
1.696969696969697
1.667644183773216
1.6422287390029326
1.6148582600195502
1.5865102639296187
1.5581622678396871
1.5298142717497556
1.504398826979472
1.479960899315738
1.456500488758553
1.435972629521017
1.41544477028348
1.3958944281524928
1.3773216031280548
1.3626588465298142
1.3499511241446724
1.335288367546432
1.3206256109481915
1.305962854349951
1.2913000977517106
1.2756598240469208
1.2619745845552297
1.249266862170088
1.2365591397849462
1.2238514173998043
1.2150537634408602
1.2111436950146628
1.2072336265884651
1.1994134897360704
1.1896383186705768
1.1798631476050832
1.1700879765395895
1.1612903225806452
1.152492668621701
1.1436950146627567
1.1358748778103618
1.1280547409579669
1.1202346041055715
1.115347018572825
1.1124144672531768
1.1065493646138806
1.0987292277614855
1.0918866080156402
1.086021505376344
1.0811339198435972
1.078201368523949
1.0762463343108504
1.0733137829912025
1.0694037145650048
1.064516129032258
1.0586510263929618
1.0576735092864125
1.0606060606060606
1.0664711632453567
1.083088954056696
1.1163245356793745
1.1710654936461389
1.2531769305962854
1.3636363636363635
1.499511241446725
1.653958944281525
1.8211143695014664
1.992179863147605
2.1388074291300097
2.264907135874878
2.393939393939394
2.5141739980449658
2.6177908113391983
2.704789833822092
2.7751710654936463
2.83088954056696
2.873900293255132
2.906158357771261
2.930596285434995
2.9472140762463344
2.956011730205278
2.95405669599218
2.9442815249266863
2.930596285434995
2.911045943304008
2.884652981427175
2.849462365591398
2.8054740957966766
2.7536656891495603
2.6959921798631474
2.633431085043988
2.56891495601173
2.505376344086021
2.4486803519061584
2.3978494623655915
2.347996089931574
2.302052785923754
2.260997067448681
2.2238514173998043
2.1915933528836757
2.163245356793744
2.1378299120234603
2.112414467253177
2.0869990224828934
2.06158357771261
2.035190615835777
2.0117302052785924
1.988269794721408
1.9618768328445748
1.9335288367546437
1.903225806451613
1.871945259042033
1.839687194525904
1.8064516129032255
1.772238514173998
1.737047898338221
1.7018572825024438
1.6686217008797657
1.6422287390029326
1.6187683284457477
1.5923753665689149
1.5650048875855327
1.5386119257087
1.512218963831867
1.4858260019550342
1.4604105571847508
1.4349951124144673
1.4086021505376345
1.3851417399804498
1.3626588465298142
1.3421309872922775
1.3264907135874875
1.3147605083088951
1.300097751710655
1.2854349951124144
1.2697947214076246
1.2551319648093842
1.2404692082111437
1.2267839687194526
1.2140762463343109
1.2013685239491692
1.1896383186705768
1.1779081133919844
1.1720430107526882
1.1681329423264908
1.1622678396871946
1.1544477028347997
1.1466275659824048
1.1368523949169111
1.1251221896383188
1.1143695014662756
1.104594330400782
1.0948191593352885
1.0869990224828934
1.0801564027370478
1.0742913000977516
1.0713587487781036
1.0713587487781036
1.0694037145650048
1.0654936461388074
1.0606060606060606
1.0557184750733135
1.0498533724340176
1.0439882697947214
1.0381231671554252
1.032258064516129
1.0263929618768328
1.0205278592375366
1.018572825024438
1.018572825024438
1.0205278592375366
1.029325513196481
1.0518084066471165
1.0948191593352885
1.163245356793744
1.2609970674486803
1.3861192570869991
1.533724340175953
1.6979472140762464
1.869012707722385
2.0391006842619745
2.179863147605083
2.2991202346041058
2.420332355816227
2.530791788856305
2.625610948191593
2.7038123167155423
2.7653958944281527
2.814271749755621
2.850439882697948
2.875855327468231
2.89345063538612
2.9042033235581624
2.9042033235581624
2.8963831867057674
2.8856304985337244
2.8690127077223853
2.844574780058651
2.812316715542522
2.7722385141739982
2.724340175953079
2.670576735092864
2.611925708699902
2.550342130987292
2.4887585532746823
2.4301075268817205
2.378299120234604
2.332355816226784
2.2883675464320627
2.2482893450635384
2.2111436950146626
2.177908113391984
2.1495601173020527
2.12316715542522
2.099706744868035
2.0762463343108504
2.0518084066471163
2.0254154447702835
2.0009775171065494
1.9765395894428155
1.949169110459433
1.9178885630498532
1.8866080156402736
1.855327468230694
1.8240469208211143
1.7927663734115349
1.7595307917888563
1.726295210166178
1.6911045943304008
1.6559139784946235
1.6207233626588464
1.5913978494623655
1.5679374389051808
1.542521994134897
1.517106549364614
1.4916911045943304
1.466275659824047
1.4418377321603129
1.4193548387096775
1.3988269794721409
1.380254154447703
1.364613880742913
1.3528836754643203
1.346041055718475
1.343108504398827
1.33822091886608
1.3333333333333333
1.3264907135874875
1.3196480938416422
1.3118279569892473
1.3040078201368523
1.2971652003910068
1.2903225806451613
1.2825024437927663
1.273704789833822
1.267839687194526
1.2649071358748778
1.2590420332355816
1.2502443792766371
1.2394916911045943
1.2287390029325511
1.2179863147605083
1.206256109481916
1.1935483870967742
1.181818181818182
1.1710654936461389
1.160312805474096
1.1505376344086022
1.1436950146627567
1.1397849462365592
1.1329423264907137
1.1231671554252198
1.1124144672531768
1.1006842619745845
1.0899315738025417
1.0811339198435972
1.072336265884653
1.0625610948191593
1.0518084066471165
1.0410557184750733
1.0342130987292275
1.029325513196481
1.0254154447702837
1.0273704789833822
1.043010752688172
1.078201368523949
1.1378299120234605
1.2267839687194526
1.3470185728250244
1.490713587487781
1.653958944281525
1.827956989247312
2.003910068426197
2.1524926686217007
2.27761485826002
2.4027370478983383
2.5180840664711632
2.6177908113391983
2.699902248289345
2.766373411534702
2.8181818181818183
2.8582600195503423
2.887585532746823
2.9071358748778104
2.918866080156403
2.918866080156403
2.9120234604105573
2.902248289345064
2.8856304985337244
2.863147605083089
2.832844574780059
2.7947214076246336
2.748778103616813
2.696969696969697
2.6392961876832843
2.576735092864125
2.5141739980449658
2.4516129032258065
2.3949169110459434
2.3440860215053765
2.294232649071359
2.2502443792766376
2.2130987292277613
2.1818181818181817
2.1544477028347995
2.129032258064516
2.1065493646138806
2.085043988269794
2.06158357771261
2.037145650048876
2.0146627565982405
1.992179863147605
1.9657869012707725
1.93841642228739
1.9090909090909087
1.8778103616813293
1.8465298142717497
1.8142717497556209
1.7810361681329423
1.7468230694037146
1.7135874877810362
1.6813294232649072
1.6490713587487782
1.6226783968719452
1.598240469208211
1.5718475073313782
1.544477028347996
1.5180840664711632
1.4916911045943304
1.4652981427174976
1.4408602150537635
1.4193548387096775
1.3998044965786902
1.3812316715542523
1.3636363636363635
1.3509286412512218
1.3401759530791788
1.3264907135874875
1.3128054740957966
1.2981427174975562
1.2834799608993157
1.2697947214076246
1.2570869990224829
1.2443792766373412
1.2326490713587488
1.2209188660801564
1.2082111436950147
1.1964809384164223
1.1886608015640274
1.18475073313783
1.1788856304985338
1.1710654936461389
1.163245356793744
1.155425219941349
1.1466275659824048
1.1378299120234605
1.1290322580645162
1.1202346041055715
1.1114369501466277
1.1036168132942326
1.099706744868035
1.0977517106549364
1.0928641251221896
1.0869990224828934
1.0811339198435972
1.0762463343108504
1.072336265884653
1.0684261974584557
1.064516129032258
1.0606060606060606
1.056695992179863
1.0527859237536656
1.0478983382209188
1.0478983382209188
1.0518084066471165
1.0576735092864125
1.0733137829912025
1.104594330400782
1.1593352883675463
1.2434017595307918
1.356793743890518
1.4975562072336266
1.6588465298142718
1.8328445747800584
2.0097751710654936
2.161290322580645
2.2932551319648096
2.4281524926686218
2.5532746823069403
2.66177908113392
2.752688172043011
2.825024437927664
2.8826979472140764
2.929618768328446
2.9657869012707723
2.994134897360704
3.0146627565982405
3.0283479960899315
3.029325513196481
3.021505376344086
3.0117302052785924
2.9960899315738025
2.9745845552297165
2.945259042033236
2.909090909090909
2.8641251221896384
2.811339198435973
2.7517106549364616
2.687194525904203
2.621700879765396
2.5620723362658846
2.506353861192571
2.4516129032258065
2.39980449657869
2.3519061583577714
2.3098729227761488
2.272727272727273
2.2385141739980448
2.209188660801564
2.182795698924731
2.156402737047898
2.1300097751710654
2.102639296187683
2.0772238514174
2.0518084066471163
2.024437927663734
1.994134897360704
1.9608993157380252
1.927663734115347
1.8934506353861196
1.8592375366568916
1.8240469208211143
1.7888563049853372
1.75366568914956
1.718475073313783
1.689149560117302
1.6637341153470186
1.6363636363636365
1.6080156402737047
1.5786901270772238
1.5493646138807429
1.521994134897361
1.4946236559139785
1.469208211143695
1.4457478005865103
1.423264907135875
1.401759530791789
1.380254154447703
1.364613880742913
1.3509286412512218
1.3343108504398826
1.3176930596285434
1.2991202346041055
1.2805474095796676
1.2639296187683284
1.2482893450635386
1.2336265884652982
1.219941348973607
1.206256109481916
1.1935483870967742
1.18475073313783
1.1788856304985338
1.1700879765395895
1.1612903225806452
1.152492668621701
1.1436950146627567
1.1348973607038124
1.126099706744868
1.1173020527859236
1.1085043988269794
1.099706744868035
1.0909090909090908
1.086021505376344
1.0821114369501466
1.0772238514173995
1.0713587487781036
1.0654936461388074
1.0596285434995112
1.053763440860215
1.0488758553274682
1.0439882697947214
1.0391006842619743
1.0332355816226784
1.0273704789833822
1.021505376344086
1.018572825024438
1.0156402737047898
1.0097751710654936
1.007820136852395
1.0146627565982405
1.0361681329423265
1.0801564027370478
1.1534701857282503
1.2561094819159335
1.388074291300098
1.543499511241447
1.7145650048875856
1.8699902248289344
2.013685239491691
2.1681329423264906
2.3167155425219943
2.452590420332356
