ppg
1.3900293255131966
1.3587487781036167
1.3333333333333333
1.310850439882698
1.2873900293255132
1.2639296187683284
1.2404692082111437
1.2179863147605083
1.1974584555229717
1.1788856304985338
1.1622678396871946
1.147605083088954
1.1348973607038124
1.1241446725317692
1.1173020527859236
1.1124144672531768
1.1055718475073313
1.0977517106549364
1.0899315738025417
1.0821114369501466
1.0742913000977516
1.067448680351906
1.06158357771261
1.0557184750733135
1.0498533724340176
1.0439882697947214
1.0381231671554252
1.035190615835777
1.0332355816226784
1.0303030303030305
1.0254154447702837
1.0205278592375366
1.0156402737047898
1.010752688172043
1.0058651026392962
1.002932551319648
1.0
0.9980449657869012
0.9951124144672532
0.9941348973607038
0.9951124144672532
0.9951124144672532
0.9941348973607038
0.9931573802541545
0.9921798631476052
0.9921798631476052
0.9921798631476052
0.9921798631476052
0.9921798631476052
0.9941348973607038
0.9960899315738024
0.9990224828934506
1.002932551319648
1.0058651026392962
1.0068426197458455
1.0058651026392962
1.0048875855327468
1.002932551319648
1.002932551319648
1.0068426197458455
1.0195503421309873
1.0469208211143697
1.0928641251221896
1.1622678396871946
1.2424242424242424
1.3372434017595307
1.4652981427174976
1.6187683284457477
1.790811339198436
1.9696969696969695
2.145650048875855
2.3118279569892475
2.4604105571847508
2.5884652981427174
2.695014662756598
2.7781036168132944
2.838709677419355
2.873900293255132
2.8905180840664717
2.900293255131965
2.9012707722385143
2.8944281524926687
2.878787878787879
2.855327468230694
2.825024437927664
2.7859237536656893
2.7390029325513194
2.6832844574780057
2.618768328445748
2.5532746823069403
2.4858260019550342
2.4086021505376345
2.324535679374389
2.239491691104594
2.155425219941349
2.0772238514174
2.005865102639296
1.943304007820137
1.8914956011730208
1.8494623655913975
1.81524926686217
1.7869012707722385
1.7653958944281525
1.747800586510264
1.729227761485826
1.710654936461388
1.6920821114369502
1.672531769305963
1.651026392961877
1.6275659824046922
1.6021505376344083
1.5747800586510263
1.5454545454545454
1.5151515151515151
1.487781036168133
1.4623655913978495
1.4330400782013686
1.4027370478983383
1.3724340175953078
1.3421309872922775
1.313782991202346
1.2873900293255132
1.2619745845552297
1.2375366568914956
1.2150537634408602
1.1935483870967742
1.1749755620723363
1.160312805474096
1.1485826001955035
1.1348973607038124
1.1221896383186705
1.110459433040078
1.0987292277614855
1.088954056695992
1.0801564027370478
1.072336265884653
1.064516129032258
1.0576735092864125
1.0518084066471165
1.0488758553274682
1.0469208211143697
1.0439882697947214
1.040078201368524
1.035190615835777
1.0303030303030305
1.024437927663734
1.018572825024438
1.0127077223851415
1.007820136852395
1.0048875855327468
1.002932551319648
1.0019550342130987
1.002932551319648
1.0039100684261977
1.0039100684261977
1.0019550342130987
1.0
0.9980449657869012
0.9960899315738024
0.9941348973607038
0.9931573802541545
0.9921798631476052
0.9921798631476052
0.9921798631476052
0.9941348973607038
0.9980449657869012
1.0
1.0
1.0
1.0
1.0
1.0
1.0
1.0
1.0
1.0009775171065494
1.0039100684261977
1.0117302052785924
1.0263929618768328
1.053763440860215
1.0977517106549364
1.164222873900293
1.2570869990224829
1.3763440860215057
1.520039100684262
1.683284457478006
1.8592375366568916
2.037145650048876
2.210166177908113
2.350928641251222
2.466275659824047
2.578690127077224
2.678396871945259
2.760508308895406
2.823069403714565
2.8670576735092865
2.8944281524926687
2.90811339198436
2.9100684261974585
2.902248289345064
2.8856304985337244
2.860215053763441
2.827956989247312
2.788856304985337
2.740957966764418
2.684261974584555
2.618768328445748
2.5454545454545454
2.466275659824047
2.3841642228739004
2.300097751710655
2.2160312805474094
2.1358748778103616
2.060606060606061
1.9980449657869013
1.946236559139785
1.8973607038123168
1.8563049853372435
1.822091886608016
1.7947214076246334
1.7732160312805474
1.7546432062561097
1.737047898338221
1.7194525904203324
1.699902248289345
1.678396871945259
1.6578690127077225
1.6363636363636365
1.611925708699902
1.58455522971652
1.5562072336265884
1.525904203323558
1.495601173020528
1.4652981427174976
1.4349951124144673
1.4056695992179864
1.3763440860215057
1.3470185728250244
1.3186705767350928
1.2961876832844574
1.2766373411534702
1.2551319648093842
1.2326490713587488
1.2101661779081134
1.1935483870967742
1.1808406647116323
1.1671554252199414
1.1534701857282503
1.1407624633431086
1.1290322580645162
1.1173020527859236
1.110459433040078
1.1055718475073313
1.099706744868035
1.0928641251221896
1.086021505376344
1.0801564027370478
1.075268817204301
1.0703812316715542
1.064516129032258
1.0596285434995112
1.0547409579667644
1.0498533724340176
1.0449657869012707
1.0439882697947214
1.0439882697947214
1.0420332355816226
1.0391006842619743
1.0371456500488758
1.0342130987292275
1.0312805474095796
1.0273704789833822
1.0234604105571847
1.0195503421309873
1.0156402737047898
1.0127077223851415
1.0117302052785924
1.0117302052785924
1.0097751710654936
1.007820136852395
1.0068426197458455
1.0058651026392962
1.0048875855327468
1.0048875855327468
1.0048875855327468
1.0068426197458455
1.0087976539589445
1.010752688172043
1.0127077223851415
1.0166177908113392
1.0195503421309873
1.0205278592375366
1.0195503421309873
1.018572825024438
1.0205278592375366
1.0283479960899315
1.0469208211143697
1.0811339198435972
1.1358748778103618
1.217008797653959
1.3264907135874875
1.439882697947214
1.564027370478983
1.7204301075268815
1.8963831867057677
2.0791788856304985
2.259042033235582
2.4281524926686218
2.579667644183773
2.708699902248289
2.814271749755621
2.895405669599218
2.9530791788856305
2.991202346041056
3.007820136852395
3.010752688172043
3.0087976539589443
3.0
2.98435972629521
2.961876832844575
2.930596285434995
2.8905180840664717
2.841642228739003
2.782013685239492
2.713587487781036
2.6373411534701856
2.563049853372434
2.487781036168133
2.404692082111437
2.3196480938416424
2.2355816226783967
2.157380254154448
2.0869990224828934
2.0254154447702835
1.9745845552297163
1.9315738025415443
1.8963831867057677
1.869012707722385
1.8455522971652003
1.8269794721407624
1.8103616813294232
1.7927663734115349
1.7732160312805474
1.7517106549364614
1.7272727272727273
1.699902248289345
1.6705767350928642
1.640273704789834
1.608993157380254
1.576735092864125
1.5454545454545454
1.5180840664711632
1.4936461388074291
1.466275659824047
1.4379276637341154
1.4086021505376345
1.380254154447703
1.3528836754643203
1.3264907135874875
1.3010752688172045
1.2776148582600195
1.2561094819159335
1.2355816226783969
1.2160312805474096
1.2023460410557183
1.1925708699902249
1.1808406647116323
1.1700879765395895
1.1593352883675463
1.1495601173020529
1.141739980449658
1.1348973607038124
1.1280547409579669
1.1221896383186705
1.115347018572825
1.1085043988269794
1.104594330400782
1.1026392961876832
1.0977517106549364
1.0928641251221896
1.0879765395894427
1.0821114369501466
1.0772238514173995
1.0742913000977516
1.0713587487781036
1.0694037145650048
1.0664711632453567
1.0635386119257086
1.0606060606060606
1.0596285434995112
1.0606060606060606
1.0596285434995112
1.0576735092864125
1.0547409579667644
1.0527859237536656
1.050830889540567
1.0488758553274682
1.0469208211143697
1.0449657869012707
1.0449657869012707
1.0449657869012707
1.0469208211143697
1.050830889540567
1.0527859237536656
1.053763440860215
1.0547409579667644
1.056695992179863
1.0586510263929618
1.0586510263929618
1.0576735092864125
1.056695992179863
1.056695992179863
1.0586510263929618
1.067448680351906
1.0840664711632453
1.1114369501466277
1.1593352883675463
1.2316715542521994
1.3304007820136852
1.457478005865103
1.608993157380254
1.780058651026393
1.963831867057673
2.1495601173020527
2.329423264907136
2.495601173020528
2.6236559139784945
2.7233626588465296
2.8152492668621703
2.89345063538612
2.9530791788856305
2.9960899315738025
3.024437927663734
3.042033235581622
3.0498533724340176
3.048875855327468
3.0410557184750733
3.0254154447702835
3.0009775171065494
2.967741935483871
2.9257086999022484
2.874877810361681
2.814271749755621
2.744868035190616
2.665689149560117
2.5806451612903225
2.490713587487781
2.3978494623655915
2.3059628543499517
2.217986314760508
2.1358748778103616
2.067448680351906
2.010752688172043
1.9579667644183771
1.9130009775171064
1.8748778103616808
1.8435972629521016
1.818181818181818
1.7956989247311828
1.7741935483870968
1.7526881720430108
1.7311827956989247
1.70772238514174
1.686217008797654
1.6637341153470186
1.6373411534701858
1.6080156402737047
1.5757575757575757
1.541544477028348
1.5073313782991202
1.4721407624633431
1.436950146627566
1.4037145650048877
1.3714565004887584
1.3401759530791788
1.3098729227761483
1.2864125122189638
1.2668621700879763
1.2443792766373412
1.2218963831867058
1.2003910068426198
1.1808406647116323
1.1622678396871946
1.144672531769306
1.1280547409579669
1.1124144672531768
1.0977517106549364
1.0850439882697946
1.078201368523949
1.0742913000977516
1.0694037145650048
1.0635386119257086
1.0576735092864125
1.0518084066471165
1.04594330400782
1.040078201368524
1.0342130987292275
1.0283479960899315
1.0224828934506354
1.0166177908113392
1.010752688172043
1.007820136852395
1.0068426197458455
1.0048875855327468
1.0019550342130987
0.9990224828934506
0.9960899315738024
0.9931573802541545
0.989247311827957
0.9853372434017597
0.981427174975562
0.978494623655914
0.975562072336266
0.975562072336266
0.9775171065493646
0.978494623655914
0.978494623655914
0.9775171065493646
0.9765395894428152
0.975562072336266
0.9745845552297164
0.9745845552297164
0.9745845552297164
0.9745845552297164
0.9745845552297164
0.975562072336266
0.978494623655914
0.9833822091886608
0.9853372434017597
0.9863147605083088
0.9872922776148584
0.989247311827957
0.9951124144672532
1.0097751710654936
1.0391006842619743
1.0869990224828934
1.1593352883675463
1.2590420332355816
1.364613880742913
1.4809384164222874
1.6304985337243405
1.7996089931573802
1.9775171065493649
2.1544477028347995
2.320625610948192
2.469208211143695
2.5972629521016617
2.702834799608993
2.7859237536656893
2.8484848484848486
2.89247311827957
2.9159335288367547
2.924731182795699
2.927663734115347
2.9237536656891496
2.9120234604105573
2.89247311827957
2.8641251221896384
2.8269794721407626
2.782013685239492
2.727272727272727
2.662756598240469
2.5884652981427174
2.515151515151515
2.4408602150537635
2.356793743890518
2.2688172043010755
2.1808406647116323
2.0987292277614857
2.0234604105571847
1.9560117302052784
1.8993157380254155
1.8523949169110456
1.81524926686217
1.7859237536656891
1.761485826001955
1.7429130009775171
1.7272727272727273
1.7096774193548387
1.6901270772238517
1.6695992179863148
1.6471163245356797
1.6226783968719452
1.5972629521016617
1.5708699902248289
1.543499511241447
1.5141739980449658
1.4838709677419355
1.457478005865103
1.4320625610948192
1.4027370478983383
1.3714565004887584
1.3391984359726294
1.3079178885630498
1.278592375366569
1.2512218963831867
1.2267839687194526
1.203323558162268
1.181818181818182
1.1612903225806452
1.1436950146627567
1.130987292277615
1.1202346041055715
1.1085043988269794
1.096774193548387
1.0850439882697946
1.0742913000977516
1.0654936461388074
1.0586510263929618
1.050830889540567
1.0439882697947214
1.0371456500488758
1.0312805474095796
1.0283479960899315
1.0263929618768328
1.0224828934506354
1.0175953079178883
1.0127077223851415
1.0087976539589445
1.0048875855327468
1.0009775171065494
0.997067448680352
0.9931573802541545
0.989247311827957
0.9863147605083088
0.9843597262952102
0.9853372434017597
0.9882697947214076
0.9882697947214076
0.9863147605083088
0.9833822091886608
0.9794721407624634
0.975562072336266
0.9726295210166178
0.9706744868035192
0.9696969696969696
0.9687194525904204
0.9687194525904204
0.9706744868035192
0.9745845552297164
0.9765395894428152
0.9775171065493646
0.9775171065493646
0.9775171065493646
0.9775171065493646
0.978494623655914
0.9794721407624634
0.9794721407624634
0.9794721407624634
0.9804496578690128
0.9843597262952102
0.9912023460410556
1.002932551319648
1.024437927663734
1.06158357771261
1.1192570869990224
1.2013685239491692
1.310850439882698
1.4467253176930597
1.6041055718475072
1.7761485826001957
1.9560117302052784
2.134897360703812
2.283479960899316
2.407624633431085
2.533724340175953
2.6471163245356792
2.7419354838709675
2.8152492668621703
2.8690127077223853
2.9042033235581624
2.924731182795699
2.9335288367546437
2.932551319648094
2.9227761485826003
2.903225806451613
2.87683284457478
2.844574780058651
2.8044965786901277
2.7565982404692084
2.699902248289345
2.633431085043988
2.558162267839687
2.4760508308895406
2.389051808406647
2.300097751710655
2.2130987292277613
2.1300097751710654
2.059628543499511
2.0
1.9442815249266865
1.8963831867057677
1.8563049853372435
1.823069403714565
1.796676441837732
1.775171065493646
1.7556207233626588
1.737047898338221
1.718475073313783
1.696969696969697
1.6774193548387095
1.656891495601173
1.632453567937439
1.6050830889540566
1.5757575757575757
1.5454545454545454
1.5141739980449658
1.482893450635386
1.4516129032258065
1.4203323558162269
1.3900293255131966
1.3616813294232648
1.3343108504398826
1.3128054740957966
1.2942326490713587
1.2746823069403714
1.2551319648093842
1.2346041055718475
1.2150537634408602
1.1964809384164223
1.1788856304985338
1.1612903225806452
1.1456500488758554
1.133919843597263
1.1241446725317692
1.118279569892473
1.1143695014662756
1.1085043988269794
1.1016617790811338
1.093841642228739
1.0869990224828934
1.0791788856304985
1.072336265884653
1.0664711632453567
1.0625610948191593
1.0596285434995112
1.056695992179863
1.0527859237536656
1.050830889540567
1.0498533724340176
1.0469208211143697
1.043010752688172
1.0391006842619743
1.035190615835777
1.032258064516129
1.029325513196481
1.0273704789833822
1.0254154447702837
1.0234604105571847
1.021505376344086
1.021505376344086
1.0224828934506354
1.021505376344086
1.0195503421309873
1.0175953079178883
1.0156402737047898
1.021505376344086
1.0312805474095796
1.0361681329423265
1.0391006842619743
1.0420332355816226
1.0449657869012707
1.0478983382209188
1.0527859237536656
1.0576735092864125
1.0606060606060606
1.0606060606060606
1.0596285434995112
1.0596285434995112
1.064516129032258
1.0772238514173995
1.104594330400782
1.1515151515151516
1.2228739002932552
1.3206256109481915
1.4242424242424243
1.5395894428152492
1.6871945259042034
1.855327468230694
2.0332355816226784
2.210166177908113
2.3792766373411536
2.5317693059628543
2.6637341153470184
2.773216031280548
2.859237536656892
2.9227761485826003
2.9667644183773216
2.989247311827957
2.997067448680352
3.0
2.997067448680352
2.9872922776148583
2.9716520039100685
2.948191593352884
2.917888563049853
2.878787878787879
2.8299120234604107
2.771260997067449
2.702834799608993
2.634408602150537
2.563049853372434
2.4809384164222874
2.393939393939394
2.3069403714565007
2.222873900293255
2.1436950146627565
2.072336265884653
2.0117302052785924
1.959921798631476
1.9159335288367547
1.878787878787879
1.8484848484848484
1.8240469208211143
1.8025415444770283
1.7810361681329423
1.7605083088954057
1.7390029325513197
1.715542521994135
1.6911045943304008
1.6656891495601174
1.6383186705767352
1.608993157380254
1.5777126099706744
1.5454545454545454
1.5161290322580645
1.4897360703812317
1.4604105571847508
1.4291300097751711
1.3988269794721409
1.3685239491691104
1.3391984359726294
1.3128054740957966
1.2883675464320623
1.2639296187683284
1.2404692082111437
1.219941348973607
1.2003910068426198
1.1857282502443791
1.173998044965787
1.160312805474096
1.1456500488758554
1.1319648093841643
1.1192570869990224
1.10752688172043
1.096774193548387
1.0879765395894427
1.0801564027370478
1.0733137829912025
1.067448680351906
1.064516129032258
1.0635386119257086
1.0606060606060606
1.0557184750733135
1.050830889540567
1.04594330400782
1.0420332355816226
1.0381231671554252
1.0342130987292275
1.0303030303030305
1.0263929618768328
1.0224828934506354
1.018572825024438
1.0175953079178883
1.0175953079178883
1.0156402737047898
1.013685239491691
1.0127077223851415
1.010752688172043
1.0097751710654936
1.007820136852395
1.0048875855327468
1.0019550342130987
0.9990224828934506
0.9960899315738024
0.997067448680352
1.0
1.0009775171065494
1.0019550342130987
1.0019550342130987
1.002932551319648
1.0039100684261977
1.0058651026392962
1.0068426197458455
1.007820136852395
1.0087976539589445
1.0127077223851415
1.021505376344086
1.0391006842619743
1.0684261974584557
1.1143695014662756
1.181818181818182
1.2756598240469208
1.3958944281524928
1.5395894428152492
1.7028347996089932
1.87683284457478
2.0547409579667644
2.2267839687194524
2.386119257086999
2.5102639296187683
2.6070381231671558
2.6989247311827955
2.777126099706745
2.838709677419355
2.8826979472140764
2.9120234604105573
2.927663734115347
2.932551319648094
2.927663734115347
2.913000977517106
2.8905180840664717
2.860215053763441
2.823069403714565
2.779081133919844
2.7262952101661777
2.6637341153470184
2.592375366568915
2.5141739980449658
2.4301075268817205
2.343108504398827
2.2561094819159337
2.172043010752688
2.093841642228739
2.0234604105571847
1.9667644183773216
1.919843597262952
1.87683284457478
1.8406647116324533
1.8103616813294232
1.7849462365591398
1.7644183773216031
1.7448680351906158
1.7253176930596286
1.7067448680351909
1.686217008797654
1.6637341153470186
1.643206256109482
1.6226783968719452
1.598240469208211
1.5708699902248289
1.541544477028348
1.5102639296187683
1.478005865102639
1.4457478005865103
1.414467253176931
1.3841642228739004
1.35386119257087
1.3255131964809383
1.2981427174975562
1.2776148582600195
1.260019550342131
1.2394916911045943
1.219941348973607
1.2003910068426198
1.1827956989247312
1.166177908113392
1.1495601173020529
1.1348973607038124
1.1221896383186705
1.110459433040078
1.1016617790811338
1.096774193548387
1.0948191593352885
1.0909090909090908
1.086021505376344
1.0791788856304985
1.072336265884653
1.0654936461388074
1.0596285434995112
1.053763440860215
1.0478983382209188
1.043010752688172
1.0391006842619743
1.035190615835777
1.0342130987292275
1.035190615835777
1.0332355816226784
1.0303030303030305
1.0273704789833822
1.0234604105571847
1.0205278592375366
1.018572825024438
1.0175953079178883
1.0166177908113392
1.0166177908113392
1.0166177908113392
1.018572825024438
1.0224828934506354
1.024437927663734
1.0254154447702837
1.0254154447702837
1.0234604105571847
1.021505376344086
1.0195503421309873
1.018572825024438
1.018572825024438
1.018572825024438
1.018572825024438
1.0205278592375366
1.0254154447702837
1.0303030303030305
1.0332355816226784
1.0361681329423265
1.0391006842619743
1.0449657869012707
1.0586510263929618
1.0850439882697946
1.1300097751710656
1.1974584555229717
1.289345063538612
1.4066471163245358
1.5249266862170088
1.6490713587487782
1.8025415444770283
1.970674486803519
2.142717497556207
2.30791788856305
2.458455522971652
2.590420332355816
2.7008797653958942
2.787878787878788
2.852394916911046
2.897360703812317
2.9257086999022484
2.9345063538611926
2.9315738025415445
2.9227761485826003
2.90811339198436
2.886608015640274
2.859237536656892
2.825024437927664
2.782013685239492
2.730205278592375
2.6695992179863146
2.60019550342131
2.5239491691104594
2.449657869012708
2.377321603128055
2.297165200391007
2.2170087976539588
2.139784946236559
2.069403714565005
2.006842619745845
1.9521016617790807
1.906158357771261
1.869012707722385
1.8387096774193548
1.8142717497556209
1.793743890518084
1.7781036168132942
1.7634408602150538
1.747800586510264
1.729227761485826
1.70772238514174
1.6842619745845553
1.6598240469208212
1.632453567937439
1.6050830889540566
1.576735092864125
1.547409579667644
1.517106549364614
1.4916911045943304
1.4682306940371457
1.4418377321603129
1.414467253176931
1.3870967741935485
1.359726295210166
1.3343108504398826
1.3098729227761483
1.2864125122189638
1.2658846529814272
1.24633431085044
1.2297165200391007
1.2150537634408602
1.2043010752688172
1.1964809384164223
1.1867057673509287
1.1779081133919844
1.1691104594330402
1.1612903225806452
1.1544477028347997
1.1485826001955035
1.144672531769306
1.1397849462365592
1.1348973607038124
1.1290322580645162
1.126099706744868
1.1241446725317692
1.1202346041055715
1.115347018572825
1.1114369501466277
1.10752688172043
1.1036168132942326
1.099706744868035
1.096774193548387
1.093841642228739
1.0899315738025417
1.086021505376344
1.0821114369501466
1.0811339198435972
1.0821114369501466
1.0821114369501466
1.0811339198435972
1.0791788856304985
1.078201368523949
1.0772238514173995
1.0772238514173995
1.0762463343108504
1.075268817204301
1.0733137829912025
1.0713587487781036
1.072336265884653
1.0762463343108504
1.0791788856304985
1.0811339198435972
1.083088954056696
1.0850439882697946
1.0869990224828934
1.0879765395894427
1.088954056695992
1.0909090909090908
1.0948191593352885
1.1036168132942326
1.118279569892473
1.142717497556207
1.18475073313783
1.249266862170088
1.3391984359726294
1.455522971652004
1.595307917888563
1.7546432062561097
1.927663734115347
2.104594330400782
2.27761485826002
2.4389051808406648
2.581622678396872
2.689149560117302
2.7702834799608995
2.843597262952102
2.902248289345064
2.946236559139785
2.9765395894428157
2.9931573802541545
2.99902248289345
2.995112414467253
2.98435972629521
2.9667644183773216
2.941348973607038
2.909090909090909
2.8699902248289346
2.823069403714565
2.7673509286412514
2.701857282502444
2.627565982404692
2.5464320625610948
2.4604105571847508
2.3734115347018574
2.2883675464320627
2.2082111436950145
2.134897360703812
2.071358748778104
2.0205278592375366
1.9804496578690127
1.9442815249266865
1.9130009775171064
1.8866080156402736
1.8641251221896384
1.842619745845552
1.822091886608016
1.801564027370479
1.780058651026393
1.7556207233626588
1.7302052785923754
1.7067448680351909
1.6823069403714566
1.6549364613880744
1.6256109481915937
1.5943304007820136
1.5610948191593352
1.5278592375366569
1.4946236559139785
1.4613880742913
1.4301075268817205
1.3998044965786902
1.3724340175953078
1.346041055718475
1.324535679374389
1.3079178885630498
1.289345063538612
1.270772238514174
1.2531769305962854
1.2365591397849462
1.2218963831867058
1.2082111436950147
1.1945259042033236
1.181818181818182
1.1691104594330402
1.1573802541544478
1.1495601173020529
1.142717497556207
1.1348973607038124
1.1270772238514175
1.1192570869990224
1.1124144672531768
1.10752688172043
1.1036168132942326
1.0987292277614855
1.0928641251221896
1.0869990224828934
1.0811339198435972
1.075268817204301
1.072336265884653
1.0713587487781036
1.067448680351906
1.0635386119257086
1.0586510263929618
1.053763440860215
1.050830889540567
1.0488758553274682
1.0478983382209188
1.0469208211143697
1.0469208211143697
1.0469208211143697
1.0488758553274682
1.050830889540567
1.050830889540567
1.0498533724340176
1.0478983382209188
1.0469208211143697
1.04594330400782
1.0449657869012707
1.0449657869012707
1.0449657869012707
1.0449657869012707
1.0449657869012707
1.04594330400782
1.0478983382209188
1.050830889540567
1.0527859237536656
1.0557184750733135
1.0606060606060606
1.0742913000977516
1.1016617790811338
1.147605083088954
1.2160312805474096
1.310850439882698
1.43108504398827
1.5757575757575757
1.7145650048875856
