ppg
1.5180840664711632
1.4838709677419355
1.4506353861192571
1.418377321603128
1.388074291300098
1.359726295210166
1.3333333333333333
1.3079178885630498
1.284457478005865
1.2668621700879763
1.252199413489736
1.2355816226783969
1.2179863147605083
1.2013685239491692
1.1857282502443791
1.1710654936461389
1.1573802541544478
1.1456500488758554
1.1358748778103618
1.126099706744868
1.1163245356793745
1.110459433040078
1.104594330400782
1.096774193548387
1.088954056695992
1.0791788856304985
1.0694037145650048
1.0596285434995112
1.050830889540567
1.043010752688172
1.0361681329423265
1.0303030303030305
1.024437927663734
1.0175953079178883
1.013685239491691
1.0117302052785924
1.007820136852395
1.0039100684261977
0.9990224828934506
0.9951124144672532
0.9921798631476052
0.9902248289345064
0.9882697947214076
0.9853372434017597
0.9833822091886608
0.981427174975562
0.9824046920821116
0.9843597262952102
0.9833822091886608
0.9824046920821116
0.9824046920821116
0.9824046920821116
0.9824046920821116
0.9824046920821116
0.9824046920821116
0.9824046920821116
0.9824046920821116
0.9833822091886608
0.9843597262952102
0.9882697947214076
0.9931573802541545
0.9980449657869012
1.0019550342130987
1.0039100684261977
1.0058651026392962
1.0087976539589445
1.0166177908113392
1.0312805474095796
1.0596285434995112
1.10752688172043
1.1808406647116323
1.2649071358748778
1.3655913978494625
1.501466275659824
1.664711632453568
1.844574780058651
2.0303030303030303
2.2111436950146626
2.378299120234604
2.5249266862170088
2.649071358748778
2.748778103616813
2.8260019550342133
2.8826979472140764
2.9149560117302054
2.9315738025415445
2.946236559139785
2.956011730205278
2.961876832844575
2.963831867057673
2.949169110459433
2.921798631476051
2.897360703812317
2.8699902248289346
2.8367546432062563
2.7947214076246336
2.747800586510264
2.6940371456500487
2.63049853372434
2.5591397849462365
2.4809384164222874
2.39980449657869
2.317693059628544
2.2375366568914954
2.1622678396871944
2.093841642228739
2.035190615835777
1.9853372434017595
1.943304007820137
1.9100684261974583
1.8826979472140764
1.8563049853372435
1.83088954056696
1.8054740957966764
1.780058651026393
1.75366568914956
1.7253176930596286
1.6959921798631477
1.6656891495601174
1.6334310850439884
1.6011730205278591
1.5728250244379276
1.5464320625610948
1.517106549364614
1.4858260019550342
1.4545454545454546
1.4242424242424243
1.3949169110459434
1.3665689149560116
1.3401759530791788
1.3157380254154447
1.2942326490713587
1.273704789833822
1.2551319648093842
1.2424242424242424
1.2316715542521994
1.2189638318670577
1.206256109481916
1.1945259042033236
1.1837732160312806
1.1730205278592376
1.164222873900293
1.155425219941349
1.1466275659824048
1.1378299120234605
1.1290322580645162
1.1231671554252198
1.118279569892473
1.1124144672531768
1.1055718475073313
1.0987292277614855
1.0909090909090908
1.083088954056696
1.0762463343108504
1.0684261974584557
1.06158357771261
1.0557184750733135
1.0498533724340176
1.043010752688172
1.040078201368524
1.0391006842619743
1.0361681329423265
1.032258064516129
1.0283479960899315
1.0254154447702837
1.0234604105571847
1.021505376344086
1.0195503421309873
1.018572825024438
1.0175953079178883
1.0156402737047898
1.0166177908113392
1.018572825024438
1.0195503421309873
1.0205278592375366
1.0205278592375366
1.0205278592375366
1.0205278592375366
1.021505376344086
1.0234604105571847
1.0254154447702837
1.0263929618768328
1.0283479960899315
1.0303030303030305
1.0342130987292275
1.040078201368524
1.0439882697947214
1.0488758553274682
1.056695992179863
1.0733137829912025
1.104594330400782
1.1573802541544478
1.2375366568914956
1.346041055718475
1.4819159335288368
1.640273704789834
1.7898338220918866
1.9345063538611929
2.0977517106549364
2.26197458455523
2.41544477028348
2.548387096774193
2.659824046920821
2.748778103616813
2.817204301075269
2.8670576735092865
2.902248289345064
2.9257086999022484
2.941348973607038
2.945259042033236
2.9423264907135875
2.9393939393939394
2.9345063538611926
2.9257086999022484
2.911045943304008
2.8885630498533725
2.8563049853372435
2.8152492668621703
2.764418377321604
2.7038123167155423
2.634408602150537
2.5650048875855327
2.493646138807429
2.4144672531769307
2.3313782991202348
2.249266862170088
2.172043010752688
2.101661779081134
2.0391006842619745
1.9853372434017595
1.9393939393939397
1.9012707722385145
1.869012707722385
1.842619745845552
1.8191593352883677
1.7947214076246334
1.76930596285435
1.7429130009775171
1.7145650048875856
1.6842619745845553
1.6520039100684265
1.6187683284457477
1.585532746823069
1.5513196480938416
1.517106549364614
1.4838709677419355
1.456500488758553
1.4320625610948192
1.4056695992179864
1.3792766373411536
1.35386119257087
1.3294232649071358
1.305962854349951
1.284457478005865
1.2639296187683284
1.2453567937438903
1.2287390029325511
1.2130987292277615
1.2023460410557183
1.1935483870967742
1.1837732160312806
1.173998044965787
1.163245356793744
1.1534701857282503
1.142717497556207
1.130987292277615
1.1202346041055715
1.110459433040078
1.1016617790811338
1.093841642228739
1.0869990224828934
1.083088954056696
1.0801564027370478
1.0742913000977516
1.067448680351906
1.0596285434995112
1.0527859237536656
1.0449657869012707
1.0381231671554252
1.032258064516129
1.0263929618768328
1.021505376344086
1.0166177908113392
1.0146627565982405
1.0156402737047898
1.013685239491691
1.0117302052785924
1.0097751710654936
1.007820136852395
1.0058651026392962
1.0039100684261977
1.002932551319648
1.002932551319648
1.002932551319648
1.002932551319648
1.002932551319648
1.0048875855327468
1.0068426197458455
1.007820136852395
1.0087976539589445
1.0097751710654936
1.0117302052785924
1.0127077223851415
1.0146627565982405
1.0166177908113392
1.0195503421309873
1.0234604105571847
1.0263929618768328
1.0312805474095796
1.0371456500488758
1.043010752688172
1.050830889540567
1.0664711632453567
1.0957966764418376
1.1456500488758554
1.2209188660801564
1.324535679374389
1.456500488758553
1.6138807429130009
1.7888563049853372
1.9716520039100685
2.129032258064516
2.2668621700879767
2.409579667644184
2.541544477028348
2.654936461388074
2.7468230694037143
2.8181818181818183
2.870967741935484
2.90811339198436
2.9345063538611926
2.951124144672532
2.960899315738025
2.959921798631476
2.952101661779081
2.9442815249266863
2.9335288367546437
2.917888563049853
2.895405669599218
2.866080156402737
2.827956989247312
2.7810361681329425
2.7233626588465296
2.654936461388074
2.579667644183773
2.498533724340176
2.4271749755620724
2.360703812316716
2.286412512218964
2.2111436950146626
2.1417399804496577
2.0791788856304985
2.024437927663734
1.9775171065493649
1.93841642228739
1.9042033235581624
1.8729227761485825
1.8435972629521016
1.818181818181818
1.793743890518084
1.7663734115347018
1.737047898338221
1.704789833822092
1.6705767350928642
1.6363636363636365
1.6021505376344083
1.565982404692082
1.530791788856305
1.4965786901270772
1.4633431085043989
1.43108504398827
1.404692082111437
1.3822091886608017
1.3577712609970674
1.3333333333333333
1.3098729227761483
1.2873900293255132
1.2668621700879763
1.2473118279569892
1.2287390029325511
1.2111436950146628
1.195503421309873
1.1808406647116323
1.1700879765395895
1.1622678396871946
1.152492668621701
1.142717497556207
1.1329423264907137
1.1231671554252198
1.1143695014662756
1.1065493646138806
1.099706744868035
1.0909090909090908
1.0821114369501466
1.0733137829912025
1.064516129032258
1.0586510263929618
1.0557184750733135
1.050830889540567
1.04594330400782
1.0410557184750733
1.035190615835777
1.029325513196481
1.0234604105571847
1.018572825024438
1.013685239491691
1.007820136852395
1.002932551319648
1.0019550342130987
1.0019550342130987
1.0009775171065494
1.0009775171065494
1.0009775171065494
1.0009775171065494
1.0009775171065494
1.0009775171065494
1.0009775171065494
1.0009775171065494
1.0009775171065494
1.0009775171065494
1.0009775171065494
1.002932551319648
1.0058651026392962
1.0058651026392962
1.0058651026392962
1.0058651026392962
1.0068426197458455
1.0087976539589445
1.010752688172043
1.0127077223851415
1.0146627565982405
1.0166177908113392
1.0195503421309873
1.0263929618768328
1.0371456500488758
1.0547409579667644
1.0869990224828934
1.1397849462365592
1.2189638318670577
1.3284457478005864
1.466275659824047
1.6285434995112416
1.8074291300097751
1.9931573802541545
2.174975562072336
2.345063538611926
2.4780058651026398
2.582600195503421
2.681329423264907
2.764418377321604
2.8299120234604107
2.878787878787879
2.913000977517106
2.9374389051808407
2.9530791788856305
2.962854349951124
2.9667644183773216
2.9657869012707723
2.956989247311828
2.941348973607038
2.921798631476051
2.897360703812317
2.865102639296188
2.823069403714565
2.7722385141739982
2.7116324535679373
2.641251221896383
2.5620723362658846
2.47702834799609
2.3900293255131966
2.3118279569892475
2.2404692082111435
2.1681329423264906
2.1006842619745845
2.040078201368524
1.988269794721408
1.943304007820137
1.905180840664712
1.871945259042033
1.8416422287390029
1.8132942326490715
1.7859237536656891
1.758553274682307
1.7331378299120237
1.7086999022482894
1.6803519061583578
1.6500488758553276
1.6187683284457477
1.5865102639296187
1.5532746823069403
1.520039100684262
1.4868035190615836
1.4545454545454546
1.423264907135875
1.392961876832845
1.3695014662756595
1.3499511241446724
1.3284457478005864
1.3069403714565004
1.2864125122189638
1.2668621700879763
1.2473118279569892
1.2287390029325511
1.2121212121212122
1.1974584555229717
1.1837732160312806
1.1710654936461389
1.1593352883675463
1.152492668621701
1.1466275659824048
1.1397849462365592
1.130987292277615
1.121212121212121
1.1114369501466277
1.1026392961876832
1.0948191593352885
1.0850439882697946
1.0762463343108504
1.067448680351906
1.0586510263929618
1.0547409579667644
1.0518084066471165
1.0478983382209188
1.043010752688172
1.0371456500488758
1.032258064516129
1.0273704789833822
1.021505376344086
1.0166177908113392
1.0117302052785924
1.007820136852395
1.0048875855327468
1.0019550342130987
1.0019550342130987
1.0039100684261977
1.0039100684261977
1.0039100684261977
1.002932551319648
1.0019550342130987
1.0009775171065494
1.0009775171065494
1.0009775171065494
1.0009775171065494
1.0019550342130987
1.002932551319648
1.0058651026392962
1.0097751710654936
1.0127077223851415
1.0146627565982405
1.0166177908113392
1.018572825024438
1.0205278592375366
1.0234604105571847
1.0273704789833822
1.0303030303030305
1.0332355816226784
1.0371456500488758
1.0420332355816226
1.050830889540567
1.0664711632453567
1.0928641251221896
1.1378299120234605
1.2082111436950147
1.3079178885630498
1.436950146627566
1.5923753665689149
1.7683284457478006
1.9530791788856303
2.1378299120234603
2.312805474095797
2.450635386119257
2.560117302052786
2.6637341153470184
2.752688172043011
2.8240469208211145
2.878787878787879
2.917888563049853
2.945259042033236
2.963831867057673
2.975562072336266
2.9804496578690127
2.9804496578690127
2.9745845552297165
2.960899315738025
2.940371456500489
2.9149560117302054
2.8826979472140764
2.841642228739003
2.790811339198436
2.730205278592375
2.6608015640273703
2.582600195503421
2.498533724340176
2.412512218963832
2.3274682306940373
2.2521994134897363
2.185728250244379
2.121212121212121
2.06158357771261
2.010752688172043
1.9667644183773216
1.9296187683284456
1.900293255131965
1.8748778103616808
1.8494623655913975
1.8240469208211143
1.7976539589442817
1.76930596285435
1.7429130009775171
1.7174975562072337
1.6881720430107527
1.6559139784946235
1.6217008797653958
1.587487781036168
1.552297165200391
1.5180840664711632
1.4848484848484849
1.452590420332356
1.4213098729227762
1.392961876832845
1.3695014662756595
1.3499511241446724
1.3294232649071358
1.3088954056695992
1.289345063538612
1.2727272727272727
1.2561094819159335
1.2404692082111437
1.2258064516129032
1.2121212121212122
1.1974584555229717
1.1837732160312806
1.1710654936461389
1.163245356793744
1.1573802541544478
1.1505376344086022
1.142717497556207
1.133919843597263
1.1251221896383188
1.1173020527859236
1.1094819159335287
1.1026392961876832
1.0957966764418376
1.0879765395894427
1.0791788856304985
1.0742913000977516
1.0703812316715542
1.064516129032258
1.0586510263929618
1.0518084066471165
1.04594330400782
1.040078201368524
1.0342130987292275
1.029325513196481
1.024437927663734
1.0205278592375366
1.0175953079178883
1.0146627565982405
1.0146627565982405
1.0166177908113392
1.0175953079178883
1.0175953079178883
1.0166177908113392
1.0156402737047898
1.013685239491691
1.0117302052785924
1.0097751710654936
1.0087976539589445
1.0068426197458455
1.0058651026392962
1.007820136852395
1.0117302052785924
1.0146627565982405
1.0166177908113392
1.018572825024438
1.0205278592375366
1.0224828934506354
1.0254154447702837
1.0283479960899315
1.0312805474095796
1.035190615835777
1.0410557184750733
1.050830889540567
1.0684261974584557
1.0987292277614855
1.147605083088954
1.2228739002932552
1.327468230694037
1.4623655913978495
1.6226783968719452
1.801564027370479
1.988269794721408
2.1730205278592374
2.347018572825025
2.5024437927663734
2.619745845552297
2.708699902248289
2.789833822091887
2.8563049853372435
2.909090909090909
2.948191593352884
2.975562072336266
2.995112414467253
3.007820136852395
3.013685239491691
3.013685239491691
3.0087976539589443
2.995112414467253
2.9745845552297165
2.9501466275659824
2.919843597262952
2.881720430107527
2.833822091886608
2.7751710654936463
2.7067448680351904
2.6295210166177907
2.5454545454545454
2.458455522971652
2.3714565004887587
2.286412512218964
2.21505376344086
2.15347018572825
2.0948191593352883
2.0410557184750733
1.994134897360704
1.95405669599218
1.919843597262952
1.889540566959922
1.86119257086999
1.8328445747800584
1.804496578690127
1.775171065493646
1.747800586510264
1.721407624633431
1.6911045943304008
1.6588465298142718
1.624633431085044
1.590420332355816
1.5562072336265884
1.521994134897361
1.4887585532746823
1.456500488758553
1.4252199413489737
1.3949169110459434
1.3665689149560116
1.3440860215053765
1.324535679374389
1.3040078201368523
1.2834799608993157
1.2639296187683284
1.2453567937438903
1.2287390029325511
1.2130987292277615
1.198435972629521
1.18475073313783
1.1730205278592376
1.163245356793744
1.1573802541544478
1.152492668621701
1.1456500488758554
1.1378299120234605
1.1290322580645162
1.1192570869990224
1.110459433040078
1.1016617790811338
1.0928641251221896
1.0850439882697946
1.0762463343108504
1.0684261974584557
1.0606060606060606
1.056695992179863
1.0547409579667644
1.0498533724340176
1.0439882697947214
1.0381231671554252
1.032258064516129
1.0273704789833822
1.0224828934506354
1.0175953079178883
1.0127077223851415
1.0097751710654936
1.007820136852395
1.007820136852395
1.0097751710654936
1.0097751710654936
1.0087976539589445
1.007820136852395
1.0068426197458455
1.0058651026392962
1.0048875855327468
1.0048875855327468
1.0048875855327468
1.0048875855327468
1.0048875855327468
1.0058651026392962
1.0097751710654936
1.0146627565982405
1.0175953079178883
1.0205278592375366
1.0234604105571847
1.0263929618768328
1.0283479960899315
1.0303030303030305
1.032258064516129
1.035190615835777
1.043010752688172
1.0576735092864125
1.0801564027370478
1.1143695014662756
1.1710654936461389
1.2561094819159335
1.3714565004887584
1.5161290322580645
1.683284457478006
1.865102639296188
2.0518084066471163
2.232649071358749
2.39980449657869
2.5464320625610948
2.6695992179863146
2.7565982404692084
2.817204301075269
2.8699902248289346
2.9120234604105573
2.943304007820137
2.9657869012707723
2.9804496578690127
2.9902248289345064
2.994134897360704
2.992179863147605
2.98435972629521
2.9696969696969697
2.9472140762463344
2.917888563049853
2.881720430107527
2.8367546432062563
2.782013685239492
2.717497556207233
2.643206256109482
2.5620723362658846
2.4760508308895406
2.389051808406647
2.303030303030303
2.222873900293255
2.150537634408602
2.090909090909091
2.0410557184750733
1.9960899315738023
1.956989247311828
1.9227761485826005
1.8934506353861196
1.866080156402737
1.839687194525904
1.8132942326490715
1.7859237536656891
1.7565982404692082
1.726295210166178
1.6979472140762464
1.6686217008797657
1.6344086021505375
1.6001955034213098
1.565982404692082
1.5317693059628543
1.4975562072336266
1.4643206256109482
1.4330400782013686
1.4037145650048877
1.3763440860215057
1.3499511241446724
1.3255131964809383
1.305962854349951
1.2903225806451613
1.273704789833822
1.2570869990224829
1.241446725317693
1.2267839687194526
1.2130987292277615
1.2013685239491692
1.1896383186705768
1.1779081133919844
1.1671554252199414
1.1573802541544478
1.1505376344086022
1.144672531769306
1.1368523949169111
1.1290322580645162
1.1202346041055715
1.1114369501466277
1.1026392961876832
1.093841642228739
1.0840664711632453
1.075268817204301
1.067448680351906
1.0606060606060606
1.053763440860215
1.050830889540567
1.0498533724340176
1.0469208211143697
1.043010752688172
1.0381231671554252
1.0332355816226784
1.0283479960899315
1.0234604105571847
1.018572825024438
1.013685239491691
1.010752688172043
1.007820136852395
1.007820136852395
1.0097751710654936
1.0097751710654936
1.0087976539589445
1.007820136852395
1.0068426197458455
1.0058651026392962
1.0048875855327468
1.0048875855327468
1.0048875855327468
1.0058651026392962
1.0058651026392962
1.0087976539589445
1.0127077223851415
1.0156402737047898
1.018572825024438
1.0205278592375366
1.0234604105571847
1.0263929618768328
1.0303030303030305
1.035190615835777
1.0420332355816226
1.0557184750733135
1.0811339198435972
1.1251221896383188
1.1808406647116323
1.2541544477028348
1.359726295210166
1.4965786901270772
1.6588465298142718
1.8377321603128052
2.022482893450636
2.204301075268817
2.3734115347018574
2.52297165200391
2.649071358748778
2.7497556207233624
2.8181818181818183
2.863147605083089
2.902248289345064
2.9315738025415445
2.9530791788856305
2.967741935483871
2.9765395894428157
2.979472140762464
2.978494623655914
2.972629521016618
2.960899315738025
2.9423264907135875
2.9159335288367547
2.8826979472140764
2.841642228739003
2.790811339198436
2.729227761485826
2.6578690127077222
2.579667644183773
2.496578690127077
2.410557184750733
2.3255131964809386
2.244379276637341
2.1700879765395893
2.102639296187683
2.047898338220919
2.002932551319648
1.9608993157380252
1.9237536656891496
1.8914956011730208
1.8631476050830889
1.835777126099707
1.8093841642228736
1.7820136852394917
1.7526881720430108
1.7223851417399805
1.6901270772238517
1.656891495601173
1.6275659824046922
1.5992179863147604
1.5679374389051808
1.5347018572825024
1.501466275659824
1.4682306940371457
1.435972629521017
1.4056695992179864
1.3763440860215057
1.348973607038123
1.3235581622678396
1.300097751710655
1.2825024437927663
1.267839687194526
1.2531769305962854
1.2375366568914956
1.2228739002932552
1.2082111436950147
1.1945259042033236
1.1808406647116323
1.1681329423264908
1.1564027370478984
1.1456500488758554
1.1348973607038124
1.1251221896383188
1.118279569892473
1.1133919843597262
1.10752688172043
1.1006842619745845
1.0928641251221896
1.0850439882697946
1.0772238514173995
1.0694037145650048
1.0606060606060606
1.0518084066471165
1.0439882697947214
1.0361681329423265
1.0312805474095796
1.029325513196481
1.0254154447702837
1.0195503421309873
1.013685239491691
1.0087976539589445
1.0039100684261977
1.0
0.997067448680352
0.9960899315738024
0.9951124144672532
0.9951124144672532
0.9951124144672532
0.997067448680352
0.9990224828934506
1.0
1.0009775171065494
1.0009775171065494
1.0009775171065494
1.0009775171065494
1.0009775171065494
1.0009775171065494
1.0009775171065494
1.0009775171065494
1.0009775171065494
1.0039100684261977
1.0087976539589445
1.0117302052785924
1.0146627565982405
1.0166177908113392
1.018572825024438
1.021505376344086
1.024437927663734
1.0283479960899315
1.0361681329423265
1.0518084066471165
1.0791788856304985
1.126099706744868
1.1837732160312806
1.260019550342131
1.370478983382209
1.512218963831867
1.6774193548387095
1.8592375366568916
2.046920821114369
2.228739002932551
2.3978494623655915
2.5464320625610948
2.670576735092864
2.7702834799608995
2.8377321603128056
2.881720430107527
2.917888563049853
2.945259042033236
2.9657869012707723
2.9804496578690127
2.9902248289345064
2.995112414467253
2.9960899315738025
2.991202346041056
2.979472140762464
2.959921798631476
2.9315738025415445
2.895405669599218
2.8514173998044967
2.798631476050831
2.7370478983382207
2.6666666666666665
2.587487781036168
2.5034213098729228
2.4173998044965788
2.3313782991202348
2.249266862170088
2.1739980449657867
2.1065493646138806
2.0527859237536656
2.0087976539589443
1.967741935483871
1.9315738025415443
1.8993157380254155
1.8699902248289344
1.8416422287390029
1.8132942326490715
1.7839687194525904
1.7546432062561097
1.7243401759530792
1.6920821114369502
1.6588465298142718
1.629521016617791
1.6011730205278591
1.5698924731182795
1.5366568914956011
1.5034213098729228
1.4711632453567938
1.439882697947214
1.4105571847507332
1.3851417399804498
1.359726295210166
1.335288367546432
1.313782991202346
1.2961876832844574
1.2825024437927663
1.267839687194526
1.2531769305962854
1.238514173998045
1.2238514173998043
1.2101661779081134
1.198435972629521
1.1867057673509287
1.1749755620723363
1.164222873900293
1.152492668621701
1.1407624633431086
1.1319648093841643
1.126099706744868
1.118279569892473
1.1094819159335287
1.099706744868035
1.0909090909090908
1.083088954056696
1.075268817204301
1.0684261974584557
1.0625610948191593
1.056695992179863
1.050830889540567
1.0478983382209188
1.0469208211143697
1.0439882697947214
1.0391006842619743
1.0342130987292275
1.029325513196481
1.024437927663734
1.0195503421309873
1.0166177908113392
1.013685239491691
1.0117302052785924
1.0097751710654936
1.010752688172043
1.0127077223851415
1.0127077223851415
1.0117302052785924
1.010752688172043
1.0097751710654936
1.0087976539589445
1.007820136852395
1.007820136852395
1.007820136852395
1.007820136852395
1.0087976539589445
1.0097751710654936
1.013685239491691
1.018572825024438
1.021505376344086
1.024437927663734
1.0263929618768328
1.029325513196481
1.032258064516129
1.0361681329423265
1.0420332355816226
1.0527859237536656
1.0742913000977516
1.1114369501466277
1.1593352883675463
1.2258064516129032
1.324535679374389
1.4535679374389052
1.608993157380254
1.782991202346041
1.9657869012707725
2.147605083088954
2.3196480938416424
2.4750733137829912
2.6080156402737047
2.716520039100684
2.801564027370479
2.8563049853372435
2.8905180840664717
2.919843597262952
2.943304007820137
2.9589442815249267
2.9696969696969697
2.9745845552297165
2.9745845552297165
2.9687194525904204
2.956011730205278
2.9345063538611926
2.903225806451613
2.8641251221896384
2.81622678396872
2.7565982404692084
2.686217008797654
2.606060606060606
2.5180840664711632
2.4252199413489737
2.3304007820136854
2.2385141739980448
2.1524926686217007
2.0733137829912023
2.0019550342130987
1.9393939393939397
1.8905180840664717
1.8514173998044965
1.8162267839687196
1.7869012707722385
1.7624633431085044
1.7409579667644184
1.721407624633431
1.7028347996089932
1.683284457478006
1.66177908113392
1.6392961876832846
1.6158357771260996
1.595307917888563
1.5747800586510263
1.552297165200391
1.5298142717497556
1.5063538611925709
1.4838709677419355
1.4613880742913
1.439882697947214
1.4193548387096775
1.3988269794721409
1.3792766373411536
1.3607038123167154
1.3411534701857282
1.3255131964809383
1.3098729227761483
1.2913000977517106
1.2697947214076246
1.24633431085044
1.2228739002932552
