ppg
2.8396871945259043
2.865102639296188
2.8807429130009776
2.887585532746823
2.886608015640274
2.878787878787879
2.865102639296188
2.84652981427175
2.823069403714565
2.795698924731183
2.764418377321604
2.730205278592375
2.6930596285435
2.6529814271749754
2.6099706744868034
2.563049853372434
2.512218963831867
2.455522971652004
2.393939393939394
2.326490713587488
2.2521994134897363
2.172043010752688
2.096774193548387
2.022482893450636
1.9393939393939397
1.8533724340175952
1.76930596285435
1.6881720430107527
1.6148582600195502
1.5513196480938416
1.498533724340176
1.457478005865103
1.4271749755620724
1.4056695992179864
1.392961876832845
1.3841642228739004
1.375366568914956
1.3665689149560116
1.3587487781036167
1.3499511241446724
1.3391984359726294
1.3264907135874875
1.3118279569892473
1.2961876832844574
1.2795698924731185
1.262952101661779
1.2453567937438903
1.2326490713587488
1.2218963831867058
1.209188660801564
1.1945259042033236
1.1788856304985338
1.163245356793744
1.1485826001955035
1.1348973607038124
1.1094819159335287
1.0791788856304985
1.0586510263929618
1.0439882697947214
1.035190615835777
1.029325513196481
1.0224828934506354
1.0156402737047898
1.0087976539589445
1.002932551319648
0.9980449657869012
0.9941348973607038
0.9912023460410556
0.9882697947214076
0.9853372434017597
0.9824046920821116
0.9794721407624634
0.9794721407624634
0.9804496578690128
0.9794721407624634
0.978494623655914
0.978494623655914
0.978494623655914
0.978494623655914
0.978494623655914
0.978494623655914
0.9794721407624634
0.9804496578690128
0.9824046920821116
0.9872922776148584
0.9931573802541545
0.997067448680352
1.0
1.002932551319648
1.0058651026392962
1.0068426197458455
1.007820136852395
1.007820136852395
1.007820136852395
1.0087976539589445
1.010752688172043
1.0127077223851415
1.0156402737047898
1.018572825024438
1.0205278592375366
1.0205278592375366
1.0195503421309873
1.021505376344086
1.029325513196481
1.050830889540567
1.0909090909090908
1.152492668621701
1.2404692082111437
1.3528836754643203
1.4672531769305963
1.5865102639296187
1.7311827956989247
1.8875855327468232
2.046920821114369
2.2023460410557183
2.346041055718475
2.4750733137829912
2.5865102639296187
2.6803519061583576
2.757575757575758
2.819159335288368
2.866080156402737
2.89247311827957
2.905180840664712
2.9159335288367547
2.919843597262952
2.917888563049853
2.9100684261974585
2.897360703812317
2.878787878787879
2.857282502443793
2.83088954056696
2.80058651026393
2.766373411534702
2.730205278592375
2.6901270772238512
2.6451612903225805
2.5962854349951123
2.5425219941348973
2.482893450635386
2.4164222873900294
2.3440860215053765
2.2658846529814274
2.1808406647116323
2.089931573802541
1.9951124144672527
1.9100684261974583
1.8328445747800584
1.7526881720430108
1.675464320625611
1.607038123167155
1.5483870967741935
1.499511241446725
1.4613880742913
1.43108504398827
1.4076246334310851
1.3900293255131966
1.375366568914956
1.3626588465298142
1.35386119257087
1.3479960899315735
1.3401759530791788
1.3304007820136852
1.3186705767350928
1.3040078201368523
1.2873900293255132
1.2697947214076246
1.252199413489736
1.2336265884652982
1.2140762463343109
1.195503421309873
1.1808406647116323
1.1691104594330402
1.1564027370478984
1.141739980449658
1.1270772238514175
1.1133919843597262
1.099706744868035
1.088954056695992
1.0811339198435972
1.0742913000977516
1.0684261974584557
1.0625610948191593
1.056695992179863
1.053763440860215
1.050830889540567
1.04594330400782
1.0410557184750733
1.035190615835777
1.029325513196481
1.024437927663734
1.018572825024438
1.013685239491691
1.010752688172043
1.0097751710654936
1.0087976539589445
1.010752688172043
1.013685239491691
1.0146627565982405
1.0156402737047898
1.0156402737047898
1.0156402737047898
1.0156402737047898
1.0156402737047898
1.0156402737047898
1.0175953079178883
1.0205278592375366
1.0254154447702837
1.029325513196481
1.0332355816226784
1.040078201368524
1.04594330400782
1.0518084066471165
1.056695992179863
1.0625610948191593
1.0684261974584557
1.0733137829912025
1.0791788856304985
1.083088954056696
1.0850439882697946
1.0869990224828934
1.0918866080156402
1.0987292277614855
1.1124144672531768
1.1368523949169111
1.176930596285435
1.238514173998045
1.3235581622678396
1.4330400782013686
1.563049853372434
1.710654936461388
1.868035190615836
2.029325513196481
2.187683284457478
2.317693059628544
2.4271749755620724
2.5386119257087
2.641251221896383
2.732160312805474
2.809384164222874
2.870967741935484
2.917888563049853
2.952101661779081
2.973607038123167
2.98435972629521
2.9853372434017595
2.975562072336266
2.9579667644183774
2.940371456500489
2.918866080156403
2.89345063538612
2.865102639296188
2.832844574780059
2.7966764418377323
2.757575757575758
2.7155425219941347
2.670576735092864
2.621700879765396
2.56891495601173
2.5161290322580645
2.4604105571847508
2.3958944281524928
2.32355816226784
2.244379276637341
2.158357771260997
2.069403714565005
1.981427174975562
1.8944281524926687
1.8113391984359728
1.7360703812316716
1.6695992179863148
1.6187683284457477
1.5786901270772238
1.544477028347996
1.5180840664711632
1.4975562072336266
1.4819159335288368
1.4701857282502444
1.4604105571847508
1.4516129032258065
1.4428152492668622
1.4330400782013686
1.423264907135875
1.412512218963832
1.4037145650048877
1.393939393939394
1.3792766373411536
1.3616813294232648
1.343108504398827
1.3235581622678396
1.3040078201368523
1.2854349951124144
1.267839687194526
1.2512218963831867
1.2355816226783969
1.2218963831867058
1.2130987292277615
1.2052785923753666
1.1964809384164223
1.187683284457478
1.1779081133919844
1.1681329423264908
1.1583577712609971
1.1495601173020529
1.1397849462365592
1.1300097751710656
1.1202346041055715
1.1094819159335287
1.099706744868035
1.0948191593352885
1.0918866080156402
1.093841642228739
1.0987292277614855
1.0977517106549364
1.0948191593352885
1.0918866080156402
1.088954056695992
1.086021505376344
1.0821114369501466
1.078201368523949
1.0733137829912025
1.0703812316715542
1.0694037145650048
1.0664711632453567
1.06158357771261
1.056695992179863
1.0518084066471165
1.0469208211143697
1.0410557184750733
1.0361681329423265
1.0342130987292275
1.0342130987292275
1.0342130987292275
1.0342130987292275
1.0361681329423265
1.0371456500488758
1.0361681329423265
1.0332355816226784
1.0283479960899315
1.0234604105571847
1.021505376344086
1.0254154447702837
1.0410557184750733
1.0733137829912025
1.1251221896383188
1.2003910068426198
1.2834799608993157
1.3782991202346042
1.5024437927663734
1.64613880742913
1.7986314760508308
1.9550342130987293
2.1065493646138806
2.2482893450635384
2.3743890518084068
2.4819159335288368
2.572825024437928
2.64613880742913
2.695014662756598
2.7262952101661777
2.7536656891495603
2.773216031280548
2.78494623655914
2.788856304985337
2.7859237536656893
2.776148582600196
2.7614858260019552
2.740957966764418
2.7155425219941347
2.687194525904203
2.656891495601173
2.624633431085044
2.589442815249267
2.550342130987292
2.509286412512219
2.463343108504399
2.412512218963832
2.356793743890518
2.2961876832844577
2.228739002932551
2.1544477028347995
2.074291300097752
1.989247311827957
1.9120234604105573
1.8377321603128052
1.7565982404692082
1.6744868035190617
1.595307917888563
1.5249266862170088
1.4643206256109482
1.414467253176931
1.375366568914956
1.3450635386119256
1.3235581622678396
1.3079178885630498
1.2971652003910068
1.2903225806451613
1.2854349951124144
1.2805474095796676
1.2746823069403714
1.267839687194526
1.2590420332355816
1.249266862170088
1.238514173998045
1.2258064516129032
1.2111436950146628
1.195503421309873
1.1779081133919844
1.1652003910068427
1.1534701857282503
1.1397849462365592
1.126099706744868
1.1133919843597262
1.1016617790811338
1.0899315738025417
1.0772238514173995
1.0654936461388074
1.0547409579667644
1.0449657869012707
1.035190615835777
1.0273704789833822
1.0234604105571847
1.0205278592375366
1.0166177908113392
1.0117302052785924
1.0068426197458455
1.002932551319648
0.9980449657869012
0.9931573802541545
0.989247311827957
0.9863147605083088
0.9833822091886608
0.9804496578690128
0.9804496578690128
0.981427174975562
0.981427174975562
0.9804496578690128
0.9804496578690128
0.9804496578690128
0.9794721407624634
0.978494623655914
0.978494623655914
0.978494623655914
0.9794721407624634
0.981427174975562
0.9833822091886608
0.9882697947214076
0.9941348973607038
0.9980449657869012
1.0009775171065494
1.0039100684261977
1.0058651026392962
1.007820136852395
1.0097751710654936
1.0127077223851415
1.0156402737047898
1.018572825024438
1.0195503421309873
1.021505376344086
1.0254154447702837
1.0283479960899315
1.0332355816226784
1.043010752688172
1.0654936461388074
1.1055718475073313
1.1681329423264908
1.2561094819159335
1.367546432062561
1.500488758553275
1.6500488758553276
1.8103616813294232
1.9521016617790807
2.080156402737048
2.217986314760508
2.3519061583577714
2.4750733137829912
2.5835777126099706
2.67644183773216
2.752688172043011
2.814271749755621
2.860215053763441
2.89345063538612
2.916911045943304
2.9257086999022484
2.9237536656891496
2.919843597262952
2.9100684261974585
2.895405669599218
2.875855327468231
2.8514173998044967
2.823069403714565
2.790811339198436
2.755620723362659
2.717497556207233
2.675464320625611
2.6285434995112413
2.5806451612903225
2.530791788856305
2.4731182795698925
2.4086021505376345
2.337243401759531
2.2580645161290325
2.1710654936461387
2.0791788856304985
1.9853372434017595
1.89247311827957
1.801564027370479
1.7174975562072337
1.6490713587487782
1.5933528836754642
1.541544477028348
1.4965786901270772
1.4594330400782014
1.4301075268817205
1.4086021505376345
1.3919843597262953
1.3782991202346042
1.367546432062561
1.3587487781036167
1.348973607038123
1.33822091886608
1.3284457478005864
1.3196480938416422
1.305962854349951
1.2903225806451613
1.2746823069403714
1.2570869990224829
1.2394916911045943
1.2218963831867058
1.203323558162268
1.1857282502443791
1.1681329423264908
1.152492668621701
1.141739980449658
1.1329423264907137
1.1192570869990224
1.10752688172043
1.0987292277614855
1.088954056695992
1.078201368523949
1.067448680351906
1.056695992179863
1.0469208211143697
1.0391006842619743
1.0342130987292275
1.0303030303030305
1.029325513196481
1.0303030303030305
1.029325513196481
1.0273704789833822
1.0254154447702837
1.0234604105571847
1.0205278592375366
1.0175953079178883
1.0146627565982405
1.0127077223851415
1.0097751710654936
1.0068426197458455
1.0068426197458455
1.0097751710654936
1.0127077223851415
1.0156402737047898
1.018572825024438
1.0205278592375366
1.024437927663734
1.0283479960899315
1.032258064516129
1.0420332355816226
1.0557184750733135
1.0635386119257086
1.0694037145650048
1.0762463343108504
1.083088954056696
1.0879765395894427
1.0918866080156402
1.093841642228739
1.0948191593352885
1.0957966764418376
1.0957966764418376
1.0977517106549364
1.1036168132942326
1.1173020527859236
1.1456500488758554
1.1837732160312806
1.2375366568914956
1.3196480938416422
1.4281524926686218
1.560117302052786
1.7096774193548387
1.870967741935484
2.035190615835777
2.196480938416422
2.3489736070381237
2.4887585532746823
2.6129032258064515
2.704789833822092
2.7751710654936463
2.841642228739003
2.8993157380254155
2.9442815249266863
2.9765395894428157
2.997067448680352
3.007820136852395
3.0097751710654936
3.004887585532747
2.995112414467253
2.9804496578690127
2.961876832844575
2.93841642228739
2.911045943304008
2.8826979472140764
2.850439882697948
2.8132942326490715
2.7722385141739982
2.727272727272727
2.677419354838709
2.6236559139784945
2.565982404692082
2.5034213098729228
2.434017595307918
2.366568914956012
2.2981427174975564
2.218963831867057
2.131964809384164
2.043010752688172
1.9550342130987293
1.871945259042033
1.7956989247311828
1.7302052785923754
1.6744868035190617
1.6285434995112416
1.5943304007820136
1.5698924731182795
1.5542521994134897
1.543499511241447
1.533724340175953
1.5249266862170088
1.5161290322580645
1.5073313782991202
1.4975562072336266
1.4868035190615836
1.4760508308895406
1.4623655913978495
1.447702834799609
1.4320625610948192
1.418377321603128
1.4066471163245358
1.3919843597262953
1.3743890518084063
1.356793743890518
1.3401759530791788
1.324535679374389
1.3118279569892473
1.300097751710655
1.2883675464320623
1.2766373411534702
1.2668621700879763
1.2570869990224829
1.2502443792766371
1.2453567937438903
1.2404692082111437
1.2355816226783969
1.23069403714565
1.2258064516129032
1.2209188660801564
1.217008797653959
1.2111436950146628
1.203323558162268
1.195503421309873
1.187683284457478
1.181818181818182
1.1779081133919844
1.1730205278592376
1.1681329423264908
1.164222873900293
1.1612903225806452
1.1583577712609971
1.1544477028347997
1.1495601173020529
1.144672531769306
1.1397849462365592
1.1348973607038124
1.1290322580645162
1.1251221896383188
1.1231671554252198
1.1192570869990224
1.1143695014662756
1.1094819159335287
1.104594330400782
1.1006842619745845
1.0987292277614855
1.096774193548387
1.093841642228739
1.0899315738025417
1.0850439882697946
1.0821114369501466
1.0821114369501466
1.0821114369501466
1.086021505376344
1.1016617790811338
1.1358748778103618
1.1935483870967742
1.2756598240469208
1.3822091886608017
1.512218963831867
1.6588465298142718
1.8162267839687196
1.9775171065493649
2.114369501466276
2.233626588465298
2.357771260997068
2.474095796676442
2.576735092864125
2.6637341153470184
2.7331378299120237
2.787878787878788
2.827956989247312
2.8563049853372435
2.8719452590420333
2.877810361681329
2.873900293255132
2.86217008797654
2.8426197458455524
2.822091886608016
2.798631476050831
2.773216031280548
2.7419354838709675
2.708699902248289
2.670576735092864
2.616813294232649
2.5650048875855327
2.525904203323558
2.4809384164222874
2.4173998044965788
2.3499511241446727
2.2766373411534704
2.1974584555229715
2.112414467253177
2.021505376344086
1.927663734115347
1.8328445747800584
1.739980449657869
1.6529814271749756
1.5747800586510263
1.5141739980449658
1.466275659824047
1.423264907135875
1.3870967741935485
1.3577712609970674
1.3391984359726294
1.3255131964809383
1.313782991202346
1.305962854349951
1.2991202346041055
1.2903225806451613
1.2805474095796676
1.2697947214076246
1.260019550342131
1.2502443792766371
1.2375366568914956
1.2218963831867058
1.2052785923753666
1.1867057673509287
1.1691104594330402
1.1515151515151516
1.1348973607038124
1.1192570869990224
1.104594330400782
1.0918866080156402
1.0840664711632453
1.078201368523949
1.0703812316715542
1.0625610948191593
1.053763440860215
1.04594330400782
1.0381231671554252
1.029325513196481
1.021505376344086
1.0146627565982405
1.0097751710654936
1.0048875855327468
0.9990224828934506
0.9980449657869012
0.997067448680352
0.9941348973607038
0.9912023460410556
0.9872922776148584
0.9824046920821116
0.978494623655914
0.975562072336266
0.9745845552297164
0.9736070381231672
0.9736070381231672
0.9736070381231672
0.975562072336266
0.9775171065493646
0.978494623655914
0.9804496578690128
0.9833822091886608
0.9853372434017597
0.9882697947214076
0.9912023460410556
0.9941348973607038
0.997067448680352
0.9990224828934506
1.0019550342130987
1.0048875855327468
1.0097751710654936
1.0156402737047898
1.0195503421309873
1.021505376344086
1.021505376344086
1.021505376344086
1.0234604105571847
1.0312805474095796
1.0498533724340176
1.0850439882697946
1.142717497556207
1.224828934506354
1.3147605083088951
1.4173998044965788
1.5493646138807429
1.7018572825024438
1.8641251221896384
2.0254154447702835
2.1808406647116323
2.32355816226784
2.452590420332356
2.565982404692082
2.66177908113392
2.740957966764418
2.793743890518084
2.827956989247312
2.859237536656892
2.884652981427175
2.9012707722385143
2.90811339198436
2.9071358748778104
2.9012707722385143
2.8905180840664717
2.873900293255132
2.8533724340175954
2.8289345063538613
2.801564027370479
2.771260997067449
2.7370478983382207
2.699902248289345
2.659824046920821
2.6148582600195502
2.565982404692082
2.5102639296187683
2.44672531769306
2.375366568914956
2.297165200391007
2.2130987292277613
2.124144672531769
2.043010752688172
1.9657869012707725
1.881720430107527
1.7976539589442817
1.7174975562072337
1.6441837732160314
1.5826001955034212
1.5298142717497556
1.4868035190615836
1.452590420332356
1.4271749755620724
1.4086021505376345
1.3949169110459434
1.3870967741935485
1.3812316715542523
1.3743890518084063
1.367546432062561
1.3587487781036167
1.3470185728250244
1.332355816226784
1.316715542521994
1.2991202346041055
1.2795698924731185
1.2590420332355816
1.2394916911045943
1.224828934506354
1.2121212121212122
1.1974584555229717
1.1837732160312806
1.1710654936461389
1.1593352883675463
1.147605083088954
1.1368523949169111
1.126099706744868
1.115347018572825
1.104594330400782
1.0948191593352885
1.0869990224828934
1.083088954056696
1.0821114369501466
1.0801564027370478
1.078201368523949
1.0762463343108504
1.0733137829912025
1.0713587487781036
1.0684261974584557
1.0654936461388074
1.0625610948191593
1.0606060606060606
1.0586510263929618
1.0596285434995112
1.0625610948191593
1.0635386119257086
1.0635386119257086
1.06158357771261
1.0596285434995112
1.0576735092864125
1.0557184750733135
1.0547409579667644
1.0547409579667644
1.0547409579667644
1.056695992179863
1.0586510263929618
1.0625610948191593
1.0684261974584557
1.0733137829912025
1.0772238514173995
1.0801564027370478
1.0821114369501466
1.083088954056696
1.083088954056696
1.083088954056696
1.0821114369501466
1.0801564027370478
1.0791788856304985
1.0801564027370478
1.0850439882697946
1.0948191593352885
1.1173020527859236
1.1583577712609971
1.2209188660801564
1.3079178885630498
1.4203323558162269
1.5542521994134897
1.7038123167155426
1.8631476050830889
2.026392961876833
2.1847507331378297
2.314760508308896
2.423264907135875
2.532746823069404
2.632453567937439
2.718475073313783
2.788856304985337
2.844574780058651
2.887585532746823
2.918866080156403
2.940371456500489
2.95405669599218
2.9589442815249267
2.9530791788856305
2.940371456500489
2.9266862170087977
2.9100684261974585
2.8885630498533725
2.863147605083089
2.833822091886608
2.80058651026393
2.763440860215054
2.7223851417399803
2.678396871945259
2.6295210166177907
2.576735092864125
2.5239491691104594
2.4682306940371457
2.403714565004888
2.3313782991202348
2.251221896383187
2.166177908113392
2.078201368523949
1.991202346041056
1.9071358748778104
1.8269794721407624
1.7556207233626588
1.6950146627565983
1.6480938416422288
1.6138807429130009
1.585532746823069
1.5620723362658846
1.5454545454545454
1.5327468230694037
1.52297165200391
1.5151515151515151
1.5073313782991202
1.499511241446725
1.4897360703812317
1.478005865102639
1.4633431085043989
1.4506353861192571
1.4389051808406648
1.426197458455523
1.412512218963832
1.396871945259042
1.3792766373411536
1.3626588465298142
1.3470185728250244
1.332355816226784
1.3186705767350928
1.305962854349951
1.295210166177908
1.2873900293255132
1.2805474095796676
1.273704789833822
1.2658846529814272
1.2590420332355816
1.2531769305962854
1.2482893450635386
1.2443792766373412
1.2404692082111437
1.2375366568914956
1.2346041055718475
1.2316715542521994
1.2287390029325511
1.227761485826002
1.2287390029325511
1.227761485826002
1.2258064516129032
1.2228739002932552
1.2209188660801564
1.2179863147605083
1.2150537634408602
1.2121212121212122
1.2082111436950147
1.2043010752688172
1.2003910068426198
1.1994134897360704
1.1994134897360704
1.198435972629521
1.1964809384164223
1.1935483870967742
1.1915933528836755
1.1886608015640274
1.1857282502443791
1.1827956989247312
1.1788856304985338
1.1749755620723363
1.1710654936461389
1.1700879765395895
1.1700879765395895
1.1691104594330402
1.1681329423264908
1.1671554252199414
1.1652003910068427
1.1612903225806452
1.1583577712609971
1.1583577712609971
1.164222873900293
1.181818181818182
1.217008797653959
1.2727272727272727
1.33822091886608
1.4193548387096775
1.530791788856305
1.6637341153470186
1.8103616813294232
1.9618768328445748
2.112414467253177
2.257086999022483
2.389051808406647
2.506353861192571
2.6070381231671558
2.69208211143695
2.752688172043011
2.793743890518084
2.83088954056696
2.860215053763441
2.881720430107527
2.8944281524926687
2.897360703812317
2.89345063538612
2.881720430107527
2.8641251221896384
2.8475073313782997
2.8299120234604107
2.801564027370479
2.7673509286412514
2.729227761485826
2.6881720430107525
2.643206256109482
2.5943304007820136
2.541544477028348
2.4838709677419355
2.421309872922776
2.3528836754643208
2.2766373411534704
2.1945259042033234
2.1065493646138806
2.024437927663734
1.943304007820137
1.8523949169110456
1.761485826001955
1.6744868035190617
1.5943304007820136
1.521994134897361
1.4613880742913
1.4115347018572826
1.370478983382209
1.33822091886608
1.313782991202346
1.295210166177908
1.2834799608993157
1.2776148582600195
1.2717497556207231
1.2658846529814272
1.260019550342131
1.2531769305962854
1.2443792766373412
1.2336265884652982
1.2209188660801564
1.2082111436950147
1.1935483870967742
1.1759530791788857
1.1612903225806452
1.1485826001955035
1.1329423264907137
1.118279569892473
1.104594330400782
1.0918866080156402
1.0791788856304985
1.0654936461388074
1.0518084066471165
1.0391006842619743
1.0283479960899315
1.0166177908113392
1.0058651026392962
1.0
0.997067448680352
0.9912023460410556
0.9833822091886608
0.975562072336266
0.9687194525904204
0.9618768328445748
0.9550342130987292
0.9501466275659824
0.946236559139785
0.9423264907135877
0.9393939393939394
0.93841642228739
0.9393939393939394
0.9374389051808406
0.935483870967742
0.9345063538611924
0.9335288367546432
0.9335288367546432
0.9335288367546432
0.9335288367546432
0.9364613880742912
0.9393939393939394
0.9423264907135877
0.9452590420332356
0.9501466275659824
0.9560117302052786
0.9608993157380256
0.9657869012707724
0.9706744868035192
0.9765395894428152
0.9824046920821116
0.9882697947214076
0.9931573802541545
0.997067448680352
1.0009775171065494
1.002932551319648
1.0048875855327468
1.007820136852395
1.0087976539589445
1.0127077223851415
1.024437927663734
1.0498533724340176
1.0948191593352885
1.1652003910068427
1.262952101661779
1.3861192570869991
1.530791788856305
1.6911045943304008
1.8592375366568916
2.004887585532747
2.1358748778103616
2.274682306940372
2.407624633431085
2.5268817204301075
2.6295210166177907
2.7155425219941347
2.7859237536656893
2.8396871945259043
2.8797653958944283
2.906158357771261
2.921798631476051
2.9227761485826003
2.913978494623656
2.903225806451613
2.8885630498533725
2.870967741935484
2.849462365591398
2.8240469208211145
2.7947214076246336
2.7624633431085046
2.7262952101661777
2.6852394916911044
2.641251221896383
2.593352883675464
2.544477028347996
2.495601173020528
2.4389051808406648
2.375366568914956
2.304007820136853
2.2238514173998043
2.1358748778103616
2.0410557184750733
1.9442815249266865
1.8484848484848484
1.7565982404692082
1.6715542521994136
1.603128054740958
1.547409579667644
1.495601173020528
1.4506353861192571
1.414467253176931
1.3870967741935485
1.3665689149560116
1.3519061583577712
1.3401759530791788
1.3304007820136852
1.321603128054741
1.310850439882698
1.2991202346041055
1.2913000977517106
1.2834799608993157
1.2717497556207231
1.2570869990224829
1.2404692082111437
1.2218963831867058
1.203323558162268
1.1857282502443791
1.1681329423264908
1.1495601173020529
1.130987292277615
1.1143695014662756
1.1036168132942326
1.0948191593352885
1.0840664711632453
1.0733137829912025
1.06158357771261
1.050830889540567
1.0410557184750733
