ppg
1.2981427174975562
1.3010752688172045
1.3069403714565004
1.3186705767350928
1.3401759530791788
1.3773216031280548
1.4320625610948192
1.5063538611925709
1.6011730205278591
1.7126099706744868
1.8387096774193548
1.95405669599218
2.0625610948191597
2.1847507331378297
2.30791788856305
2.4252199413489737
2.532746823069404
2.627565982404692
2.7096774193548385
2.780058651026393
2.838709677419355
2.887585532746823
2.9266862170087977
2.9501466275659824
2.962854349951124
2.973607038123167
2.9775171065493646
2.972629521016618
2.9579667644183774
2.9315738025415445
2.89345063538612
2.844574780058651
2.78494623655914
2.717497556207233
2.643206256109482
2.565982404692082
2.4946236559139785
2.429130009775171
2.361681329423265
2.2981427174975564
2.239491691104594
2.188660801564027
2.142717497556207
2.1006842619745845
2.060606060606061
2.022482893450636
1.9853372434017595
1.948191593352884
1.9149560117302051
1.8836754643206255
1.8494623655913975
1.8132942326490715
1.775171065493646
1.737047898338221
1.6979472140762464
1.6598240469208212
1.6226783968719452
1.5865102639296187
1.5503421309872922
1.5161290322580645
1.4838709677419355
1.458455522971652
1.435972629521017
1.412512218963832
1.3900293255131966
1.367546432062561
1.346041055718475
1.3255131964809383
1.305962854349951
1.2883675464320623
1.2727272727272727
1.2570869990224829
1.2424242424242424
1.2316715542521994
1.2238514173998043
1.2130987292277615
1.2013685239491692
1.1886608015640274
1.1759530791788857
1.163245356793744
1.1515151515151516
1.1407624633431086
1.1300097751710656
1.1192570869990224
1.110459433040078
1.1055718475073313
1.1036168132942326
1.0987292277614855
1.0928641251221896
1.0869990224828934
1.0811339198435972
1.075268817204301
1.0694037145650048
1.0635386119257086
1.0586510263929618
1.0547409579667644
1.050830889540567
1.0478983382209188
1.0478983382209188
1.0488758553274682
1.0478983382209188
1.0469208211143697
1.04594330400782
1.0439882697947214
1.043010752688172
1.0420332355816226
1.0410557184750733
1.0410557184750733
1.0420332355816226
1.043010752688172
1.0478983382209188
1.056695992179863
1.0684261974584557
1.0899315738025417
1.1241446725317692
1.1749755620723363
1.2453567937438903
1.33822091886608
1.4516129032258065
1.581622678396872
1.7233626588465298
1.870967741935484
2.0175953079178885
2.1407624633431084
2.247311827956989
2.357771260997068
2.462365591397849
2.555229716520039
2.6373411534701856
2.70772238514174
2.768328445747801
2.819159335288368
2.8611925708699903
2.8944281524926687
2.919843597262952
2.930596285434995
2.930596285434995
2.9266862170087977
2.913000977517106
2.886608015640274
2.8484848484848486
2.7996089931573804
2.739980449657869
2.6725317693059627
2.60019550342131
2.5268817204301075
2.453567937438905
2.3841642228739004
2.324535679374389
2.272727272727273
2.222873900293255
2.176930596285435
2.1358748778103616
2.0987292277614857
2.064516129032258
2.03128054740958
2.0
1.967741935483871
1.935483870967742
1.902248289345064
1.871945259042033
1.842619745845552
1.8103616813294232
1.7761485826001957
1.7429130009775171
1.7096774193548387
1.678396871945259
1.6480938416422288
1.619745845552297
1.5923753665689149
1.565982404692082
1.542521994134897
1.521994134897361
1.5073313782991202
1.495601173020528
1.4819159335288368
1.469208211143695
1.457478005865103
1.4457478005865103
1.4349951124144673
1.4242424242424243
1.41544477028348
1.4105571847507332
1.412512218963832
1.423264907135875
1.4408602150537635
1.4672531769305963
1.5063538611925709
1.5571847507331378
1.6187683284457477
1.6871945259042034
1.758553274682307
1.8299120234604105
1.895405669599218
1.9530791788856303
1.9980449657869013
2.029325513196481
2.04594330400782
2.048875855327468
2.0391006842619745
2.016617790811339
1.9824046920821117
1.9393939393939397
1.8885630498533723
1.8347996089931573
1.7790811339198436
1.726295210166178
1.678396871945259
1.6363636363636365
1.6011730205278591
1.5777126099706744
1.5620723362658846
1.5513196480938416
1.5454545454545454
1.543499511241447
1.544477028347996
1.5454545454545454
1.5464320625610948
1.5454545454545454
1.542521994134897
1.5376344086021505
1.530791788856305
1.521994134897361
1.5131964809384164
1.5053763440860215
1.4946236559139785
1.4809384164222874
1.4672531769305963
1.4535679374389052
1.4418377321603129
1.43108504398827
1.4222873900293256
1.4173998044965788
1.41544477028348
1.418377321603128
1.4242424242424243
1.434017595307918
1.4467253176930597
1.4633431085043989
1.4838709677419355
1.5083088954056696
1.5366568914956011
1.5669599217986314
1.598240469208211
1.6285434995112416
1.6578690127077225
1.683284457478006
1.7038123167155426
1.718475073313783
1.729227761485826
1.737047898338221
1.739980449657869
1.7390029325513197
1.7331378299120237
1.7223851417399805
1.7067448680351909
1.686217008797654
1.6608015640273706
1.629521016617791
1.595307917888563
1.564027370478983
1.5327468230694037
1.4946236559139785
1.4535679374389052
1.4105571847507332
1.3665689149560116
1.3235581622678396
1.2825024437927663
1.2424242424242424
1.2052785923753666
1.1710654936461389
1.1407624633431086
1.115347018572825
1.0977517106549364
1.0879765395894427
1.0791788856304985
1.0762463343108504
1.0791788856304985
1.088954056695992
1.1065493646138806
1.1300097751710656
1.1573802541544478
1.1867057673509287
1.2160312805474096
1.2434017595307918
1.2668621700879763
1.284457478005865
1.2971652003910068
1.3040078201368523
1.303030303030303
1.2942326490713587
1.278592375366569
1.2580645161290325
1.2336265884652982
1.2072336265884651
1.1798631476050832
1.152492668621701
1.1221896383186705
1.0909090909090908
1.0664711632453567
1.0498533724340176
1.0449657869012707
1.0557184750733135
1.088954056695992
1.1466275659824048
1.2326490713587488
1.3450635386119256
1.479960899315738
1.6334310850439884
1.796676441837732
1.9413489736070384
2.074291300097752
2.217986314760508
2.3597262952101663
2.4916911045943304
2.610948191593353
2.716520039100684
2.8084066471163247
2.887585532746823
2.95405669599218
3.0087976539589443
3.050830889540567
3.074291300097752
3.0821114369501466
3.0840664711632453
3.075268817204301
3.0547409579667644
3.022482893450636
2.978494623655914
2.921798631476051
2.855327468230694
2.782013685239492
2.7038123167155423
2.624633431085044
2.548387096774193
2.4809384164222874
2.420332355816227
2.3626588465298144
2.3098729227761488
2.2629521016617797
2.220918866080156
2.1847507331378297
2.1515151515151514
2.1192570869990224
2.086021505376344
2.0518084066471163
2.016617790811339
1.9833822091886608
1.951124144672532
1.9149560117302051
1.8758553274682308
1.8347996089931573
1.7917888563049853
1.7487781036168133
1.7057673509286413
1.6627565982404693
1.619745845552297
1.5777126099706744
1.5376344086021505
1.498533724340176
1.4672531769305963
1.4408602150537635
1.4115347018572826
1.3822091886608017
1.35386119257087
1.3284457478005864
1.3049853372434017
1.2834799608993157
1.2649071358748778
1.2482893450635386
1.2316715542521994
1.217008797653959
1.206256109481916
1.1994134897360704
1.1906158357771262
1.1808406647116323
1.1720430107526882
1.163245356793744
1.155425219941349
1.147605083088954
1.1407624633431086
1.133919843597263
1.1270772238514175
1.1192570869990224
1.1124144672531768
1.1085043988269794
1.1055718475073313
1.0987292277614855
1.0899315738025417
1.0811339198435972
1.0713587487781036
1.06158357771261
1.050830889540567
1.0410557184750733
1.032258064516129
1.024437927663734
1.0175953079178883
1.0146627565982405
1.013685239491691
1.010752688172043
1.0068426197458455
1.002932551319648
0.9990224828934506
0.9960899315738024
0.9941348973607038
0.9931573802541545
0.9931573802541545
0.9931573802541545
0.9941348973607038
0.9951124144672532
0.9990224828934506
1.0058651026392962
1.010752688172043
1.0156402737047898
1.0205278592375366
1.0263929618768328
1.035190615835777
1.0488758553274682
1.0713587487781036
1.1065493646138806
1.160312805474096
1.2346041055718475
1.3157380254154447
1.4086021505376345
1.5288367546432062
1.6686217008797657
1.8191593352883677
1.9745845552297163
2.129032258064516
2.275659824046921
2.410557184750733
2.532746823069404
2.6402737047898337
2.7331378299120237
2.8132942326490715
2.8699902248289346
2.9120234604105573
2.95405669599218
2.992179863147605
3.0234604105571847
3.04594330400782
3.059628543499511
3.06158357771261
3.0498533724340176
3.0254154447702835
2.988269794721408
2.9393939393939394
2.884652981427175
2.825024437927664
2.755620723362659
2.6823069403714563
2.6070381231671558
2.5347018572825024
2.466275659824047
2.403714565004888
2.347018572825025
2.2981427174975564
2.2551319648093844
2.2160312805474094
2.1808406647116323
2.150537634408602
2.121212121212121
2.089931573802541
2.0576735092864125
2.024437927663734
1.989247311827957
1.95405669599218
1.9188660801564028
1.8836754643206255
1.8494623655913975
1.81524926686217
1.782991202346041
1.7546432062561097
1.729227761485826
1.7018572825024438
1.6744868035190617
1.64613880742913
1.619745845552297
1.5943304007820136
1.5708699902248289
1.5483870967741935
1.5278592375366569
1.5083088954056696
1.4897360703812317
1.4731182795698925
1.4594330400782014
1.4486803519061584
1.436950146627566
1.4242424242424243
1.412512218963832
1.4007820136852396
1.3900293255131966
1.3792766373411536
1.3685239491691104
1.356793743890518
1.346041055718475
1.335288367546432
1.3284457478005864
1.3235581622678396
1.316715542521994
1.3088954056695992
1.3020527859237536
1.2961876832844574
1.2903225806451613
1.2854349951124144
1.2795698924731185
1.273704789833822
1.2688172043010753
1.2639296187683284
1.2590420332355816
1.2570869990224829
1.2561094819159335
1.2541544477028348
1.2512218963831867
1.249266862170088
1.24633431085044
1.2443792766373412
1.2424242424242424
1.241446725317693
1.2404692082111437
1.2394916911045943
1.2375366568914956
1.238514173998045
1.2404692082111437
1.2404692082111437
1.2404692082111437
1.2394916911045943
1.2375366568914956
1.2346041055718475
1.2326490713587488
1.2326490713587488
1.2365591397849462
1.249266862170088
1.2746823069403714
1.3088954056695992
1.3558162267839686
1.426197458455523
1.5180840664711632
1.629521016617791
1.7556207233626588
1.8905180840664717
2.0283479960899315
2.164222873900293
2.29227761485826
2.409579667644184
2.5131964809384164
2.6021505376344085
2.6666666666666665
2.713587487781036
2.7595307917888565
2.7996089931573804
2.831867057673509
2.857282502443793
2.8514173998044967
2.8260019550342133
2.8084066471163247
2.789833822091887
2.764418377321604
2.729227761485826
2.687194525904203
2.6392961876832843
2.581622678396872
2.5161290322580645
2.4457478005865103
2.3743890518084068
2.304985337243402
2.239491691104594
2.179863147605083
2.126099706744868
2.080156402737048
2.040078201368524
2.003910068426197
1.9736070381231672
1.9472140762463344
1.9188660801564028
1.889540566959922
1.8592375366568916
1.8269794721407624
1.7927663734115349
1.7565982404692082
1.7194525904203324
1.6823069403714566
1.6441837732160314
1.6050830889540566
1.5718475073313782
1.542521994134897
1.5102639296187683
1.4760508308895406
1.4428152492668622
1.409579667644184
1.3782991202346042
1.348973607038123
1.3225806451612905
1.2981427174975562
1.2756598240469208
1.2551319648093842
1.2375366568914956
1.2258064516129032
1.217008797653959
1.2082111436950147
1.2003910068426198
1.1935483870967742
1.1886608015640274
1.18475073313783
1.181818181818182
1.1808406647116323
1.1798631476050832
1.1788856304985338
1.1788856304985338
1.1808406647116323
1.1837732160312806
1.1857282502443791
1.1867057673509287
1.1867057673509287
1.1867057673509287
1.1867057673509287
1.18475073313783
1.1827956989247312
1.1798631476050832
1.1749755620723363
1.1681329423264908
1.1593352883675463
1.152492668621701
1.1466275659824048
1.13880742913001
1.1290322580645162
1.118279569892473
1.1094819159335287
1.1016617790811338
1.0957966764418376
1.0918866080156402
1.0899315738025417
1.088954056695992
1.088954056695992
1.0918866080156402
1.096774193548387
1.099706744868035
1.1006842619745845
1.1006842619745845
1.099706744868035
1.0977517106549364
1.0957966764418376
1.0957966764418376
1.1006842619745845
1.1143695014662756
1.141739980449658
1.1867057673509287
1.241446725317693
1.3088954056695992
1.4037145650048877
1.5190615835777126
1.651026392961877
1.7917888563049853
1.9364613880742916
2.078201368523949
2.212121212121212
2.335288367546432
2.4457478005865103
2.5425219941348973
2.613880742913001
2.668621700879765
2.7233626588465296
2.7722385141739982
2.814271749755621
2.8475073313782997
2.8729227761485827
2.8885630498533725
2.895405669599218
2.8914956011730206
2.875855327468231
2.8484848484848486
2.8084066471163247
2.7624633431085046
2.7096774193548385
2.6471163245356792
2.5777126099706744
2.504398826979472
2.43108504398827
2.3597262952101663
2.294232649071359
2.2346041055718477
2.1808406647116323
2.133919843597263
2.09188660801564
2.056695992179863
2.0254154447702835
1.994134897360704
1.962854349951124
1.9315738025415443
1.8993157380254155
1.866080156402737
1.8328445747800584
1.7986314760508308
1.7634408602150538
1.7272727272727273
1.6920821114369502
1.656891495601173
1.6265884652981428
1.5992179863147604
1.5698924731182795
1.5405669599217986
1.5112414467253177
1.4838709677419355
1.458455522971652
1.434017595307918
1.4115347018572826
1.3900293255131966
1.370478983382209
1.3519061583577712
1.3372434017595307
1.3255131964809383
1.3128054740957966
1.300097751710655
1.2873900293255132
1.2756598240469208
1.2649071358748778
1.2541544477028348
1.2434017595307918
1.2346041055718475
1.2258064516129032
1.217008797653959
1.2082111436950147
1.2023460410557183
1.198435972629521
1.1915933528836755
1.1837732160312806
1.176930596285435
1.1700879765395895
1.164222873900293
1.1583577712609971
1.1534701857282503
1.1495601173020529
1.1456500488758554
1.142717497556207
1.142717497556207
1.144672531769306
1.144672531769306
1.144672531769306
1.144672531769306
1.144672531769306
1.144672531769306
1.144672531769306
1.1456500488758554
1.1466275659824048
1.147605083088954
1.1495601173020529
1.152492668621701
1.1583577712609971
1.1652003910068427
1.1710654936461389
1.176930596285435
1.1837732160312806
1.1906158357771262
1.1974584555229717
1.2043010752688172
1.2130987292277615
1.2258064516129032
1.24633431085044
1.2795698924731185
1.3206256109481915
1.3724340175953078
1.447702834799609
1.5454545454545454
1.66177908113392
1.7947214076246334
1.9374389051808407
2.0840664711632453
2.2277614858260018
2.363636363636364
2.4887585532746823
2.601173020527859
2.686217008797654
2.752688172043011
2.820136852394917
2.8826979472140764
2.93841642228739
2.9853372434017595
3.024437927663734
3.0557184750733137
3.0772238514174
3.088954056695992
3.089931573802541
3.080156402737048
3.0576735092864125
3.024437927663734
2.9824046920821115
2.930596285434995
2.8690127077223853
2.80058651026393
2.7282502443792764
2.654936461388074
2.5835777126099706
2.515151515151515
2.452590420332356
2.396871945259042
2.347018572825025
2.304985337243402
2.2688172043010755
2.2346041055718477
2.201368523949169
2.16911045943304
2.136852394916911
2.103616813294233
2.069403714565005
2.035190615835777
2.0
1.964809384164223
1.9296187683284456
1.8944281524926687
1.839687194525904
1.775171065493646
1.7243401759530792
1.6823069403714566
1.6451612903225807
1.6109481915933528
1.5796676441837731
1.5493646138807429
1.521994134897361
1.495601173020528
1.4701857282502444
1.4457478005865103
1.426197458455523
1.409579667644184
1.391006842619746
1.3724340175953078
1.35386119257087
1.335288367546432
1.3157380254154447
1.2961876832844574
1.2776148582600195
1.2590420332355816
1.241446725317693
1.2238514173998043
1.206256109481916
1.1935483870967742
1.181818181818182
1.1681329423264908
1.1534701857282503
1.1397849462365592
1.126099706744868
1.1124144672531768
1.099706744868035
1.0879765395894427
1.0772238514173995
1.0664711632453567
1.056695992179863
1.050830889540567
1.0469208211143697
1.0410557184750733
1.0342130987292275
1.0283479960899315
1.0224828934506354
1.0175953079178883
1.013685239491691
1.0097751710654936
1.0058651026392962
1.002932551319648
1.0
0.9960899315738024
0.9960899315738024
0.997067448680352
0.9951124144672532
0.9931573802541545
0.9902248289345064
0.9882697947214076
0.9902248289345064
0.9980449657869012
1.0156402737047898
1.0469208211143697
1.0957966764418376
1.164222873900293
1.238514173998045
1.3225806451612905
1.43108504398827
1.5562072336265884
1.689149560117302
1.8240469208211143
1.9550342130987293
2.0772238514174
2.188660801564027
2.2873900293255134
2.372434017595308
2.4457478005865103
2.5083088954056696
2.552297165200391
2.58455522971652
2.616813294232649
2.64613880742913
2.668621700879765
2.6832844574780057
2.689149560117302
2.6832844574780057
2.6666666666666665
2.6373411534701856
2.595307917888563
2.5425219941348973
2.487781036168133
2.429130009775171
2.3626588465298144
2.29227761485826
2.2218963831867056
2.1544477028347995
2.090909090909091
2.034213098729228
1.9843597262952104
1.9393939393939397
1.900293255131965
1.865102639296188
1.8318670576735088
1.8025415444770283
1.7761485826001957
1.747800586510264
1.7174975562072337
1.686217008797654
1.653958944281525
1.6217008797653958
1.5884652981427174
1.555229716520039
1.521994134897361
1.4887585532746823
1.456500488758553
1.4301075268817205
1.4076246334310851
1.3822091886608017
1.3558162267839686
1.3304007820136852
1.305962854349951
1.2834799608993157
1.2619745845552297
1.241446725317693
1.2228739002932552
1.206256109481916
1.1906158357771262
1.1779081133919844
1.1700879765395895
1.166177908113392
1.1622678396871946
1.1593352883675463
1.1593352883675463
1.1612903225806452
1.1671554252199414
1.1759530791788857
1.1896383186705768
1.2082111436950147
1.2316715542521994
1.2580645161290325
1.2854349951124144
1.3147605083088951
1.348973607038123
1.3851417399804498
1.4203323558162269
1.4545454545454546
1.4848484848484849
1.509286412512219
1.5288367546432062
1.543499511241447
1.5532746823069403
1.5581622678396871
1.5581622678396871
1.555229716520039
1.5483870967741935
1.5366568914956011
1.520039100684262
1.498533724340176
1.4731182795698925
1.4437927663734116
1.412512218963832
1.3792766373411536
1.346041055718475
1.3128054740957966
1.2805474095796676
1.2541544477028348
1.23069403714565
1.203323558162268
1.1749755620723363
1.1485826001955035
1.1241446725317692
1.10752688172043
1.1026392961876832
1.1133919843597262
1.1456500488758554
1.2023460410557183
1.2834799608993157
1.388074291300098
1.4946236559139785
1.606060606060606
1.7409579667644184
1.8875855327468232
2.037145650048876
2.1837732160312804
2.3225806451612905
2.450635386119257
2.5640273704789838
2.66177908113392
2.742913000977517
2.806451612903226
2.8455522971652005
2.865102639296188
2.875855327468231
2.874877810361681
2.859237536656892
2.8289345063538613
2.78494623655914
2.7282502443792764
2.6608015640273703
2.5835777126099706
2.4975562072336266
2.406647116324536
2.3225806451612905
2.241446725317693
2.155425219941349
2.069403714565005
1.9872922776148585
1.911045943304008
1.8416422287390029
1.7790811339198436
1.7233626588465298
1.6735092864125125
1.6275659824046922
1.58455522971652
1.543499511241447
1.5083088954056696
1.478005865102639
1.4437927663734116
1.409579667644184
1.3743890518084063
1.3401759530791788
1.305962854349951
1.2727272727272727
1.2394916911045943
1.2072336265884651
1.176930596285435
1.147605083088954
1.1241446725317692
1.1055718475073313
1.0850439882697946
1.0635386119257086
1.0439882697947214
1.0263929618768328
1.010752688172043
0.9980449657869012
0.9882697947214076
0.981427174975562
0.9775171065493646
0.975562072336266
0.975562072336266
0.9794721407624634
0.9843597262952102
0.9872922776148584
0.989247311827957
0.9912023460410556
0.9921798631476052
0.9921798631476052
0.9902248289345064
0.9872922776148584
0.9824046920821116
0.9765395894428152
0.9687194525904204
0.9638318670576737
0.959921798631476
0.9530791788856304
0.9433040078201368
0.9325513196480938
0.9208211143695014
0.9100684261974584
0.9257086999022482
0.9550342130987292
0.9648093841642228
0.9657869012707724
0.9618768328445748
0.956989247311828
0.9560117302052786
0.956989247311828
0.956989247311828
0.956989247311828
0.9579667644183774
0.959921798631476
0.9638318670576737
0.9687194525904204
0.975562072336266
0.9824046920821116
0.989247311827957
0.9980449657869012
1.0097751710654936
1.0263929618768328
1.050830889540567
1.086021505376344
1.1378299120234605
1.209188660801564
1.300097751710655
1.4115347018572826
1.5395894428152492
1.6803519061583578
1.827956989247312
1.9765395894428155
2.120234604105572
2.2385141739980448
2.3382209188660803
2.4389051808406648
2.532746823069404
2.616813294232649
2.6911045943304006
2.755620723362659
2.811339198435973
2.8582600195503423
2.897360703812317
2.927663734115347
2.949169110459433
2.956011730205278
2.9530791788856305
2.9442815249266863
2.9266862170087977
2.897360703812317
2.8563049853372435
2.8044965786901277
2.742913000977517
2.673509286412512
2.598240469208211
2.5210166177908118
2.444770283479961
2.372434017595308
2.310850439882698
2.257086999022483
2.2052785923753664
2.157380254154448
2.114369501466276
2.075268817204301
2.040078201368524
2.006842619745845
1.9736070381231672
1.9413489736070384
1.90811339198436
1.8748778103616808
1.844574780058651
1.81524926686217
1.7820136852394917
1.7468230694037146
1.710654936461388
1.6744868035190617
1.6392961876832846
1.6041055718475072
1.5698924731182795
1.5366568914956011
1.504398826979472
1.474095796676442
1.4457478005865103
1.423264907135875
1.404692082111437
1.3841642228739004
1.364613880742913
1.3450635386119256
1.3255131964809383
1.3069403714565004
1.289345063538612
1.2717497556207231
1.2561094819159335
1.241446725317693
1.2267839687194526
1.217008797653959
1.2101661779081134
1.2013685239491692
1.1925708699902249
1.1827956989247312
1.1730205278592376
1.164222873900293
1.155425219941349
1.147605083088954
1.1407624633431086
1.1358748778103618
1.130987292277615
1.126099706744868
1.1241446725317692
1.1241446725317692
1.1231671554252198
1.121212121212121
1.118279569892473
1.1163245356793745
1.1143695014662756
1.1133919843597262
1.1133919843597262
1.1143695014662756
1.1163245356793745
1.118279569892473
1.1231671554252198
1.1280547409579669
1.1319648093841643
1.1348973607038124
1.1378299120234605
1.1407624633431086
1.144672531769306
1.1485826001955035
1.1534701857282503
1.1583577712609971
1.164222873900293
1.1720430107526882
1.18475073313783
1.2023460410557183
1.227761485826002
1.2668621700879763
1.3235581622678396
1.4007820136852396
1.498533724340176
1.6148582600195502
1.7468230694037146
1.889540566959922
2.0361681329423265
2.1808406647116323
2.3196480938416424
2.43108504398827
2.5239491691104594
2.618768328445748
2.70772238514174
2.787878787878788
2.857282502443793
2.916911045943304
2.9667644183773216
3.0087976539589443
3.0410557184750733
3.064516129032258
3.078201368523949
3.078201368523949
3.0664711632453567
3.047898338220919
3.018572825024438
2.978494623655914
2.927663734115347
2.868035190615836
2.801564027370479
2.730205278592375
2.656891495601173
2.58455522971652
2.515151515151515
2.4516129032258065
2.3978494623655915
2.350928641251222
2.3059628543499517
2.2639296187683287
2.2248289345063537
2.188660801564027
2.15347018572825
2.118279569892473
2.0840664711632453
2.048875855327468
2.0127077223851417
1.9765395894428155
1.943304007820137
1.9120234604105573
1.87683284457478
1.8406647116324533
1.804496578690127
