ppg
1.1798631476050832
1.1681329423264908
1.1564027370478984
1.1456500488758554
1.1358748778103618
1.126099706744868
1.1163245356793745
1.10752688172043
1.099706744868035
1.0948191593352885
1.0918866080156402
1.0869990224828934
1.0811339198435972
1.075268817204301
1.0703812316715542
1.0654936461388074
1.06158357771261
1.0576735092864125
1.053763440860215
1.050830889540567
1.0488758553274682
1.0469208211143697
1.0469208211143697
1.0478983382209188
1.0469208211143697
1.0449657869012707
1.043010752688172
1.043010752688172
1.0478983382209188
1.0635386119257086
1.0948191593352885
1.1466275659824048
1.2228739002932552
1.324535679374389
1.43108504398827
1.5464320625610948
1.689149560117302
1.847507331378299
2.010752688172043
2.1710654936461387
2.321603128054741
2.4574780058651027
2.575757575757576
2.677419354838709
2.7624633431085046
2.831867057673509
2.887585532746823
2.9227761485826003
2.943304007820137
2.960899315738025
2.972629521016618
2.975562072336266
2.9687194525904204
2.951124144672532
2.921798631476051
2.8807429130009776
2.827956989247312
2.764418377321604
2.6930596285435
2.6236559139784945
2.5542521994134897
2.4789833822091887
2.4027370478983383
2.329423264907136
2.260997067448681
2.19941348973607
2.144672531769306
2.0977517106549364
2.0557184750733137
2.0175953079178885
1.9824046920821117
1.948191593352884
1.9188660801564028
1.8905180840664717
1.8592375366568916
1.825024437927664
1.7888563049853372
1.7526881720430108
1.715542521994135
1.6774193548387095
1.6392961876832846
1.6011730205278591
1.563049853372434
1.525904203323558
1.4946236559139785
1.4672531769305963
1.436950146627566
1.4066471163245358
1.3763440860215057
1.3479960899315735
1.3196480938416422
1.2932551319648091
1.267839687194526
1.2453567937438903
1.224828934506354
1.206256109481916
1.1896383186705768
1.1779081133919844
1.1700879765395895
1.160312805474096
1.1495601173020529
1.1378299120234605
1.1280547409579669
1.118279569892473
1.1094819159335287
1.1006842619745845
1.0928641251221896
1.0850439882697946
1.078201368523949
1.075268817204301
1.0733137829912025
1.0694037145650048
1.0635386119257086
1.056695992179863
1.0498533724340176
1.043010752688172
1.0371456500488758
1.0312805474095796
1.0254154447702837
1.0205278592375366
1.0146627565982405
1.0097751710654936
1.0087976539589445
1.0087976539589445
1.0058651026392962
1.0019550342130987
0.9980449657869012
0.9941348973607038
0.9912023460410556
0.9912023460410556
0.9980449657869012
1.0156402737047898
1.0498533724340176
1.1055718475073313
1.1720430107526882
1.2541544477028348
1.367546432062561
1.5053763440860215
1.6598240469208212
1.825024437927664
1.991202346041056
2.150537634408602
2.2981427174975564
2.429130009775171
2.5434995112414467
2.638318670576735
2.7155425219941347
2.7673509286412514
2.80058651026393
2.8299120234604107
2.8514173998044967
2.8641251221896384
2.8670576735092865
2.860215053763441
2.841642228739003
2.812316715542522
2.771260997067449
2.718475073313783
2.654936461388074
2.589442815249267
2.52297165200391
2.447702834799609
2.3685239491691106
2.289345063538612
2.2130987292277613
2.142717497556207
2.080156402737048
2.024437927663734
1.9745845552297163
1.9315738025415443
1.89247311827957
1.857282502443793
1.827956989247312
1.8005865102639296
1.7712609970674489
1.7409579667644184
1.710654936461388
1.6803519061583578
1.6490713587487782
1.616813294232649
1.5835777126099706
1.5503421309872922
1.517106549364614
1.4838709677419355
1.456500488758553
1.4320625610948192
1.404692082111437
1.3773216031280548
1.3509286412512218
1.324535679374389
1.2991202346041055
1.2746823069403714
1.252199413489736
1.23069403714565
1.2111436950146628
1.1935483870967742
1.176930596285435
1.166177908113392
1.1583577712609971
1.1485826001955035
1.1378299120234605
1.1270772238514175
1.1163245356793745
1.1055718475073313
1.093841642228739
1.0811339198435972
1.067448680351906
1.0527859237536656
1.0371456500488758
1.0254154447702837
1.0166177908113392
1.0048875855327468
0.9931573802541545
0.981427174975562
0.9716520039100685
0.9638318670576737
0.9579667644183774
0.95405669599218
0.9521016617790812
0.9511241446725318
0.9501466275659824
0.9530791788856304
0.956989247311828
0.959921798631476
0.9628543499511242
0.9657869012707724
0.9687194525904204
0.9706744868035192
0.9726295210166178
0.9765395894428152
0.9843597262952102
1.0
1.0273704789833822
1.072336265884653
1.1270772238514175
1.1964809384164223
1.2942326490713587
1.418377321603128
1.5620723362658846
1.7204301075268815
1.8866080156402736
2.0527859237536656
2.212121212121212
2.357771260997068
2.486803519061584
2.5962854349951123
2.675464320625611
2.732160312805474
2.7839687194525906
2.8260019550342133
2.8582600195503423
2.8797653958944283
2.8914956011730206
2.89247311827957
2.881720430107527
2.859237536656892
2.825024437927664
2.779081133919844
2.7223851417399803
2.662756598240469
2.601173020527859
2.5317693059628543
2.458455522971652
2.3870967741935485
2.3196480938416424
2.2580645161290325
2.203323558162268
2.1544477028347995
2.112414467253177
2.075268817204301
2.042033235581622
2.013685239491691
1.9872922776148585
1.9589442815249267
1.9286412512218964
1.895405669599218
1.86119257086999
1.826001955034213
1.7898338220918866
1.75366568914956
1.7165200391006843
1.6793743890518085
1.6422287390029326
1.6041055718475072
1.5708699902248289
1.541544477028348
1.509286412512219
1.4760508308895406
1.4437927663734116
1.4134897360703813
1.3841642228739004
1.356793743890518
1.332355816226784
1.3098729227761483
1.2883675464320623
1.2688172043010753
1.2551319648093842
1.2443792766373412
1.2316715542521994
1.2179863147605083
1.2043010752688172
1.1915933528836755
1.1798631476050832
1.1700879765395895
1.160312805474096
1.1505376344086022
1.1407624633431086
1.1319648093841643
1.1231671554252198
1.1192570869990224
1.1173020527859236
1.1133919843597262
1.10752688172043
1.1016617790811338
1.0957966764418376
1.0909090909090908
1.086021505376344
1.0821114369501466
1.078201368523949
1.0742913000977516
1.0703812316715542
1.0694037145650048
1.0694037145650048
1.067448680351906
1.064516129032258
1.0606060606060606
1.056695992179863
1.0527859237536656
1.0488758553274682
1.04594330400782
1.04594330400782
1.053763440860215
1.072336265884653
1.10752688172043
1.1534701857282503
1.2140762463343109
1.303030303030303
1.4193548387096775
1.5591397849462365
1.715542521994135
1.881720430107527
2.050830889540567
2.21505376344086
2.367546432062561
2.504398826979472
2.6236559139784945
2.7126099706744866
2.7781036168132944
2.8396871945259043
2.89247311827957
2.9345063538611926
2.9667644183773216
2.988269794721408
2.99902248289345
2.99902248289345
2.9872922776148583
2.963831867057673
2.927663734115347
2.8797653958944283
2.8260019550342133
2.7673509286412514
2.697947214076246
2.622678396871945
2.544477028347996
2.4672531769305963
2.393939393939394
2.3255131964809386
2.2639296187683287
2.2082111436950145
2.1593352883675463
2.115347018572825
2.078201368523949
2.04594330400782
2.0127077223851417
1.9804496578690127
1.948191593352884
1.9159335288367547
1.8826979472140764
1.847507331378299
1.8113391984359728
1.780058651026393
1.7517106549364614
1.718475073313783
1.683284457478006
1.651026392961877
1.6217008797653958
1.5884652981427174
1.5542521994134897
1.520039100684262
1.4868035190615836
1.455522971652004
1.426197458455523
1.3988269794721409
1.3734115347018572
1.348973607038123
1.3264907135874875
1.3098729227761483
1.2971652003910068
1.2825024437927663
1.2668621700879763
1.252199413489736
1.238514173998045
1.2258064516129032
1.2130987292277615
1.2023460410557183
1.1915933528836755
1.1808406647116323
1.1700879765395895
1.1612903225806452
1.155425219941349
1.152492668621701
1.1466275659824048
1.1407624633431086
1.1348973607038124
1.1290322580645162
1.1241446725317692
1.1192570869990224
1.115347018572825
1.110459433040078
1.1055718475073313
1.1006842619745845
1.0987292277614855
1.0977517106549364
1.0948191593352885
1.0909090909090908
1.0869990224828934
1.0821114369501466
1.0772238514173995
1.072336265884653
1.067448680351906
1.0625610948191593
1.06158357771261
1.0664711632453567
1.0840664711632453
1.1114369501466277
1.1534701857282503
1.219941348973607
1.3118279569892473
1.4281524926686218
1.565982404692082
1.718475073313783
1.8797653958944285
2.042033235581622
2.1974584555229715
2.3411534701857284
2.469208211143695
2.565982404692082
2.6402737047898337
2.710654936461388
2.7702834799608995
2.8181818181818183
2.8533724340175954
2.87683284457478
2.889540566959922
2.8905180840664717
2.8797653958944283
2.8563049853372435
2.8211143695014664
2.7781036168132944
2.727272727272727
2.665689149560117
2.5972629521016617
2.52297165200391
2.447702834799609
2.3743890518084068
2.304985337243402
2.242424242424242
2.187683284457478
2.1417399804496577
2.103616813294233
2.071358748778104
2.046920821114369
2.026392961876833
2.005865102639296
1.986314760508309
1.9667644183773216
1.945259042033236
1.920821114369501
1.8944281524926687
1.866080156402737
1.835777126099707
1.8035190615835777
1.76930596285435
1.7390029325513197
1.7096774193548387
1.6764418377321604
1.640273704789834
1.6021505376344083
1.5620723362658846
1.521016617790811
1.4809384164222874
1.4418377321603129
1.404692082111437
1.370478983382209
1.3401759530791788
1.313782991202346
1.295210166177908
1.2825024437927663
1.2697947214076246
1.2590420332355816
1.249266862170088
1.2424242424242424
1.2365591397849462
1.2326490713587488
1.23069403714565
1.2297165200391007
1.23069403714565
1.2326490713587488
1.2365591397849462
1.241446725317693
1.2443792766373412
1.24633431085044
1.2473118279569892
1.2473118279569892
1.2453567937438903
1.241446725317693
1.2355816226783969
1.227761485826002
1.2189638318670577
1.2101661779081134
1.1994134897360704
1.1915933528836755
1.18475073313783
1.1759530791788857
1.166177908113392
1.155425219941349
1.1456500488758554
1.1358748778103618
1.126099706744868
1.1173020527859236
1.1094819159335287
1.104594330400782
1.1065493646138806
1.1173020527859236
1.1407624633431086
1.1827956989247312
1.249266862170088
1.3411534701857282
1.458455522971652
1.598240469208211
1.75366568914956
1.9178885630498532
2.0840664711632453
2.244379276637341
2.3929618768328447
2.525904203323558
2.6265884652981426
2.7038123167155423
2.777126099706745
2.8406647116324537
2.89345063538612
2.9345063538611926
2.9657869012707723
2.986314760508309
2.997067448680352
2.9980449657869013
2.988269794721408
2.9687194525904204
2.9393939393939394
2.900293255131965
2.8514173998044967
2.791788856304985
2.724340175953079
2.650048875855328
2.573802541544477
2.4975562072336266
2.423264907135875
2.3548387096774195
2.29227761485826
2.2375366568914954
2.189638318670577
2.150537634408602
2.1163245356793743
2.0840664711632453
2.0527859237536656
2.022482893450636
1.992179863147605
1.9608993157380252
1.9286412512218964
1.895405669599218
1.8602150537634408
1.825024437927664
1.7888563049853372
1.7565982404692082
1.726295210166178
1.6930596285434996
1.6588465298142718
1.624633431085044
1.590420332355816
1.5562072336265884
1.5239491691104594
1.4916911045943304
1.4604105571847508
1.43108504398827
1.4037145650048877
1.3773216031280548
1.356793743890518
1.3401759530791788
1.3225806451612905
1.3049853372434017
1.2883675464320623
1.273704789833822
1.260019550342131
1.24633431085044
1.2336265884652982
1.2218963831867058
1.2121212121212122
1.203323558162268
1.1994134897360704
1.1964809384164223
1.1915933528836755
1.18475073313783
1.1779081133919844
1.1720430107526882
1.166177908113392
1.1612903225806452
1.155425219941349
1.1505376344086022
1.147605083088954
1.144672531769306
1.1407624633431086
1.1397849462365592
1.1397849462365592
1.1368523949169111
1.133919843597263
1.1319648093841643
1.1290322580645162
1.126099706744868
1.1231671554252198
1.1202346041055715
1.1173020527859236
1.1133919843597262
1.1114369501466277
1.115347018572825
1.126099706744868
1.1466275659824048
1.1691104594330402
1.206256109481916
1.2776148582600195
1.380254154447703
1.509286412512219
1.6578690127077225
1.8191593352883677
1.9843597262952104
2.146627565982405
2.2991202346041058
2.420332355816227
2.5190615835777126
2.616813294232649
2.704789833822092
2.780058651026393
2.841642228739003
2.8914956011730206
2.9286412512218964
2.9550342130987293
2.9716520039100685
2.978494623655914
2.973607038123167
2.956989247311828
2.930596285434995
2.8944281524926687
2.8475073313782997
2.789833822091887
2.7223851417399803
2.6471163245356792
2.565982404692082
2.4838709677419355
2.401759530791789
2.32355816226784
2.251221896383187
2.185728250244379
2.1309872922776147
2.085043988269794
2.040078201368524
1.9980449657869013
1.959921798631476
1.9237536656891496
1.8875855327468232
1.8523949169110456
1.818181818181818
1.782991202346041
1.747800586510264
1.7116324535679377
1.6793743890518085
1.6490713587487782
1.6148582600195502
1.5777126099706744
1.5395894428152492
1.501466275659824
1.4652981427174976
1.4301075268817205
1.3958944281524928
1.3636363636363635
1.332355816226784
1.3020527859237536
1.2776148582600195
1.2570869990224829
1.2346041055718475
1.2111436950146628
1.1886608015640274
1.1681329423264908
1.1495601173020529
1.1329423264907137
1.1173020527859236
1.1036168132942326
1.0918866080156402
1.0811339198435972
1.0713587487781036
1.0654936461388074
1.06158357771261
1.0547409579667644
1.0469208211143697
1.0391006842619743
1.0312805474095796
1.0234604105571847
1.0156402737047898
1.007820136852395
1.0
0.9931573802541545
0.9872922776148584
0.9853372434017597
0.9853372434017597
0.9833822091886608
0.9794721407624634
0.9745845552297164
0.9687194525904204
0.9628543499511242
0.9579667644183774
0.95405669599218
0.9501466275659824
0.946236559139785
0.9423264907135877
0.9393939393939394
0.9403714565004888
0.9452590420332356
0.9530791788856304
0.9706744868035192
1.002932551319648
1.0557184750733135
1.1319648093841643
1.2336265884652982
1.3587487781036167
1.5034213098729228
1.6608015640273706
1.8240469208211143
1.964809384164223
2.088954056695992
2.217986314760508
2.340175953079179
2.4486803519061584
2.5425219941348973
2.619745845552297
2.681329423264907
2.729227761485826
2.764418377321604
2.788856304985337
2.8025415444770285
2.8044965786901277
2.7947214076246336
2.7751710654936463
2.744868035190616
2.7038123167155423
2.6529814271749754
2.592375366568915
2.52297165200391
2.4486803519061584
2.3734115347018574
2.2991202346041058
2.2277614858260018
2.1622678396871944
2.10850439882698
2.0635386119257086
2.0205278592375366
1.9824046920821117
1.948191593352884
1.916911045943304
1.8875855327468232
1.8602150537634408
1.8318670576735088
1.801564027370479
1.7702834799608993
1.737047898338221
1.7028347996089932
1.672531769305963
1.6441837732160314
1.6109481915933528
1.576735092864125
1.542521994134897
1.5073313782991202
1.4721407624633431
1.4379276637341154
1.4056695992179864
1.3743890518084063
1.3440860215053765
1.3157380254154447
1.2942326490713587
1.2756598240469208
1.2551319648093842
1.2346041055718475
1.2140762463343109
1.195503421309873
1.1779081133919844
1.1612903225806452
1.1466275659824048
1.133919843597263
1.1221896383186705
1.1114369501466277
1.1026392961876832
1.096774193548387
1.093841642228739
1.088954056695992
1.0840664711632453
1.0791788856304985
1.075268817204301
1.0703812316715542
1.0654936461388074
1.0596285434995112
1.0527859237536656
1.04594330400782
1.040078201368524
1.0381231671554252
1.0381231671554252
1.0371456500488758
1.035190615835777
1.032258064516129
1.029325513196481
1.0273704789833822
1.024437927663734
1.0195503421309873
1.0146627565982405
1.0097751710654936
1.0058651026392962
1.0019550342130987
1.0019550342130987
1.0058651026392962
1.013685239491691
1.0303030303030305
1.0625610948191593
1.1143695014662756
1.1896383186705768
1.2903225806451613
1.4164222873900294
1.563049853372434
1.7233626588465298
1.8914956011730208
2.037145650048876
2.166177908113392
2.3010752688172045
2.4301075268817205
2.5464320625610948
2.6471163245356792
2.7311827956989245
2.80058651026393
2.855327468230694
2.898338220918866
2.929618768328446
2.9501466275659824
2.9579667644183774
2.952101661779081
2.9345063538611926
2.909090909090909
2.8729227761485827
2.8260019550342133
2.768328445747801
2.7008797653958942
2.627565982404692
2.550342130987292
2.472140762463343
2.3949169110459434
2.3225806451612905
2.26197458455523
2.210166177908113
2.160312805474096
2.114369501466276
2.0733137829912023
2.0361681329423265
2.002932551319648
1.970674486803519
1.93841642228739
1.906158357771261
1.8729227761485825
1.8387096774193548
1.8035190615835777
1.7712609970674489
1.7409579667644184
1.7057673509286413
1.6686217008797657
1.6304985337243405
1.5913978494623655
1.5532746823069403
1.5161290322580645
1.4809384164222874
1.4613880742913
1.4496578690127078
1.4291300097751711
1.409579667644184
1.391006842619746
1.3695014662756595
1.3470185728250244
1.324535679374389
1.3040078201368523
1.2854349951124144
1.2688172043010753
1.2541544477028348
1.2394916911045943
1.2267839687194526
1.2150537634408602
1.2082111436950147
1.203323558162268
1.1964809384164223
1.1886608015640274
1.1808406647116323
1.1730205278592376
1.1652003910068427
1.1573802541544478
1.1495601173020529
1.142717497556207
1.1358748778103618
1.1290322580645162
1.1221896383186705
1.1192570869990224
1.118279569892473
1.1143695014662756
1.110459433040078
1.1065493646138806
1.1026392961876832
1.0987292277614855
1.0948191593352885
1.0918866080156402
1.088954056695992
1.0850439882697946
1.0801564027370478
1.0791788856304985
1.0801564027370478
1.0801564027370478
1.0811339198435972
1.088954056695992
1.10752688172043
1.142717497556207
1.2003910068426198
1.2825024437927663
1.391006842619746
1.521994134897361
1.6715542521994136
1.8318670576735088
1.9745845552297163
2.103616813294233
2.241446725317693
2.376344086021505
2.498533724340176
2.6050830889540566
2.696969696969697
2.7722385141739982
2.832844574780059
2.8807429130009776
2.916911045943304
2.9423264907135875
2.952101661779081
2.9501466275659824
2.9423264907135875
2.9266862170087977
2.902248289345064
2.866080156402737
2.819159335288368
2.7624633431085046
2.6959921798631474
2.622678396871945
2.5464320625610948
2.4682306940371457
2.3919843597262958
2.3255131964809386
2.2668621700879767
2.210166177908113
2.157380254154448
2.110459433040078
2.069403714565005
2.032258064516129
1.9980449657869013
1.9657869012707725
1.9345063538611929
1.903225806451613
1.870967741935484
1.8416422287390029
1.8132942326490715
1.7810361681329423
1.7458455522971652
1.710654936461388
1.6744868035190617
1.6373411534701858
1.6011730205278591
1.5650048875855327
1.5288367546432062
1.4936461388074291
1.4604105571847508
1.4281524926686218
1.4027370478983383
1.3812316715542523
1.3587487781036167
1.335288367546432
1.313782991202346
1.2932551319648091
1.273704789833822
1.2561094819159335
1.2394916911045943
1.2238514173998043
1.209188660801564
1.1964809384164223
1.187683284457478
1.181818181818182
1.1730205278592376
1.164222873900293
1.1544477028347997
1.1456500488758554
1.1378299120234605
1.1300097751710656
1.1221896383186705
1.115347018572825
1.1085043988269794
1.1016617790811338
1.0957966764418376
1.093841642228739
1.093841642228739
1.0909090909090908
1.0879765395894427
1.0850439882697946
1.0801564027370478
1.0762463343108504
1.072336265884653
1.067448680351906
1.0635386119257086
1.0596285434995112
1.056695992179863
1.0557184750733135
1.056695992179863
1.056695992179863
1.056695992179863
1.0606060606060606
1.072336265884653
1.0977517106549364
1.1407624633431086
1.2052785923753666
1.295210166177908
1.409579667644184
1.5454545454545454
1.696969696969697
1.8347996089931573
1.9657869012707725
2.1094819159335287
2.2531769305962857
2.3870967741935485
2.506353861192571
2.6099706744868034
2.6959921798631474
2.766373411534702
2.8211143695014664
2.863147605083089
2.89345063538612
2.9071358748778104
2.9100684261974585
2.90811339198436
2.898338220918866
2.877810361681329
2.84652981427175
2.8044965786901277
2.7517106549364616
2.6901270772238512
2.619745845552297
2.544477028347996
2.466275659824047
2.388074291300098
2.318670576735093
2.257086999022483
2.1955034213098727
2.1378299120234603
2.085043988269794
2.037145650048876
1.994134897360704
1.9560117302052784
1.920821114369501
1.8866080156402736
1.8543499511241448
1.8240469208211143
1.7976539589442817
1.7732160312805474
1.7458455522971652
1.718475073313783
1.6920821114369502
1.664711632453568
1.6373411534701858
1.6099706744868034
1.5826001955034212
1.5562072336265884
1.530791788856305
1.5063538611925709
1.4838709677419355
1.4672531769305963
1.452590420332356
1.436950146627566
1.4203323558162269
1.4027370478983383
1.3841642228739004
1.364613880742913
1.343108504398827
1.3196480938416422
1.295210166177908
1.2697947214076246
1.2443792766373412
1.224828934506354
1.2082111436950147
1.1896383186705768
1.1710654936461389
1.1544477028347997
1.1407624633431086
1.130987292277615
1.1241446725317692
1.1202346041055715
1.1192570869990224
1.121212121212121
1.126099706744868
1.1329423264907137
1.1407624633431086
1.1505376344086022
1.1593352883675463
1.1671554252199414
1.1749755620723363
1.181818181818182
1.1867057673509287
1.1915933528836755
1.1945259042033236
1.1964809384164223
1.1974584555229717
1.1964809384164223
1.195503421309873
1.1945259042033236
1.1896383186705768
1.1837732160312806
1.1798631476050832
1.1827956989247312
1.1974584555229717
1.2297165200391007
1.284457478005865
1.3636363636363635
1.4682306940371457
1.595307917888563
1.7174975562072337
1.8406647116324533
1.9843597262952104
2.133919843597263
2.283479960899316
2.4242424242424243
2.5513196480938416
2.66177908113392
2.7546432062561097
2.83088954056696
2.89247311827957
2.940371456500489
2.9765395894428157
2.995112414467253
3.0009775171065494
3.0019550342130987
2.995112414467253
2.9765395894428157
2.946236559139785
2.903225806451613
2.849462365591398
2.78494623655914
2.7126099706744866
2.634408602150537
2.5542521994134897
2.4809384164222874
2.412512218963832
2.343108504398827
2.27761485826002
2.217986314760508
2.1652003910068425
2.1192570869990224
2.078201368523949
2.042033235581622
2.007820136852395
1.975562072336266
1.943304007820137
1.911045943304008
1.881720430107527
1.8533724340175952
1.8211143695014664
1.7859237536656891
1.7497556207233629
1.7126099706744868
1.6764418377321604
1.640273704789834
1.6050830889540566
1.5708699902248289
1.5386119257087
1.5073313782991202
1.4809384164222874
1.458455522971652
1.4320625610948192
1.4056695992179864
1.3792766373411536
1.3528836754643203
1.327468230694037
1.3040078201368523
1.281524926686217
1.2609970674486803
1.2424242424242424
1.224828934506354
1.209188660801564
1.198435972629521
1.1896383186705768
1.1798631476050832
1.1700879765395895
1.1593352883675463
1.1485826001955035
1.13880742913001
1.1300097751710656
1.121212121212121
1.1133919843597262
1.1055718475073313
1.0977517106549364
1.0928641251221896
1.0899315738025417
1.0850439882697946
1.0801564027370478
1.0742913000977516
1.0694037145650048
1.0654936461388074
1.06158357771261
1.0576735092864125
1.053763440860215
1.0498533724340176
1.0469208211143697
1.0439882697947214
1.0439882697947214
1.04594330400782
1.04594330400782
1.0439882697947214
1.0420332355816226
1.043010752688172
1.0498533724340176
1.0684261974584557
1.1036168132942326
1.160312805474096
1.2424242424242424
1.3509286412512218
1.4633431085043989
1.5835777126099706
1.732160312805474
1.895405669599218
2.0625610948191597
2.2248289345063537
