ppg
2.6080156402737047
2.533724340175953
2.464320625610948
2.3919843597262958
2.320625610948192
2.2521994134897363
2.187683284457478
2.126099706744868
2.067448680351906
2.0117302052785924
1.9589442815249267
1.90811339198436
1.8592375366568916
1.812316715542522
1.7712609970674489
1.7341153470185728
1.694037145650049
1.6520039100684265
1.608993157380254
1.565982404692082
1.521994134897361
1.478983382209189
1.436950146627566
1.396871945259042
1.3577712609970674
1.3206256109481915
1.2903225806451613
1.2658846529814272
1.2404692082111437
1.2150537634408602
1.1906158357771262
1.1691104594330402
1.1485826001955035
1.1300097751710656
1.1124144672531768
1.096774193548387
1.0821114369501466
1.0694037145650048
1.056695992179863
1.0478983382209188
1.0420332355816226
1.0332355816226784
1.0205278592375366
1.0068426197458455
0.9931573802541545
0.9843597262952102
0.9872922776148584
1.0097751710654936
1.0596285434995112
1.1407624633431086
1.2541544477028348
1.3743890518084063
1.501466275659824
1.6529814271749756
1.8142717497556209
1.9726295210166176
2.121212121212121
2.2561094819159337
2.375366568914956
2.479960899315738
2.570869990224829
2.650048875855328
2.717497556207233
2.777126099706745
2.819159335288368
2.850439882697948
2.881720430107527
2.909090909090909
2.927663734115347
2.935483870967742
2.930596285434995
2.9120234604105573
2.881720430107527
2.841642228739003
2.7947214076246336
2.7438905180840663
2.695014662756598
2.6471163245356792
2.598240469208211
2.550342130987292
2.5034213098729228
2.4574780058651027
2.4115347018572826
2.3655913978494625
2.318670576735093
2.270772238514174
2.2218963831867056
2.172043010752688
2.1221896383186705
2.0772238514174
2.034213098729228
1.989247311827957
1.943304007820137
1.8983382209188664
1.8563049853372435
1.8162267839687196
1.780058651026393
1.747800586510264
1.7194525904203324
1.694037145650049
1.6705767350928642
1.651026392961877
1.6314760508308896
1.608993157380254
1.58455522971652
1.5571847507331378
1.5288367546432062
1.500488758553275
1.4721407624633431
1.4437927663734116
1.4164222873900294
1.3900293255131966
1.364613880742913
1.3401759530791788
1.3206256109481915
1.3049853372434017
1.2883675464320623
1.2717497556207231
1.2570869990224829
1.2443792766373412
1.2355816226783969
1.2297165200391007
1.2267839687194526
1.2258064516129032
1.2258064516129032
1.2238514173998043
1.2238514173998043
1.2238514173998043
1.224828934506354
1.2316715542521994
1.2531769305962854
1.2971652003910068
1.367546432062561
1.4652981427174976
1.587487781036168
1.7272727272727273
1.8778103616813293
2.03128054740958
2.1622678396871944
2.27761485826002
2.39980449657869
2.520039100684262
2.632453567937439
2.7341153470185726
2.823069403714565
2.898338220918866
2.9589442815249267
3.003910068426197
3.032258064516129
3.0449657869012707
3.0439882697947214
3.0283479960899315
3.0019550342130987
2.967741935483871
2.9257086999022484
2.874877810361681
2.8181818181818183
2.7565982404692084
2.6930596285435
2.6295210166177907
2.567937438905181
2.509286412512219
2.4545454545454546
2.4056695992179864
2.361681329423265
2.317693059628544
2.2737047898338223
2.228739002932551
2.1837732160312804
2.136852394916911
2.089931573802541
2.043010752688172
1.9960899315738023
1.949169110459433
1.902248289345064
1.8563049853372435
1.8172043010752688
1.7820136852394917
1.7448680351906158
1.7086999022482894
1.6735092864125125
1.640273704789834
1.608993157380254
1.5796676441837731
1.5513196480938416
1.5239491691104594
1.498533724340176
1.474095796676442
1.455522971652004
1.4389051808406648
1.4203323558162269
1.4007820136852396
1.380254154447703
1.356793743890518
1.3313782991202343
1.3040078201368523
1.2756598240469208
1.2473118279569892
1.219941348973607
1.1935483870967742
1.1691104594330402
1.152492668621701
1.1397849462365592
1.1270772238514175
1.1143695014662756
1.1036168132942326
1.093841642228739
1.0850439882697946
1.0772238514173995
1.067448680351906
1.0547409579667644
1.040078201368524
1.0312805474095796
1.032258064516129
1.0381231671554252
1.0557184750733135
1.0948191593352885
1.1612903225806452
1.2561094819159335
1.3763440860215057
1.5161290322580645
1.664711632453568
1.8132942326490715
1.9550342130987293
2.086021505376344
2.203323558162268
2.294232649071359
2.3685239491691106
2.442815249266862
2.512218963831867
2.573802541544477
2.625610948191593
2.667644183773216
2.6989247311827955
2.717497556207233
2.724340175953079
2.717497556207233
2.697947214076246
2.668621700879765
2.6295210166177907
2.5777126099706744
2.515151515151515
2.444770283479961
2.36950146627566
2.2932551319648096
2.219941348973607
2.1515151515151514
2.088954056695992
2.034213098729228
1.9853372434017595
1.2218963831867058
1.33822091886608
1.482893450635386
1.64613880742913
1.818181818181818
1.989247311827957
2.1515151515151514
2.3010752688172045
2.4359726295210167
2.5532746823069403
2.653958944281525
2.7262952101661777
2.779081133919844
2.827956989247312
2.866080156402737
2.89345063538612
2.90811339198436
2.909090909090909
2.8963831867057674
2.8699902248289346
2.831867057673509
2.782991202346041
2.7233626588465296
2.6608015640273703
2.5972629521016617
2.5249266862170088
2.4486803519061584
2.372434017595308
2.2981427174975564
2.2277614858260018
2.161290322580645
2.099706744868035
2.043010752688172
1.9902248289345064
1.9403714565004888
1.8934506353861196
1.8533724340175952
1.818181818181818
1.780058651026393
1.7419354838709675
1.7038123167155426
1.6656891495601174
1.6285434995112416
1.5923753665689149
1.5581622678396871
1.5249266862170088
1.4916911045943304
1.458455522971652
1.43108504398827
1.4076246334310851
1.380254154447703
1.3528836754643203
1.3255131964809383
1.2981427174975562
1.2727272727272727
1.2482893450635386
1.2258064516129032
1.2052785923753666
1.1857282502443791
1.1681329423264908
1.152492668621701
1.141739980449658
1.133919843597263
1.1241446725317692
1.1124144672531768
1.1006842619745845
1.088954056695992
1.0762463343108504
1.0625610948191593
1.0478983382209188
1.032258064516129
1.0166177908113392
1.002932551319648
0.9990224828934506
1.007820136852395
1.0342130987292275
1.086021505376344
1.1681329423264908
1.2825024437927663
1.423264907135875
1.5835777126099706
1.75366568914956
1.9257086999022484
2.090909090909091
2.244379276637341
2.3812316715542523
2.486803519061584
2.5698924731182795
2.6510263929618767
2.7223851417399803
2.7810361681329425
2.825024437927664
2.854349951124145
2.8690127077223853
2.870967741935484
2.860215053763441
2.8367546432062563
2.801564027370479
2.758553274682307
2.708699902248289
2.649071358748778
2.5806451612903225
2.50733137829912
2.432062561094819
2.356793743890518
2.283479960899316
2.2140762463343107
2.1485826001955037
2.088954056695992
2.0332355816226784
1.9824046920821117
1.9393939393939397
1.900293255131965
1.8592375366568916
1.818181818181818
1.7771260997067448
1.737047898338221
1.6979472140762464
1.6598240469208212
1.6226783968719452
1.5865102639296187
1.552297165200391
1.5190615835777126
1.4916911045943304
1.4672531769305963
1.439882697947214
1.4115347018572826
1.3822091886608017
1.3528836754643203
1.3255131964809383
1.2981427174975562
1.2727272727272727
1.2482893450635386
1.224828934506354
1.203323558162268
1.1827956989247312
1.1691104594330402
1.1583577712609971
1.1456500488758554
1.1329423264907137
1.1202346041055715
1.1094819159335287
1.0987292277614855
1.088954056695992
1.078201368523949
1.0664711632453567
1.0547409579667644
1.0410557184750733
1.0303030303030305
1.0205278592375366
1.0068426197458455
0.9951124144672532
0.9941348973607038
1.0117302052785924
1.056695992179863
1.1329423264907137
1.2424242424242424
1.380254154447703
1.5395894428152492
1.710654936461388
1.8836754643206255
2.0303030303030303
2.158357771260997
2.290322580645161
2.4134897360703813
2.5239491691104594
2.618768328445748
2.696969696969697
2.7595307917888565
2.8054740957966766
2.834799608993157
2.849462365591398
2.849462365591398
2.834799608993157
2.8084066471163247
2.771260997067449
2.7223851417399803
2.6637341153470184
2.5962854349951123
2.52297165200391
2.44672531769306
2.3685239491691106
2.291300097751711
2.2170087976539588
2.147605083088954
2.0840664711632453
2.03128054740958
1.9853372434017595
1.9393939393939397
1.895405669599218
1.8543499511241448
1.8142717497556209
1.7761485826001957
1.739980449657869
1.7038123167155426
1.6686217008797657
1.6344086021505375
1.6011730205278591
1.573802541544477
1.5493646138807429
1.521994134897361
1.4926686217008798
1.4633431085043989
1.4349951124144673
1.4066471163245358
1.3782991202346042
1.3499511241446724
1.3225806451612905
1.2961876832844574
1.270772238514174
1.24633431085044
1.227761485826002
1.2121212121212122
1.1935483870967742
1.1749755620723363
1.1564027370478984
1.1397849462365592
1.1251221896383188
1.1114369501466277
1.0987292277614855
1.0869990224828934
1.0772238514173995
1.067448680351906
1.0606060606060606
1.0557184750733135
1.0478983382209188
1.0361681329423265
1.021505376344086
1.0087976539589445
1.002932551319648
1.010752688172043
1.0410557184750733
1.0987292277614855
1.1886608015640274
1.310850439882698
1.4604105571847508
1.6050830889540566
1.7468230694037146
1.90811339198436
2.0733137829912023
2.231671554252199
2.376344086021505
2.5210166177908118
2.6578690127077222
2.766373411534702
2.850439882697948
2.9149560117302054
2.961876832844575
2.986314760508309
2.995112414467253
2.995112414467253
2.9853372434017595
2.963831867057673
2.929618768328446
2.8836754643206257
2.8260019550342133
2.758553274682307
2.684261974584555
2.6050830889540566
2.5249266862170088
2.452590420332356
2.386119257086999
2.3167155425219943
2.249266862170088
2.1847507331378297
2.124144672531769
2.067448680351906
2.0146627565982405
1.964809384164223
1.9178885630498532
1.873900293255132
1.8318670576735088
1.7917888563049853
1.7575757575757576
1.726295210166178
1.6930596285434996
1.6588465298142718
1.6236559139784943
1.590420332355816
1.5581622678396871
1.5268817204301075
1.4965786901270772
1.4672531769305963
1.4389051808406648
1.4115347018572826
1.3900293255131966
1.370478983382209
1.3479960899315735
1.3255131964809383
1.3040078201368523
1.2825024437927663
1.2609970674486803
1.2404692082111437
1.2218963831867058
1.2043010752688172
1.187683284457478
1.1730205278592376
1.1583577712609971
1.1485826001955035
1.141739980449658
1.1319648093841643
1.121212121212121
1.1085043988269794
1.093841642228739
1.078201368523949
1.064516129032258
1.0576735092864125
1.064516129032258
1.0928641251221896
1.1505376344086022
1.2258064516129032
1.321603128054741
1.4535679374389052
1.6129032258064515
1.7869012707722385
1.9657869012707725
2.1407624633431084
2.304007820136853
2.450635386119257
2.5806451612903225
2.69208211143695
2.7859237536656893
2.8611925708699903
2.911045943304008
2.9423264907135875
2.967741935483871
2.983382209188661
2.986314760508309
2.9775171065493646
2.9550342130987293
2.920821114369501
2.874877810361681
2.817204301075269
2.750733137829912
2.67644183773216
2.606060606060606
2.5376344086021505
2.462365591397849
2.3870967741935485
2.313782991202346
2.2453567937438903
2.1818181818181817
2.1221896383186705
2.065493646138808
2.013685239491691
1.964809384164223
1.9178885630498532
1.871945259042033
1.833822091886608
1.7996089931573802
1.7624633431085044
1.7253176930596286
1.6881720430107527
1.6529814271749756
1.6177908113391983
1.5835777126099706
1.5503421309872922
1.5180840664711632
1.4868035190615836
1.456500488758553
1.4320625610948192
1.4115347018572826
1.3890518084066472
1.364613880742913
1.3401759530791788
1.316715542521994
1.2942326490713587
1.2727272727272727
1.252199413489736
1.2336265884652982
1.2160312805474096
1.2003910068426198
1.1867057673509287
1.1788856304985338
1.173998044965787
1.1671554252199414
1.1583577712609971
1.1485826001955035
1.1368523949169111
1.1241446725317692
1.110459433040078
1.0948191593352885
1.0791788856304985
1.0684261974584557
1.0703812316715542
1.0869990224828934
1.1231671554252198
1.1896383186705768
1.289345063538612
1.4193548387096775
1.5747800586510263
1.7448680351906158
1.921798631476051
2.0948191593352883
2.257086999022483
2.4056695992179864
2.536656891495601
2.650048875855328
2.7331378299120237
2.7947214076246336
2.850439882697948
2.895405669599218
2.927663734115347
2.946236559139785
2.951124144672532
2.9423264907135875
2.921798631476051
2.8885630498533725
2.8426197458455524
2.7869012707722387
2.7282502443792764
2.665689149560117
2.595307917888563
2.5190615835777126
2.441837732160313
2.366568914956012
2.294232649071359
2.225806451612903
2.1622678396871944
2.104594330400782
2.050830889540567
2.0009775171065494
1.9550342130987293
1.916911045943304
1.8826979472140764
1.8455522971652003
1.8084066471163245
1.7712609970674489
1.7350928641251222
1.699902248289345
1.6656891495601174
1.632453567937439
1.6001955034213098
1.56891495601173
1.5386119257087
1.5131964809384164
1.4897360703812317
1.4633431085043989
1.4349951124144673
1.4066471163245358
1.3792766373411536
1.3528836754643203
1.327468230694037
1.303030303030303
1.2795698924731185
1.2580645161290325
1.238514173998045
1.2209188660801564
1.2082111436950147
1.1994134897360704
1.1896383186705768
1.1798631476050832
1.1700879765395895
1.160312805474096
1.1505376344086022
1.141739980449658
1.1319648093841643
1.1202346041055715
1.10752688172043
1.0928641251221896
1.083088954056696
1.078201368523949
1.078201368523949
1.0918866080156402
1.1300097751710656
1.198435972629521
1.2981427174975562
1.4281524926686218
1.581622678396872
1.7497556207233629
1.9227761485826005
2.090909090909091
2.23069403714565
2.3489736070381237
2.4672531769305963
2.5777126099706744
2.674486803519061
2.755620723362659
2.820136852394917
2.8690127077223853
2.903225806451613
2.9227761485826003
2.9286412512218964
2.919843597262952
2.898338220918866
2.8670576735092865
2.8260019550342133
2.7751710654936463
2.716520039100684
2.650048875855328
2.578690127077224
2.505376344086021
2.43108504398827
2.357771260997068
2.2873900293255134
2.220918866080156
2.1593352883675463
2.1065493646138806
2.050830889540567
1.9902248289345064
1.9364613880742916
1.8885630498533723
1.8435972629521016
1.8025415444770283
1.7624633431085044
1.7233626588465298
1.6842619745845553
1.64613880742913
1.6099706744868034
1.5747800586510263
1.5464320625610948
1.521016617790811
1.4926686217008798
1.4633431085043989
1.434017595307918
1.4066471163245358
1.3792766373411536
1.3519061583577712
1.324535679374389
1.2971652003910068
1.2697947214076246
1.2434017595307918
1.2238514173998043
1.2072336265884651
1.187683284457478
1.1681329423264908
1.1485826001955035
1.1300097751710656
1.1124144672531768
1.0957966764418376
1.0811339198435972
1.067448680351906
1.0547409579667644
1.043010752688172
1.0312805474095796
1.0234604105571847
1.0175953079178883
1.0068426197458455
0.9931573802541545
0.978494623655914
0.967741935483871
0.9667644183773216
0.9843597262952102
1.0283479960899315
1.1036168132942326
1.2111436950146628
1.346041055718475
1.479960899315738
1.6138807429130009
1.76930596285435
1.9296187683284456
2.085043988269794
2.2297165200391005
2.3597262952101663
2.4731182795698925
2.56891495601173
2.6480938416422286
2.7096774193548385
2.7536656891495603
2.782013685239492
2.792766373411535
2.789833822091887
2.776148582600196
2.7517106549364616
2.716520039100684
2.670576735092864
2.613880742913001
2.550342130987292
2.4809384164222874
2.409579667644184
2.3382209188660803
2.2668621700879767
2.204301075268817
2.147605083088954
2.089931573802541
2.034213098729228
1.9804496578690127
1.9305962854349952
1.884652981427175
1.8406647116324533
1.7996089931573802
1.7605083088954057
1.7223851417399805
1.6852394916911049
1.6480938416422288
1.616813294232649
1.5894428152492668
1.560117302052786
1.5298142717497556
1.500488758553275
1.4711632453567938
1.4418377321603129
1.414467253176931
1.3861192570869991
1.3587487781036167
1.3313782991202343
1.3049853372434017
1.284457478005865
1.267839687194526
1.2482893450635386
1.227761485826002
1.2072336265884651
1.1886608015640274
1.1710654936461389
1.155425219941349
1.1407624633431086
1.126099706744868
1.1124144672531768
1.1006842619745845
1.0899315738025417
1.0840664711632453
1.0801564027370478
1.0733137829912025
1.0654936461388074
1.0547409579667644
1.0439882697947214
1.0312805474095796
1.018572825024438
1.0087976539589445
1.0068426197458455
1.0205278592375366
1.0576735092864125
1.1114369501466277
1.1857282502443791
1.2942326490713587
1.4330400782013686
1.5913978494623655
1.761485826001955
1.932551319648094
2.0987292277614857
2.254154447702835
2.3949169110459434
2.5190615835777126
2.625610948191593
2.7155425219941347
2.779081133919844
2.823069403714565
2.86217008797654
2.89247311827957
2.9100684261974585
2.9149560117302054
2.906158357771261
2.884652981427175
2.8514173998044967
2.806451612903226
2.750733137829912
2.687194525904203
2.6236559139784945
2.560117302052786
2.489736070381232
2.4173998044965788
2.347018572825025
2.2795698924731185
2.2170087976539588
2.158357771260997
2.104594330400782
2.053763440860215
2.005865102639296
1.9589442815249267
1.913978494623656
1.8758553274682308
1.8416422287390029
1.8054740957966764
1.7683284457478006
1.7311827956989247
1.6950146627565983
1.6598240469208212
1.624633431085044
1.5913978494623655
1.5591397849462365
1.5278592375366569
1.4975562072336266
1.4721407624633431
1.4496578690127078
1.4242424242424243
1.3988269794721409
1.3724340175953078
1.3470185728250244
1.3225806451612905
1.2981427174975562
1.2746823069403714
1.2531769305962854
1.2336265884652982
1.2150537634408602
1.198435972629521
1.1886608015640274
1.181818181818182
1.1720430107526882
1.1612903225806452
1.1505376344086022
1.1407624633431086
1.1329423264907137
1.1251221896383188
1.1163245356793745
1.1065493646138806
1.093841642228739
1.0801564027370478
1.072336265884653
1.0703812316715542
1.075268817204301
1.0957966764418376
1.1407624633431086
1.2160312805474096
1.321603128054741
1.455522971652004
1.6109481915933528
1.7790811339198436
1.9501466275659824
2.115347018572825
2.251221896383187
2.366568914956012
2.482893450635386
2.589442815249267
2.6823069403714563
2.7595307917888565
2.820136852394917
2.8641251221896384
2.89345063538612
2.90811339198436
2.9071358748778104
2.89345063538612
2.866080156402737
2.83088954056696
2.787878787878788
2.735092864125122
2.673509286412512
2.606060606060606
2.5347018572825024
2.4613880742913
2.3900293255131966
2.320625610948192
2.2551319648093844
2.1945259042033234
2.1378299120234603
2.089931573802541
2.047898338220919
2.003910068426197
1.9589442815249267
1.9159335288367547
1.8748778103616808
1.835777126099707
1.7996089931573802
1.7644183773216031
1.7302052785923754
1.696969696969697
1.6637341153470186
1.6304985337243405
1.603128054740958
1.5786901270772238
1.5513196480938416
1.52297165200391
1.495601173020528
1.4682306940371457
1.4418377321603129
1.4301075268817205
1.4252199413489737
1.4115347018572826
1.393939393939394
1.375366568914956
1.3607038123167154
1.3470185728250244
1.3304007820136852
1.313782991202346
1.2961876832844574
1.278592375366569
1.262952101661779
1.249266862170088
1.2355816226783969
1.2228739002932552
1.2111436950146628
1.1994134897360704
1.1896383186705768
1.18475073313783
1.181818181818182
1.176930596285435
1.1700879765395895
1.1612903225806452
1.1515151515151516
1.13880742913001
1.1270772238514175
1.1192570869990224
1.1221896383186705
1.144672531769306
1.1925708699902249
1.2570869990224829
1.3421309872922775
1.4623655913978495
1.608993157380254
1.772238514173998
1.943304007820137
2.1114369501466275
2.271749755620724
2.418377321603128
2.549364613880743
2.66177908113392
2.7565982404692084
2.832844574780059
2.8836754643206257
2.9159335288367547
2.9423264907135875
2.9579667644183774
2.959921798631476
2.949169110459433
2.9257086999022484
2.8905180840664717
2.844574780058651
2.788856304985337
2.7253176930596283
2.656891495601173
2.591397849462365
2.5288367546432062
2.462365591397849
2.396871945259042
2.334310850439883
2.274682306940372
2.218963831867057
2.167155425219941
2.1192570869990224
2.074291300097752
2.03128054740958
1.9902248289345064
1.951124144672532
1.916911045943304
1.8856304985337244
1.8533724340175952
1.8201368523949168
1.7869012707722385
1.7546432062561097
1.7233626588465298
1.6930596285434996
1.6627565982404693
1.6334310850439884
1.6050830889540566
1.576735092864125
1.5542521994134897
1.5347018572825024
1.512218963831867
1.4887585532746823
1.4652981427174976
1.4428152492668622
1.4203323558162269
1.3988269794721409
1.3782991202346042
1.3587487781036167
1.3401759530791788
1.321603128054741
1.3049853372434017
1.2932551319648091
1.2834799608993157
1.2717497556207231
1.2590420332355816
1.2473118279569892
1.2346041055718475
1.2228739002932552
1.2111436950146628
1.1994134897360704
1.1906158357771262
1.1827956989247312
1.173998044965787
1.1691104594330402
1.164222873900293
1.1544477028347997
1.142717497556207
1.1319648093841643
1.1300097751710656
1.1436950146627567
1.1798631476050832
1.2453567937438903
1.3411534701857282
1.466275659824047
1.6138807429130009
1.775171065493646
1.920821114369501
2.0547409579667644
2.19941348973607
2.3421309872922778
2.474095796676442
2.591397849462365
2.69208211143695
2.7751710654936463
2.8426197458455524
2.89247311827957
2.9257086999022484
2.943304007820137
2.9442815249266863
2.932551319648094
2.9120234604105573
2.8797653958944283
2.8367546432062563
2.7839687194525906
2.7223851417399803
2.654936461388074
2.5835777126099706
2.5112414467253177
2.439882697947214
2.3704789833822093
2.304985337243402
2.249266862170088
2.20039100684262
2.150537634408602
2.103616813294233
2.058651026392962
2.016617790811339
1.9765395894428155
1.9374389051808407
1.8993157380254155
1.8621700879765395
1.826001955034213
1.790811339198436
1.7624633431085044
1.7360703812316716
1.7067448680351909
1.6764418377321604
1.64613880742913
1.6148582600195502
1.58455522971652
1.5542521994134897
1.5249266862170088
1.495601173020528
1.469208211143695
1.4437927663734116
1.423264907135875
1.404692082111437
1.3841642228739004
1.3636363636363635
1.343108504398827
1.3225806451612905
1.303030303030303
1.284457478005865
1.2668621700879763
1.2502443792766371
1.2346041055718475
1.2209188660801564
1.2082111436950147
1.1994134897360704
1.1925708699902249
1.18475073313783
1.176930596285435
1.1691104594330402
1.1612903225806452
1.1534701857282503
1.144672531769306
1.133919843597263
1.1231671554252198
1.1114369501466277
1.1036168132942326
1.1055718475073313
1.121212121212121
1.1564027370478984
1.217008797653959
1.3079178885630498
1.4281524926686218
1.5728250244379276
1.7350928641251222
1.906158357771261
2.075268817204301
2.236559139784946
2.386119257086999
2.5210166177908118
2.6236559139784945
2.704789833822092
2.7839687194525906
2.852394916911046
2.9071358748778104
2.9472140762463344
2.973607038123167
2.9872922776148583
2.9872922776148583
2.972629521016618
2.945259042033236
2.906158357771261
2.8611925708699903
2.8103616813294234
2.7497556207233624
2.6832844574780057
2.611925708699902
2.5405669599217986
2.4711632453567938
2.406647116324536
2.346041055718475
2.290322580645161
2.239491691104594
2.1925708699902247
2.147605083088954
2.10850439882698
2.072336265884653
2.0332355816226784
1.9931573802541545
1.95405669599218
1.9159335288367547
1.8797653958944285
1.844574780058651
1.8103616813294232
1.7771260997067448
1.7448680351906158
1.7126099706744868
1.686217008797654
1.6608015640273706
1.632453567937439
1.603128054740958
