ppg
2.269794721407625
2.2238514173998043
2.172043010752688
2.113391984359726
2.0557184750733137
1.9960899315738023
1.9266862170087975
1.8523949169110456
1.7771260997067448
1.704789833822092
1.6392961876832846
1.5835777126099706
1.5386119257087
1.5024437927663734
1.474095796676442
1.4516129032258065
1.435972629521017
1.4242424242424243
1.4115347018572826
1.3978494623655917
1.3822091886608017
1.364613880742913
1.346041055718475
1.327468230694037
1.3088954056695992
1.2903225806451613
1.270772238514174
1.2512218963831867
1.2316715542521994
1.217008797653959
1.2052785923753666
1.1896383186705768
1.1720430107526882
1.1544477028347997
1.1368523949169111
1.1202346041055715
1.1036168132942326
1.0899315738025417
1.0772238514173995
1.0664711632453567
1.0547409579667644
1.04594330400782
1.0381231671554252
1.0254154447702837
1.0087976539589445
0.989247311827957
0.9687194525904204
0.9560117302052786
0.9579667644183774
0.9863147605083088
1.050830889540567
1.1593352883675463
1.310850439882698
1.498533724340176
1.6793743890518085
1.8533724340175952
2.0684261974584555
2.2873900293255134
2.463343108504399
2.5972629521016617
2.69208211143695
2.752688172043011
2.7859237536656893
2.798631476050831
2.7947214076246336
2.779081133919844
2.755620723362659
2.727272727272727
2.6940371456500487
2.6578690127077222
2.621700879765396
2.5855327468230693
2.550342130987292
2.5161290322580645
2.4838709677419355
2.450635386119257
2.4144672531769307
2.375366568914956
2.329423264907136
2.2825024437927666
2.231671554252199
2.16911045943304
2.0977517106549364
2.021505376344086
1.9423264907135875
1.8641251221896384
1.790811339198436
1.726295210166178
1.6715542521994136
1.6265884652981428
1.5913978494623655
1.5669599217986314
1.5503421309872922
1.5347018572825024
1.520039100684262
1.5053763440860215
1.490713587487781
1.4750733137829912
1.456500488758553
1.436950146627566
1.4173998044965788
1.396871945259042
1.375366568914956
1.35386119257087
1.3372434017595307
1.3225806451612905
1.3049853372434017
1.2864125122189638
1.2668621700879763
1.2482893450635386
1.2297165200391007
1.2130987292277615
1.198435972629521
1.18475073313783
1.1710654936461389
1.1573802541544478
1.1485826001955035
1.141739980449658
1.130987292277615
1.121212121212121
1.118279569892473
1.130987292277615
1.1700879765395895
1.2453567937438903
1.359726295210166
1.5131964809384164
1.696969696969697
1.8993157380254155
2.102639296187683
2.270772238514174
2.407624633431085
2.535679374389052
2.6392961876832843
2.713587487781036
2.760508308895406
2.7859237536656893
2.792766373411535
2.7869012707722387
2.771260997067449
2.748778103616813
2.721407624633431
2.69208211143695
2.66177908113392
2.6295210166177907
2.5972629521016617
2.565982404692082
2.5347018572825024
2.5034213098729228
2.4711632453567938
2.4359726295210167
2.396871945259042
2.3519061583577714
2.2991202346041058
2.24633431085044
2.188660801564027
2.1192570869990224
2.043010752688172
1.963831867057673
1.8866080156402736
1.8162267839687196
1.7546432062561097
1.7028347996089932
1.66177908113392
1.6314760508308896
1.6099706744868034
1.5943304007820136
1.58455522971652
1.5777126099706744
1.5698924731182795
1.560117302052786
1.5483870967741935
1.5356793743890518
1.521016617790811
1.5034213098729228
1.4848484848484849
1.4652981427174976
1.444770283479961
1.423264907135875
1.4056695992179864
1.3900293255131966
1.3695014662756595
1.3470185728250244
1.321603128054741
1.2961876832844574
1.2717497556207231
1.2482893450635386
1.224828934506354
1.203323558162268
1.1827956989247312
1.1652003910068427
1.1505376344086022
1.141739980449658
1.1378299120234605
1.1329423264907137
1.1290322580645162
1.126099706744868
1.1221896383186705
1.1163245356793745
1.10752688172043
1.0987292277614855
1.0948191593352885
1.1065493646138806
1.1466275659824048
1.2082111436950147
1.3020527859237536
1.4506353861192571
1.6480938416422288
1.878787878787879
2.12316715542522
2.360703812316716
2.573802541544477
2.7497556207233624
2.884652981427175
2.979472140762464
3.040078201368524
3.072336265884653
3.081133919843597
3.0733137829912023
3.058651026392962
3.037145650048876
3.0097751710654936
2.979472140762464
2.946236559139785
2.913978494623656
2.8836754643206257
2.855327468230694
2.8299120234604107
2.8044965786901277
2.779081133919844
2.752688172043011
2.7233626588465296
2.689149560117302
2.6480938416422286
2.5972629521016617
2.535679374389052
2.463343108504399
2.3822091886608017
2.2932551319648096
2.20039100684262
2.10752688172043
2.018572825024438
1.9442815249266865
1.8826979472140764
1.823069403714565
1.7702834799608993
1.726295210166178
1.6920821114369502
1.664711632453568
1.6422287390029326
1.6236559139784943
1.607038123167155
1.590420332355816
1.573802541544477
1.560117302052786
1.547409579667644
1.5317693059628543
1.5141739980449658
1.4946236559139785
1.474095796676442
1.452590420332356
1.43108504398827
1.409579667644184
1.388074291300098
1.3685239491691104
1.348973607038123
1.3284457478005864
1.3128054740957966
1.2991202346041055
1.2834799608993157
1.2658846529814272
1.249266862170088
1.2336265884652982
1.2189638318670577
1.2043010752688172
1.1886608015640274
1.1710654936461389
1.1544477028347997
1.1436950146627567
1.1436950146627567
1.160312805474096
1.2023460410557183
1.2805474095796676
1.4007820136852396
1.560117302052786
1.750733137829912
1.9579667644183771
2.163245356793744
2.3528836754643208
2.515151515151515
2.643206256109482
2.736070381231672
2.791788856304985
2.8211143695014664
2.8367546432062563
2.838709677419355
2.8289345063538613
2.809384164222874
2.7810361681329425
2.7468230694037143
2.7096774193548385
2.670576735092864
2.6295210166177907
2.589442815249267
2.5513196480938416
2.5141739980449658
2.474095796676442
2.43108504398827
2.3822091886608017
2.3274682306940373
2.264907135874878
2.1945259042033234
2.117302052785924
2.0117302052785924
1.8934506353861196
1.7947214076246334
1.7096774193548387
1.6451612903225807
1.5943304007820136
1.5493646138807429
1.5141739980449658
1.4887585532746823
1.4711632453567938
1.4604105571847508
1.4545454545454546
1.4496578690127078
1.4428152492668622
1.434017595307918
1.423264907135875
1.4134897360703813
1.4027370478983383
1.388074291300098
1.370478983382209
1.3509286412512218
1.3294232649071358
1.3069403714565004
1.2834799608993157
1.260019550342131
1.2355816226783969
1.2111436950146628
1.187683284457478
1.1652003910068427
1.1495601173020529
1.1368523949169111
1.1221896383186705
1.1065493646138806
1.0909090909090908
1.075268817204301
1.06158357771261
1.0488758553274682
1.0361681329423265
1.021505376344086
1.0058651026392962
0.989247311827957
0.9794721407624634
0.978494623655914
0.989247311827957
1.0273704789833822
1.1026392961876832
1.2218963831867058
1.383186705767351
1.5777126099706744
1.790811339198436
2.003910068426197
2.198435972629521
2.363636363636364
2.4916911045943304
2.5747800586510263
2.6236559139784945
2.653958944281525
2.664711632453568
2.658846529814272
2.641251221896383
2.613880742913001
2.579667644183773
2.541544477028348
2.5004887585532747
2.4594330400782014
2.420332355816227
2.3851417399804498
2.3499511241446727
2.313782991202346
2.2766373411534704
2.2375366568914954
2.1945259042033234
2.147605083088954
2.0948191593352883
2.0361681329423265
1.970674486803519
1.8993157380254155
1.8240469208211143
1.7575757575757576
1.696969696969697
1.6304985337243405
1.5669599217986314
1.5102639296187683
1.4633431085043989
1.4252199413489737
1.3958944281524928
1.3724340175953078
1.35386119257087
1.3391984359726294
1.327468230694037
1.3157380254154447
1.3069403714565004
1.2981427174975562
1.2854349951124144
1.270772238514174
1.2551319648093842
1.2375366568914956
1.2189638318670577
1.1994134897360704
1.1798631476050832
1.1593352883675463
1.1378299120234605
1.1163245356793745
1.1006842619745845
1.0879765395894427
1.0713587487781036
1.053763440860215
1.035190615835777
1.0175953079178883
1.002932551319648
0.989247311827957
0.9775171065493646
0.9667644183773216
0.9560117302052786
0.9452590420332356
0.9345063538611924
0.927663734115347
0.9217986314760508
0.9149560117302052
0.9120234604105572
0.9217986314760508
0.9550342130987292
1.0205278592375366
1.1221896383186705
1.2609970674486803
1.4281524926686218
1.6099706744868034
1.790811339198436
1.9403714565004888
2.059628543499511
2.166177908113392
2.249266862170088
2.3059628543499517
2.337243401759531
2.347018572825025
2.3421309872922778
2.324535679374389
2.297165200391007
2.2639296187683287
2.2267839687194524
2.187683284457478
2.1524926686217007
2.120234604105572
2.0879765395894427
2.0557184750733137
2.022482893450636
1.989247311827957
1.95405669599218
1.9149560117302051
1.871945259042033
1.8240469208211143
1.7712609970674489
1.7135874877810362
1.6608015640273706
1.6109481915933528
1.5571847507331378
1.5034213098729228
1.4545454545454546
1.4134897360703813
1.3822091886608017
1.3607038123167154
1.346041055718475
1.3362658846529814
1.3294232649071358
1.324535679374389
1.3196480938416422
1.316715542521994
1.3128054740957966
1.305962854349951
1.2961876832844574
1.2825024437927663
1.2668621700879763
1.249266862170088
1.23069403714565
1.2101661779081134
1.1886608015640274
1.166177908113392
1.1436950146627567
1.1280547409579669
1.1163245356793745
1.1016617790811338
1.086021505376344
1.0703812316715542
1.0557184750733135
1.0420332355816226
1.0303030303030305
1.0195503421309873
1.0097751710654936
1.0019550342130987
0.9941348973607038
0.9863147605083088
0.981427174975562
0.9775171065493646
0.9696969696969696
0.9638318670576737
0.9696969696969696
0.997067448680352
1.0557184750733135
1.152492668621701
1.2903225806451613
1.4633431085043989
1.6578690127077225
1.857282502443793
2.0234604105571847
2.160312805474096
2.2854349951124147
2.383186705767351
2.449657869012708
2.487781036168133
2.5034213098729228
2.501466275659824
2.486803519061584
2.463343108504399
2.4359726295210167
2.4056695992179864
2.3743890518084068
2.345063538611926
2.3167155425219943
2.2883675464320627
2.2629521016617797
2.2385141739980448
2.2140762463343107
2.190615835777126
2.166177908113392
2.139784946236559
2.1094819159335287
2.072336265884653
2.027370478983382
1.9833822091886608
1.9364613880742916
1.8807429130009776
1.8211143695014664
1.7605083088954057
1.7018572825024438
1.6490713587487782
1.603128054740958
1.564027370478983
1.5327468230694037
1.5073313782991202
1.4868035190615836
1.4701857282502444
1.458455522971652
1.447702834799609
1.4349951124144673
1.4193548387096775
1.4027370478983383
1.3861192570869991
1.3695014662756595
1.3519061583577712
1.332355816226784
1.313782991202346
1.295210166177908
1.278592375366569
1.2668621700879763
1.2580645161290325
1.2473118279569892
1.2697947214076246
1.3079178885630498
1.3186705767350928
1.316715542521994
1.3088954056695992
1.2981427174975562
1.2873900293255132
1.2766373411534702
1.2668621700879763
1.2590420332355816
1.2551319648093842
1.2531769305962854
1.2482893450635386
1.2404692082111437
1.23069403714565
1.2228739002932552
1.224828934506354
1.2473118279569892
1.3010752688172045
1.3958944281524928
1.5356793743890518
1.7145650048875856
1.8905180840664717
2.064516129032258
2.2561094819159337
2.439882697947214
2.5962854349951123
2.717497556207233
2.801564027370479
2.852394916911046
2.87683284457478
2.881720430107527
2.8729227761485827
2.854349951124145
2.8299120234604107
2.8025415444770285
2.773216031280548
2.7438905180840663
2.7155425219941347
2.689149560117302
2.665689149560117
2.64613880742913
2.627565982404692
2.6070381231671558
2.58455522971652
2.558162267839687
2.5249266862170088
2.489736070381232
2.4486803519061584
2.396871945259042
2.335288367546432
2.264907135874878
2.187683284457478
2.10850439882698
2.0303030303030303
1.9579667644183771
1.8934506353861196
1.8406647116324533
1.7986314760508308
1.7712609970674489
1.7526881720430108
1.7380254154447703
1.7272727272727273
1.718475073313783
1.7096774193548387
1.7018572825024438
1.6920821114369502
1.6813294232649072
1.667644183773216
1.6500488758553276
1.6314760508308896
1.6109481915933528
1.5943304007820136
1.5786901270772238
1.560117302052786
1.5405669599217986
1.520039100684262
1.499511241446725
1.478983382209189
1.457478005865103
1.436950146627566
1.4164222873900294
1.396871945259042
1.3773216031280548
1.364613880742913
1.3548387096774193
1.343108504398827
1.3313782991202343
1.3206256109481915
1.3079178885630498
1.2942326490713587
1.2805474095796676
1.270772238514174
1.2756598240469208
1.305962854349951
1.3714565004887584
1.4809384164222874
1.607038123167155
1.7556207233626588
1.9472140762463344
2.161290322580645
2.3743890518084068
2.56891495601173
2.730205278592375
2.8533724340175954
2.9374389051808407
2.988269794721408
3.0127077223851417
3.016617790811339
3.006842619745845
2.9872922776148583
2.962854349951124
2.9345063538611926
2.9042033235581624
2.8719452590420333
2.8406647116324537
2.811339198435973
2.7839687194525906
2.7565982404692084
2.7282502443792764
2.6989247311827955
2.6666666666666665
2.633431085043988
2.598240469208211
2.555229716520039
2.5034213098729228
2.443792766373412
2.375366568914956
2.300097751710655
2.220918866080156
2.1407624633431084
2.0635386119257086
1.994134897360704
1.9335288367546437
1.8875855327468232
1.8533724340175952
1.825024437927664
1.8035190615835777
1.7878787878787878
1.775171065493646
1.7653958944281525
1.7546432062561097
1.7438905180840665
1.7311827956989247
1.715542521994135
1.6989247311827955
1.6803519061583578
1.6656891495601174
1.651026392961877
1.632453567937439
1.6129032258064515
1.5913978494623655
1.56891495601173
1.5464320625610948
1.521994134897361
1.4975562072336266
1.4721407624633431
1.447702834799609
1.4252199413489737
1.409579667644184
1.396871945259042
1.383186705767351
1.3695014662756595
1.3548387096774193
1.3411534701857282
1.3284457478005864
1.313782991202346
1.2961876832844574
1.2805474095796676
1.2727272727272727
1.281524926686217
1.3186705767350928
1.3773216031280548
1.4672531769305963
1.606060606060606
1.7869012707722385
1.9960899315738023
2.21505376344086
2.4252199413489737
2.6099706744868034
2.7595307917888565
2.870967741935484
2.945259042033236
2.988269794721408
3.003910068426197
3.0009775171065494
2.986314760508309
2.963831867057673
2.935483870967742
2.903225806451613
2.8690127077223853
2.835777126099707
2.803519061583578
2.771260997067449
2.740957966764418
2.710654936461388
2.679374389051808
2.6480938416422286
2.6158357771261
2.576735092864125
2.530791788856305
2.4750733137829912
2.4115347018572826
2.340175953079179
2.26197458455523
2.1808406647116323
2.099706744868035
2.022482893450636
1.9521016617790807
1.8963831867057677
1.8533724340175952
1.8132942326490715
1.7790811339198436
1.7517106549364614
1.7311827956989247
1.7135874877810362
1.6979472140762464
1.6823069403714566
1.6666666666666667
1.6490713587487782
1.6314760508308896
1.611925708699902
1.5962854349951123
1.581622678396872
1.564027370478983
1.5454545454545454
1.5268817204301075
1.5063538611925709
1.4848484848484849
1.4623655913978495
1.439882697947214
1.4164222873900294
1.392961876832845
1.3695014662756595
1.3509286412512218
1.3362658846529814
1.3176930596285434
1.2981427174975562
1.278592375366569
1.260019550342131
1.2434017595307918
1.2287390029325511
1.2130987292277615
1.195503421309873
1.176930596285435
1.1583577712609971
1.1466275659824048
1.1485826001955035
1.1730205278592376
1.2297165200391007
1.327468230694037
1.4711632453567938
1.6578690127077225
1.87683284457478
2.1094819159335287
2.3362658846529816
2.527859237536657
2.6803519061583576
2.8054740957966766
2.889540566959922
2.940371456500489
2.9745845552297165
2.989247311827957
2.9872922776148583
2.972629521016618
2.946236559139785
2.9120234604105573
2.8729227761485827
2.83088954056696
2.787878787878788
2.7468230694037143
2.708699902248289
2.6715542521994133
2.634408602150537
2.595307917888563
2.552297165200391
2.505376344086021
2.4516129032258065
2.3900293255131966
2.320625610948192
2.242424242424242
2.158357771260997
2.070381231671554
1.9824046920821117
1.9071358748778104
1.8435972629521016
1.7820136852394917
1.729227761485826
1.6881720430107527
1.656891495601173
1.632453567937439
1.6148582600195502
1.6011730205278591
1.5894428152492668
1.5777126099706744
1.5650048875855327
1.5542521994134897
1.544477028347996
1.5298142717497556
1.512218963831867
1.4926686217008798
1.4701857282502444
1.4457478005865103
1.4203323558162269
1.392961876832845
1.3655913978494625
1.33822091886608
1.3118279569892473
1.2864125122189638
1.2668621700879763
1.2502443792766371
1.2297165200391007
1.206256109481916
1.1827956989247312
1.160312805474096
1.13880742913001
1.118279569892473
1.099706744868035
1.0821114369501466
1.064516129032258
1.0449657869012707
1.0312805474095796
1.021505376344086
1.0156402737047898
1.0263929618768328
1.0664711632453567
1.1495601173020529
1.284457478005865
1.4701857282502444
1.696969696969697
1.946236559139785
2.198435972629521
2.4349951124144678
2.6392961876832843
2.787878787878788
2.8905180840664717
2.972629521016618
3.027370478983382
3.0557184750733137
3.06158357771261
3.050830889540567
3.0283479960899315
2.997067448680352
2.959921798631476
2.918866080156403
2.877810361681329
2.838709677419355
2.801564027370479
2.7653958944281527
2.730205278592375
2.695014662756598
2.6578690127077222
2.6177908113391983
2.572825024437928
2.5190615835777126
2.455522971652004
2.3822091886608017
2.300097751710655
2.2111436950146626
2.1300097751710654
2.0547409579667644
1.9736070381231672
1.895405669599218
1.825024437927664
1.7644183773216031
1.7135874877810362
1.672531769305963
1.6412512218963833
1.616813294232649
1.5962854349951123
1.576735092864125
1.5610948191593352
1.547409579667644
1.530791788856305
1.5141739980449658
1.4965786901270772
1.479960899315738
1.4623655913978495
1.4437927663734116
1.4252199413489737
1.4056695992179864
1.3861192570869991
1.3665689149560116
1.346041055718475
1.3304007820136852
1.3157380254154447
1.295210166177908
1.2727272727272727
1.249266862170088
1.2258064516129032
1.2043010752688172
1.18475073313783
1.1671554252199414
1.152492668621701
1.13880742913001
1.1251221896383188
1.1163245356793745
1.10752688172043
1.093841642228739
1.0772238514173995
1.064516129032258
1.0654936461388074
1.093841642228739
1.164222873900293
1.2873900293255132
1.4643206256109482
1.6881720430107527
1.9442815249266865
2.210166177908113
2.4349951124144678
2.621700879765396
2.7976539589442817
2.9423264907135875
3.050830889540567
3.12316715542522
3.164222873900293
3.1808406647116323
3.1788856304985336
3.163245356793744
3.136852394916911
3.102639296187683
3.064516129032258
3.024437927663734
2.98435972629521
2.945259042033236
2.909090909090909
2.875855327468231
2.844574780058651
2.8132942326490715
2.7810361681329425
2.744868035190616
2.701857282502444
2.650048875855328
2.587487781036168
2.52297165200391
2.452590420332356
2.3655913978494625
2.2688172043010755
2.166177908113392
2.0625610948191597
1.962854349951124
1.8729227761485825
1.793743890518084
1.7272727272727273
1.6735092864125125
1.6314760508308896
1.603128054740958
1.5835777126099706
1.565982404692082
1.5503421309872922
1.5356793743890518
1.521016617790811
1.5053763440860215
1.487781036168133
1.4672531769305963
1.4457478005865103
1.423264907135875
1.3998044965786902
1.3773216031280548
1.3607038123167154
1.3479960899315735
1.3313782991202343
1.3128054740957966
1.2932551319648091
1.273704789833822
1.2531769305962854
1.2326490713587488
1.2121212121212122
1.1935483870967742
1.1759530791788857
1.1583577712609971
1.1456500488758554
1.1358748778103618
1.1231671554252198
1.1065493646138806
1.0879765395894427
1.0703812316715542
1.0576735092864125
1.0586510263929618
1.0840664711632453
1.1456500488758554
1.2531769305962854
1.409579667644184
1.6109481915933528
1.8103616813294232
2.0097751710654936
2.232649071358749
2.449657869012708
2.6392961876832843
2.790811339198436
2.9012707722385143
2.972629521016618
3.0127077223851417
3.0283479960899315
3.026392961876833
3.0097751710654936
2.98435972629521
2.9530791788856305
2.916911045943304
2.877810361681329
2.8367546432062563
2.7966764418377323
2.757575757575758
2.719452590420332
2.6823069403714563
2.6451612903225805
2.6070381231671558
2.5640273704789838
2.520039100684262
2.472140762463343
2.412512218963832
2.3421309872922778
2.2346041055718477
2.10752688172043
2.0
1.903225806451613
1.8162267839687196
1.739980449657869
1.6744868035190617
1.619745845552297
1.5757575757575757
1.5454545454545454
1.5239491691104594
1.5053763440860215
1.4897360703812317
1.4750733137829912
1.4613880742913
1.4467253176930597
1.43108504398827
1.414467253176931
1.3958944281524928
1.3763440860215057
1.3548387096774193
1.3372434017595307
1.3206256109481915
1.2991202346041055
1.2766373411534702
1.2531769305962854
1.227761485826002
1.2013685239491692
1.1759530791788857
1.1505376344086022
1.126099706744868
1.1036168132942326
1.083088954056696
1.0654936461388074
1.053763440860215
1.0469208211143697
1.0381231671554252
1.029325513196481
1.0195503421309873
1.007820136852395
0.9941348973607038
0.981427174975562
0.9775171065493646
0.9902248289345064
1.032258064516129
1.1143695014662756
1.2179863147605083
1.3499511241446724
1.5327468230694037
1.7468230694037146
1.9716520039100685
2.189638318670577
2.3822091886608017
2.539589442815249
2.656891495601173
2.736070381231672
2.7839687194525906
2.806451612903226
2.8084066471163247
2.7966764418377323
2.7751710654936463
2.7468230694037143
2.7145650048875853
2.679374389051808
2.643206256109482
2.6070381231671558
2.5718475073313782
2.5386119257087
2.506353861192571
2.4731182795698925
2.4389051808406648
2.4056695992179864
2.36950146627566
2.324535679374389
2.269794721407625
2.203323558162268
2.1251221896383186
2.038123167155425
1.9442815249266865
1.8494623655913975
1.7575757575757576
1.672531769305963
1.598240469208211
1.5356793743890518
1.490713587487781
1.4594330400782014
1.4349951124144673
1.4164222873900294
1.4037145650048877
1.3949169110459434
1.388074291300098
1.3822091886608017
1.3763440860215057
1.367546432062561
1.3558162267839686
1.3411534701857282
1.327468230694037
1.3147605083088951
1.2961876832844574
1.2756598240469208
1.2541544477028348
1.2316715542521994
1.209188660801564
1.187683284457478
1.166177908113392
1.1456500488758554
1.126099706744868
1.1085043988269794
1.0928641251221896
1.0821114369501466
1.075268817204301
1.0654936461388074
1.0547409579667644
1.04594330400782
1.0371456500488758
1.0273704789833822
1.0156402737047898
1.0039100684261977
0.9931573802541545
0.9902248289345064
1.0039100684261977
1.035190615835777
1.0928641251221896
1.1925708699902249
1.3362658846529814
1.5180840664711632
1.7243401759530792
1.9374389051808407
2.1407624633431084
2.320625610948192
2.466275659824047
2.5747800586510263
2.6480938416422286
2.6901270772238512
2.705767350928641
2.704789833822092
2.6930596285435
2.6725317693059627
2.6451612903225805
2.6129032258064515
2.576735092864125
2.5386119257087
2.5004887585532747
2.463343108504399
2.4271749755620724
2.3900293255131966
2.355816226783969
2.3225806451612905
2.2844574780058653
2.2404692082111435
2.188660801564027
2.1300097751710654
2.0635386119257086
1.989247311827957
1.9090909090909087
1.8269794721407624
1.7448680351906158
1.6666666666666667
1.5962854349951123
1.542521994134897
1.501466275659824
1.4652981427174976
1.436950146627566
1.414467253176931
1.3978494623655917
1.3841642228739004
1.3714565004887584
1.3577712609970674
1.343108504398827
1.3264907135874875
