ppg
2.5405669599217986
2.4672531769305963
2.3929618768328447
2.318670576735093
2.244379276637341
2.1739980449657867
2.1094819159335287
2.050830889540567
1.9990224828934504
1.95405669599218
1.916911045943304
1.8866080156402736
1.857282502443793
1.8269794721407624
1.7947214076246334
1.7624633431085044
1.7302052785923754
1.696969696969697
1.6627565982404693
1.6285434995112416
1.5933528836754642
1.5581622678396871
1.5278592375366569
1.501466275659824
1.4721407624633431
1.4408602150537635
1.409579667644184
1.380254154447703
1.3519061583577712
1.3235581622678396
1.2971652003910068
1.2717497556207231
1.2473118279569892
1.2238514173998043
1.2013685239491692
1.18475073313783
1.1720430107526882
1.1564027370478984
1.1397849462365592
1.1241446725317692
1.1085043988269794
1.0928641251221896
1.0801564027370478
1.0694037145650048
1.0586510263929618
1.0478983382209188
1.035190615835777
1.0273704789833822
1.021505376344086
1.0127077223851415
1.002932551319648
0.9931573802541545
0.9853372434017597
0.9833822091886608
0.9931573802541545
1.0166177908113392
1.0596285434995112
1.1241446725317692
1.209188660801564
1.2981427174975562
1.3949169110459434
1.5131964809384164
1.6441837732160314
1.7810361681329423
1.9188660801564028
2.050830889540567
2.1710654936461387
2.278592375366569
2.3734115347018574
2.4565004887585533
2.5268817204301075
2.5865102639296187
2.63049853372434
2.662756598240469
2.6959921798631474
2.7282502443792764
2.757575757575758
2.7839687194525906
2.807429130009776
2.8269794721407626
2.8426197458455524
2.855327468230694
2.8641251221896384
2.868035190615836
2.86217008797654
2.850439882697948
2.834799608993157
2.814271749755621
2.7859237536656893
2.7497556207233624
2.705767350928641
2.6529814271749754
2.593352883675464
2.527859237536657
2.4565004887585533
2.383186705767351
2.3098729227761488
2.2453567937438903
2.1867057673509285
2.126099706744868
2.0684261974584555
2.0146627565982405
1.9667644183773216
1.9237536656891496
1.884652981427175
1.8484848484848484
1.8132942326490715
1.7790811339198436
1.7468230694037146
1.7194525904203324
1.694037145650049
1.664711632453568
1.632453567937439
1.5992179863147604
1.5669599217986314
1.5347018572825024
1.501466275659824
1.4672531769305963
1.4349951124144673
1.4037145650048877
1.3724340175953078
1.3421309872922775
1.3196480938416422
1.300097751710655
1.2756598240469208
1.252199413489736
1.2297165200391007
1.2072336265884651
1.1857282502443791
1.166177908113392
1.1466275659824048
1.1290322580645162
1.1124144672531768
1.0957966764418376
1.0850439882697946
1.0791788856304985
1.0703812316715542
1.0596285434995112
1.0488758553274682
1.0371456500488758
1.0254154447702837
1.0127077223851415
0.9990224828934506
0.9863147605083088
0.975562072336266
0.9667644183773216
0.9628543499511242
0.9657869012707724
0.9775171065493646
0.9990224828934506
1.0342130987292275
1.086021505376344
1.1583577712609971
1.249266862170088
1.3587487781036167
1.4819159335288368
1.6158357771260996
1.75366568914956
1.8875855327468232
2.0
2.0957966764418376
2.193548387096774
2.2844574780058653
2.3655913978494625
2.4359726295210167
2.495601173020528
2.5454545454545454
2.587487781036168
2.622678396871945
2.653958944281525
2.6803519061583576
2.701857282502444
2.7155425219941347
2.724340175953079
2.735092864125122
2.7468230694037143
2.755620723362659
2.758553274682307
2.7546432062561097
2.742913000977517
2.7223851417399803
2.6930596285435
2.656891495601173
2.6129032258064515
2.5669599217986314
2.5180840664711632
2.479960899315738
2.444770283479961
2.389051808406647
2.3255131964809386
2.260997067448681
2.196480938416422
2.134897360703812
2.0791788856304985
2.0303030303030303
1.9853372434017595
1.9472140762463344
1.9178885630498532
1.8914956011730208
1.8621700879765395
1.83088954056696
1.7986314760508308
1.7673509286412512
1.7350928641251222
1.7008797653958945
1.6666666666666667
1.632453567937439
1.5992179863147604
1.565982404692082
1.5395894428152492
1.5161290322580645
1.4897360703812317
1.4613880742913
1.4330400782013686
1.404692082111437
1.3773216031280548
1.3509286412512218
1.3255131964809383
1.3020527859237536
1.2795698924731185
1.2570869990224829
1.2355816226783969
1.2209188660801564
1.2121212121212122
1.2013685239491692
1.1896383186705768
1.1779081133919844
1.1652003910068427
1.152492668621701
1.1407624633431086
1.1300097751710656
1.1202346041055715
1.110459433040078
1.1006842619745845
1.0957966764418376
1.093841642228739
1.0879765395894427
1.0801564027370478
1.0703812316715542
1.0596285434995112
1.0498533724340176
1.043010752688172
1.0420332355816226
1.0518084066471165
1.0733137829912025
1.1133919843597262
1.173998044965787
1.2424242424242424
1.324535679374389
1.4330400782013686
1.5591397849462365
1.6979472140762464
1.8435972629521016
1.9902248289345064
2.131964809384164
2.264907135874878
2.386119257086999
2.493646138807429
2.587487781036168
2.6578690127077222
2.710654936461388
2.7614858260019552
2.8084066471163247
2.852394916911046
2.89247311827957
2.929618768328446
2.962854349951124
2.992179863147605
3.0175953079178885
3.0410557184750733
3.060606060606061
3.070381231671554
3.074291300097752
3.078201368523949
3.0791788856304985
3.075268817204301
3.064516129032258
3.04594330400782
3.0175953079178885
2.9804496578690127
2.935483870967742
2.881720430107527
2.819159335288368
2.750733137829912
2.6852394916911044
2.619745845552297
2.547409579667644
2.472140762463343
2.39980449657869
2.3313782991202348
2.2668621700879767
2.207233626588465
2.1544477028347995
2.10752688172043
2.064516129032258
2.024437927663734
1.991202346041056
1.9618768328445748
1.9305962854349952
1.8973607038123168
1.8631476050830889
1.8299120234604105
1.796676441837732
1.761485826001955
1.7253176930596286
1.6901270772238517
1.6549364613880744
1.619745845552297
1.58455522971652
1.5562072336265884
1.530791788856305
1.500488758553275
1.4701857282502444
1.4408602150537635
1.412512218963832
1.3841642228739004
1.3558162267839686
1.3294232649071358
1.305962854349951
1.2825024437927663
1.260019550342131
1.2434017595307918
1.2326490713587488
1.219941348973607
1.2072336265884651
1.1945259042033236
1.181818181818182
1.1691104594330402
1.1573802541544478
1.1456500488758554
1.1348973607038124
1.126099706744868
1.1173020527859236
1.1094819159335287
1.1065493646138806
1.1055718475073313
1.099706744868035
1.0918866080156402
1.083088954056696
1.0742913000977516
1.0654936461388074
1.056695992179863
1.050830889540567
1.050830889540567
1.0606060606060606
1.083088954056696
1.1163245356793745
1.166177908113392
1.2394916911045943
1.3362658846529814
1.4545454545454546
1.590420332355816
1.7380254154447703
1.8905180840664717
2.042033235581622
2.1867057673509285
2.3196480938416424
2.4379276637341154
2.541544477028348
2.619745845552297
2.6823069403714563
2.744868035190616
2.803519061583578
2.857282502443793
2.9071358748778104
2.952101661779081
2.9931573802541545
3.03128054740958
3.067448680351906
3.099706744868035
3.1270772238514173
3.144672531769306
3.1544477028347995
3.166177908113392
3.174975562072336
3.179863147605083
3.1788856304985336
3.1710654936461387
3.155425219941349
3.1309872922776147
3.0977517106549364
3.0576735092864125
3.0097751710654936
2.956011730205278
2.900293255131965
2.841642228739003
2.7751710654936463
2.702834799608993
2.625610948191593
2.5464320625610948
2.469208211143695
2.3949169110459434
2.326490713587488
2.2639296187683287
2.206256109481916
2.155425219941349
2.114369501466276
2.078201368523949
2.0410557184750733
2.004887585532747
1.967741935483871
1.9315738025415443
1.8963831867057677
1.8602150537634408
1.823069403714565
1.7849462365591398
1.747800586510264
1.7126099706744868
1.6774193548387095
1.6471163245356797
1.6207233626588464
1.5894428152492668
1.5562072336265884
1.52297165200391
1.4887585532746823
1.4545454545454546
1.423264907135875
1.3949169110459434
1.367546432062561
1.3421309872922775
1.3186705767350928
1.3010752688172045
1.2864125122189638
1.2688172043010753
1.2512218963831867
1.2355816226783969
1.2209188660801564
1.2072336265884651
1.1945259042033236
1.181818181818182
1.1691104594330402
1.1564027370478984
1.144672531769306
1.1348973607038124
1.1300097751710656
1.126099706744868
1.1202346041055715
1.1133919843597262
1.1055718475073313
1.096774193548387
1.0869990224828934
1.078201368523949
1.0596285434995112
1.0371456500488758
1.021505376344086
1.0127077223851415
1.0146627565982405
1.0273704789833822
1.0498533724340176
1.0879765395894427
1.147605083088954
1.227761485826002
1.3264907135874875
1.4428152492668622
1.5718475073313782
1.7086999022482894
1.8484848484848484
1.9843597262952104
2.113391984359726
2.217986314760508
2.3059628543499517
2.393939393939394
2.4750733137829912
2.5464320625610948
2.608993157380254
2.662756598240469
2.710654936461388
2.7546432062561097
2.803519061583578
2.844574780058651
2.8729227761485827
2.89345063538612
2.909090909090909
2.9286412512218964
2.948191593352884
2.963831867057673
2.9745845552297165
2.979472140762464
2.979472140762464
2.973607038123167
2.960899315738025
2.941348973607038
2.9149560117302054
2.881720430107527
2.8426197458455524
2.798631476050831
2.745845552297165
2.6852394916911044
2.618768328445748
2.548387096774193
2.474095796676442
2.39980449657869
2.326490713587488
2.2551319648093844
2.187683284457478
2.1251221896383186
2.074291300097752
2.03128054740958
1.988269794721408
1.949169110459433
1.913978494623656
1.8807429130009776
1.8494623655913975
1.8191593352883677
1.7878787878787878
1.7565982404692082
1.7233626588465298
1.689149560117302
1.6608015640273706
1.6344086021505375
1.6021505376344083
1.56891495601173
1.5356793743890518
1.5024437927663734
1.4682306940371457
1.435972629521017
1.404692082111437
1.375366568914956
1.3470185728250244
1.3206256109481915
1.295210166177908
1.2766373411534702
1.2619745845552297
1.2443792766373412
1.2258064516129032
1.206256109481916
1.187683284457478
1.1710654936461389
1.1573802541544478
1.144672531769306
1.1319648093841643
1.1192570869990224
1.10752688172043
1.099706744868035
1.0948191593352885
1.0869990224828934
1.078201368523949
1.0694037145650048
1.0606060606060606
1.0518084066471165
1.043010752688172
1.032258064516129
1.0205278592375366
1.0097751710654936
1.0009775171065494
0.9941348973607038
0.9941348973607038
1.002932551319648
1.0205278592375366
1.050830889540567
1.0977517106549364
1.166177908113392
1.2551319648093842
1.3626588465298142
1.4848484848484849
1.616813294232649
1.75366568914956
1.8885630498533723
2.0019550342130987
2.099706744868035
2.19941348973607
2.2952101661779083
2.3822091886608017
2.458455522971652
2.525904203323558
2.5835777126099706
2.633431085043988
2.67644183773216
2.7145650048875853
2.748778103616813
2.780058651026393
2.801564027370479
2.81622678396872
2.833822091886608
2.850439882697948
2.8641251221896384
2.873900293255132
2.878787878787879
2.878787878787879
2.8719452590420333
2.8582600195503423
2.8377321603128056
2.809384164222874
2.777126099706745
2.7390029325513194
2.6930596285435
2.6392961876832843
2.576735092864125
2.5083088954056696
2.436950146627566
2.3655913978494625
2.294232649071359
2.2248289345063537
2.1593352883675463
2.099706744868035
2.0449657869012707
1.992179863147605
1.951124144672532
1.9227761485826005
1.8934506353861196
1.857282502443793
1.826001955034213
1.8025415444770283
1.775171065493646
1.7458455522971652
1.715542521994135
1.6842619745845553
1.651026392961877
1.6226783968719452
1.595307917888563
1.563049853372434
1.5288367546432062
1.4946236559139785
1.4604105571847508
1.4271749755620724
1.3958944281524928
1.367546432062561
1.3401759530791788
1.313782991202346
1.289345063538612
1.2668621700879763
1.2512218963831867
1.2375366568914956
1.2209188660801564
1.2013685239491692
1.1837732160312806
1.1691104594330402
1.1564027370478984
1.1436950146627567
1.1319648093841643
1.1192570869990224
1.10752688172043
1.0957966764418376
1.0879765395894427
1.083088954056696
1.0762463343108504
1.0684261974584557
1.0606060606060606
1.0518084066471165
1.043010752688172
1.0342130987292275
1.0234604105571847
1.0127077223851415
1.0039100684261977
0.9980449657869012
0.9980449657869012
1.0087976539589445
1.0303030303030305
1.0654936461388074
1.1202346041055715
1.1935483870967742
1.2864125122189638
1.3949169110459434
1.517106549364614
1.64613880742913
1.7781036168132942
1.90811339198436
2.0303030303030303
2.1300097751710654
2.2130987292277613
2.2961876832844577
2.3734115347018574
2.442815249266862
2.5024437927663734
2.5532746823069403
2.5972629521016617
2.635386119257087
2.668621700879765
2.697947214076246
2.724340175953079
2.747800586510264
2.7624633431085046
2.7722385141739982
2.78494623655914
2.795698924731183
2.8025415444770285
2.8044965786901277
2.80058651026393
2.790811339198436
2.7722385141739982
2.745845552297165
2.7126099706744866
2.6695992179863146
2.622678396871945
2.5718475073313782
2.5131964809384164
2.447702834799609
2.377321603128055
2.3059628543499517
2.2355816226783967
2.1681329423264906
2.1055718475073317
2.048875855327468
1.997067448680352
1.951124144672532
1.911045943304008
1.8778103616813293
1.8504398826979471
1.8269794721407624
1.804496578690127
1.7781036168132942
1.7487781036168133
1.7194525904203324
1.689149560117302
1.6578690127077225
1.6256109481915937
1.5943304007820136
1.564027370478983
1.5386119257087
1.5141739980449658
1.4858260019550342
1.457478005865103
1.426197458455523
1.3958944281524928
1.3655913978494625
1.335288367546432
1.3069403714565004
1.281524926686217
1.2590420332355816
1.2375366568914956
1.2209188660801564
1.2072336265884651
1.1915933528836755
1.1759530791788857
1.1593352883675463
1.1456500488758554
1.1348973607038124
1.1241446725317692
1.1085043988269794
1.0948191593352885
1.0850439882697946
1.075268817204301
1.0654936461388074
1.0606060606060606
1.0576735092864125
1.0518084066471165
1.0449657869012707
1.0371456500488758
1.0283479960899315
1.0205278592375366
1.013685239491691
1.010752688172043
1.013685239491691
1.0273704789833822
1.0547409579667644
1.0928641251221896
1.1456500488758554
1.2189638318670577
1.310850439882698
1.4193548387096775
1.5405669599217986
1.6705767350928642
1.801564027370479
1.9286412512218964
2.047898338220919
2.157380254154448
2.254154447702835
2.3382209188660803
2.401759530791789
2.449657869012708
2.495601173020528
2.536656891495601
2.573802541544477
2.606060606060606
2.632453567937439
2.6559139784946235
2.675464320625611
2.69208211143695
2.7067448680351904
2.718475073313783
2.7223851417399803
2.720430107526881
2.716520039100684
2.708699902248289
2.695014662756598
2.675464320625611
2.6480938416422286
2.6129032258064515
2.5698924731182795
2.5180840664711632
2.4613880742913
2.40078201368524
2.337243401759531
2.2795698924731185
2.225806451612903
2.157380254154448
2.096774193548387
2.0557184750733137
2.01564027370479
1.9775171065493649
1.943304007820137
1.911045943304008
1.8807429130009776
1.8504398826979471
1.8201368523949168
1.7927663734115349
1.7683284457478006
1.7409579667644184
1.7116324535679377
1.6813294232649072
1.6422287390029326
1.607038123167155
1.5826001955034212
1.555229716520039
1.5268817204301075
1.4975562072336266
1.4682306940371457
1.4389051808406648
1.41544477028348
1.3958944281524928
1.3743890518084063
1.3519061583577712
1.324535679374389
1.3020527859237536
1.2854349951124144
1.267839687194526
1.252199413489736
1.2365591397849462
1.2209188660801564
1.2072336265884651
1.2003910068426198
1.195503421309873
1.187683284457478
1.1798631476050832
1.1720430107526882
1.164222873900293
1.155425219941349
1.1466275659824048
1.1368523949169111
1.1280547409579669
1.1192570869990224
1.1065493646138806
1.096774193548387
1.0928641251221896
1.088954056695992
1.0840664711632453
1.0811339198435972
1.0821114369501466
1.0928641251221896
1.1358748778103618
1.2121212121212122
1.303030303030303
1.3773216031280548
1.4819159335288368
1.6207233626588464
1.7448680351906158
1.8778103616813293
2.0117302052785924
2.1407624633431084
2.2355816226783967
2.3304007820136854
2.444770283479961
2.5347018572825024
2.6080156402737047
2.6695992179863146
2.720430107526881
2.764418377321604
2.7966764418377323
2.820136852394917
2.844574780058651
2.8699902248289346
2.895405669599218
2.917888563049853
2.936461388074292
2.9530791788856305
2.9657869012707723
2.973607038123167
2.9745845552297165
2.9696969696969697
2.956989247311828
2.9374389051808407
2.913978494623656
2.8836754643206257
2.8455522971652005
2.80058651026393
2.7497556207233624
2.6911045943304006
2.6451612903225805
2.58455522971652
2.498533724340176
2.4173998044965788
2.3421309872922778
2.278592375366569
2.222873900293255
2.167155425219941
2.115347018572825
2.067448680351906
2.0254154447702835
1.988269794721408
1.95405669599218
1.9227761485826005
1.8905180840664717
1.857282502443793
1.825024437927664
1.796676441837732
1.772238514173998
1.7448680351906158
1.7145650048875856
1.6823069403714566
1.6500488758553276
1.6177908113391983
1.5865102639296187
1.555229716520039
1.5239491691104594
1.4936461388074291
1.4652981427174976
1.4379276637341154
1.4164222873900294
1.3978494623655917
1.3773216031280548
1.356793743890518
1.3372434017595307
1.3186705767350928
1.300097751710655
1.2825024437927663
1.2668621700879763
1.2512218963831867
1.2365591397849462
1.2228739002932552
1.2130987292277615
1.2052785923753666
1.195503421309873
1.1857282502443791
1.1749755620723363
1.163245356793744
1.1534701857282503
1.1436950146627567
1.1329423264907137
1.121212121212121
1.1094819159335287
1.099706744868035
1.0948191593352885
1.0957966764418376
1.1055718475073313
1.126099706744868
1.1612903225806452
1.2140762463343109
1.2873900293255132
1.3812316715542523
1.4926686217008798
1.6177908113391983
1.7526881720430108
1.889540566959922
2.024437927663734
2.136852394916911
2.232649071358749
2.3313782991202348
2.4242424242424243
2.5083088954056696
2.5806451612903225
2.644183773216031
2.699902248289345
2.7497556207233624
2.7996089931573804
2.8475073313782997
2.8885630498533725
2.916911045943304
2.936461388074292
2.9579667644183774
2.9804496578690127
3.0009775171065494
3.018572825024438
3.03128054740958
3.0391006842619745
3.040078201368524
3.035190615835777
3.0234604105571847
3.005865102639296
2.981427174975562
2.952101661779081
2.916911045943304
2.873900293255132
2.825024437927664
2.76930596285435
2.705767350928641
2.635386119257087
2.5591397849462365
2.4789833822091887
2.39980449657869
2.32355816226784
2.2521994134897363
2.1925708699902247
2.1407624633431084
2.088954056695992
2.042033235581622
1.9990224828934504
1.959921798631476
1.924731182795699
1.8905180840664717
1.857282502443793
1.8240469208211143
1.790811339198436
1.758553274682307
1.726295210166178
1.696969696969697
1.6705767350928642
1.6412512218963833
1.6099706744868034
1.5786901270772238
1.547409579667644
1.5151515151515151
1.4838709677419355
1.4535679374389052
1.4242424242424243
1.3958944281524928
1.3695014662756595
1.348973607038123
1.332355816226784
1.3118279569892473
1.2903225806451613
1.2697947214076246
1.2512218963831867
1.2346041055718475
1.2189638318670577
1.203323558162268
1.1886608015640274
1.1759530791788857
1.163245356793744
1.1505376344086022
1.142717497556207
1.1378299120234605
1.1290322580645162
1.118279569892473
1.10752688172043
1.096774193548387
1.0869990224828934
1.0801564027370478
1.0791788856304985
1.0879765395894427
1.110459433040078
1.1505376344086022
1.2003910068426198
1.2639296187683284
1.3509286412512218
1.4594330400782014
1.5835777126099706
1.7165200391006843
1.8523949169110456
1.9853372434017595
2.1114369501466275
2.2267839687194524
2.3313782991202348
2.423264907135875
2.5024437927663734
2.563049853372434
2.608993157380254
2.6559139784946235
2.7008797653958942
2.742913000977517
2.782013685239492
2.819159335288368
2.852394916911046
2.8826979472140764
2.909090909090909
2.930596285434995
2.948191593352884
2.956011730205278
2.956989247311828
2.956989247311828
2.95405669599218
2.945259042033236
2.9315738025415445
2.9120234604105573
2.8856304985337244
2.8514173998044967
2.809384164222874
2.758553274682307
2.7008797653958942
2.636363636363636
2.573802541544477
2.5102639296187683
2.439882697947214
2.367546432062561
2.2961876832844577
2.2267839687194524
2.161290322580645
2.102639296187683
2.0498533724340176
2.002932551319648
1.9608993157380252
1.9237536656891496
1.89247311827957
1.865102639296188
1.835777126099707
1.804496578690127
1.7732160312805474
1.7419354838709675
1.710654936461388
1.6774193548387095
1.6441837732160314
1.6109481915933528
1.5777126099706744
1.544477028347996
1.509286412512219
1.4809384164222874
1.457478005865103
1.43108504398827
1.401759530791789
1.3724340175953078
1.343108504398827
1.3147605083088951
1.2883675464320623
1.2649071358748778
1.2434017595307918
1.2228739002932552
1.2043010752688172
1.1915933528836755
1.1827956989247312
1.1720430107526882
1.1593352883675463
1.1456500488758554
1.1329423264907137
1.1202346041055715
1.1085043988269794
1.096774193548387
1.0869990224828934
1.0762463343108504
1.0635386119257086
1.0518084066471165
1.0449657869012707
1.0420332355816226
1.0410557184750733
1.04594330400782
1.06158357771261
1.093841642228739
1.1456500488758554
1.217008797653959
1.3079178885630498
1.41544477028348
1.5376344086021505
1.6686217008797657
1.7859237536656891
1.895405669599218
2.0127077223851417
2.129032258064516
2.2375366568914954
2.335288367546432
2.420332355816227
2.49266862170088
2.555229716520039
2.608993157380254
2.6559139784946235
2.696969696969697
2.7331378299120237
2.7595307917888565
2.7781036168132944
2.7996089931573804
2.8211143695014664
2.8396871945259043
2.8563049853372435
2.8690127077223853
2.87683284457478
2.8797653958944283
2.877810361681329
2.8690127077223853
2.8533724340175954
2.83088954056696
2.803519061583578
2.768328445747801
2.7253176930596283
2.6725317693059627
2.611925708699902
2.544477028347996
2.4731182795698925
2.40078201368524
2.3284457478005867
2.257086999022483
2.188660801564027
2.124144672531769
2.071358748778104
2.027370478983382
1.9843597262952104
1.9442815249266865
1.90811339198436
1.8758553274682308
1.8435972629521016
1.8113391984359728
1.7790811339198436
1.7487781036168133
1.718475073313783
1.6871945259042034
1.6608015640273706
1.6363636363636365
1.607038123167155
1.5747800586510263
1.541544477028348
1.5073313782991202
1.474095796676442
1.4418377321603129
1.4105571847507332
1.3792766373411536
1.3499511241446724
1.3225806451612905
1.3020527859237536
1.2854349951124144
1.2668621700879763
1.2473118279569892
1.2267839687194526
1.206256109481916
1.187683284457478
1.1720430107526882
1.1583577712609971
1.1456500488758554
1.1329423264907137
1.1202346041055715
1.1085043988269794
1.1006842619745845
1.0957966764418376
1.0879765395894427
1.0713587487781036
1.0488758553274682
1.032258064516129
1.0166177908113392
1.0019550342130987
0.9882697947214076
0.9765395894428152
0.9687194525904204
0.967741935483871
0.9775171065493646
1.0
1.0391006842619743
1.096774193548387
1.173998044965787
1.2697947214076246
1.3822091886608017
1.5083088954056696
1.640273704789834
1.7741935483870968
1.905180840664712
2.0283479960899315
2.1407624633431084
2.228739002932551
2.3010752688172045
2.3704789833822093
2.4330400782013686
2.489736070381232
2.5386119257087
2.5806451612903225
2.6177908113391983
2.650048875855328
2.678396871945259
2.702834799608993
2.7233626588465296
2.7370478983382207
2.745845552297165
2.7565982404692084
2.766373411534702
2.7722385141739982
2.7722385141739982
2.7653958944281527
