ppg
1.992179863147605
1.9364613880742916
1.89247311827957
1.8592375366568916
1.8377321603128052
1.8240469208211143
1.812316715542522
1.8025415444770283
1.793743890518084
1.7849462365591398
1.775171065493646
1.7653958944281525
1.7546432062561097
1.7438905180840665
1.7311827956989247
1.718475073313783
1.7086999022482894
1.7008797653958945
1.6911045943304008
1.6803519061583578
1.6695992179863148
1.6588465298142718
1.6500488758553276
1.6422287390029326
1.6344086021505375
1.6275659824046922
1.6207233626588464
1.6148582600195502
1.6099706744868034
1.608993157380254
1.6099706744868034
1.6099706744868034
1.6109481915933528
1.611925708699902
1.6138807429130009
1.6148582600195502
1.616813294232649
1.6207233626588464
1.624633431085044
1.629521016617791
1.635386119257087
1.6441837732160314
1.6529814271749756
1.6598240469208212
1.664711632453568
1.6686217008797657
1.6735092864125125
1.6842619745845553
1.729227761485826
1.7859237536656891
1.844574780058651
1.9423264907135875
2.0733137829912023
2.23069403714565
2.377321603128055
2.515151515151515
2.665689149560117
2.8084066471163247
2.932551319648094
3.034213098729228
3.1114369501466275
3.167155425219941
3.2052785923753664
3.228739002932551
3.242424242424242
3.247311827956989
3.243401759530792
3.2346041055718477
3.2267839687194524
3.217986314760508
3.209188660801564
3.19941348973607
3.188660801564027
3.175953079178885
3.161290322580645
3.1436950146627565
3.12316715542522
3.099706744868035
3.0733137829912023
3.043010752688172
3.0087976539589443
2.970674486803519
2.927663734115347
2.877810361681329
2.8211143695014664
2.7565982404692084
2.6852394916911044
2.608993157380254
2.5288367546432062
2.4486803519061584
2.372434017595308
2.3088954056695994
2.2561094819159337
2.209188660801564
2.1700879765395893
2.1407624633431084
2.120234604105572
2.1065493646138806
2.0977517106549364
2.090909090909091
2.086021505376344
2.080156402737048
2.0733137829912023
2.0664711632453567
2.059628543499511
2.0498533724340176
2.038123167155425
2.0254154447702835
2.0117302052785924
1.997067448680352
1.9804496578690127
1.963831867057673
1.946236559139785
1.9296187683284456
1.9130009775171064
1.8973607038123168
1.884652981427175
1.873900293255132
1.86119257086999
1.8484848484848484
1.835777126099707
1.8240469208211143
1.8132942326490715
1.8035190615835777
1.7956989247311828
1.7888563049853372
1.7839687194525904
1.7810361681329423
1.7810361681329423
1.7810361681329423
1.780058651026393
1.7781036168132942
1.775171065493646
1.7702834799608993
1.7663734115347018
1.7663734115347018
1.7781036168132942
1.8084066471163245
1.8641251221896384
1.9501466275659824
2.065493646138808
2.182795698924731
2.304007820136853
2.447702834799609
2.5943304007820136
2.7311827956989245
2.849462365591398
2.946236559139785
3.0205278592375366
3.074291300097752
3.110459433040078
3.132942326490713
3.144672531769306
3.145650048875855
3.139784946236559
3.132942326490713
3.124144672531769
3.113391984359726
3.1006842619745845
3.0869990224828934
3.072336265884653
3.0576735092864125
3.043010752688172
3.026392961876833
3.007820136852395
2.9872922776148583
2.963831867057673
2.93841642228739
2.911045943304008
2.8807429130009776
2.844574780058651
2.8025415444770285
2.7536656891495603
2.696969696969697
2.632453567937439
2.560117302052786
2.3734115347018574
2.1495601173020527
2.027370478983382
1.9393939393939397
1.866080156402737
1.8084066471163245
1.7653958944281525
1.737047898338221
1.7194525904203324
1.7096774193548387
1.7028347996089932
1.6979472140762464
1.6920821114369502
1.6842619745845553
1.6744868035190617
1.664711632453568
1.6549364613880744
1.6422287390029326
1.6285434995112416
1.6138807429130009
1.5992179863147604
1.5835777126099706
1.5679374389051808
1.5513196480938416
1.5347018572825024
1.517106549364614
1.499511241446725
1.4848484848484849
1.4721407624633431
1.457478005865103
1.4428152492668622
1.4301075268817205
1.418377321603128
1.409579667644184
1.4027370478983383
1.3978494623655917
1.3949169110459434
1.3919843597262953
1.391006842619746
1.391006842619746
1.392961876832845
1.396871945259042
1.4007820136852396
1.404692082111437
1.4056695992179864
1.404692082111437
1.4037145650048877
1.4056695992179864
1.418377321603128
1.4506353861192571
1.509286412512219
1.5992179863147604
1.6979472140762464
1.8103616813294232
1.9530791788856303
2.1094819159335287
2.2629521016617797
2.4027370478983383
2.5219941348973607
2.6158357771261
2.686217008797654
2.735092864125122
2.7653958944281527
2.782013685239492
2.788856304985337
2.7859237536656893
2.777126099706745
2.7673509286412514
2.7565982404692084
2.7438905180840663
2.7311827956989245
2.716520039100684
2.7008797653958942
2.684261974584555
2.665689149560117
2.64613880742913
2.624633431085044
2.60019550342131
2.573802541544477
2.544477028347996
2.5112414467253177
2.4731182795698925
2.4301075268817205
2.380254154447703
2.3225806451612905
2.257086999022483
2.1847507331378297
2.10752688172043
2.027370478983382
1.948191593352884
1.881720430107527
1.826001955034213
1.7741935483870968
1.7311827956989247
1.6989247311827955
1.6774193548387095
1.6656891495601174
1.6588465298142718
1.6559139784946235
1.6529814271749756
1.6490713587487782
1.6441837732160314
1.6392961876832846
1.6334310850439884
1.6256109481915937
1.6158357771260996
1.6050830889540566
1.5923753665689149
1.5786901270772238
1.5650048875855327
1.5503421309872922
1.5356793743890518
1.520039100684262
1.5034213098729228
1.4897360703812317
1.478005865102639
1.4652981427174976
1.452590420332356
1.439882697947214
1.4281524926686218
1.4173998044965788
1.4086021505376345
1.3998044965786902
1.391006842619746
1.3812316715542523
1.3724340175953078
1.364613880742913
1.3607038123167154
1.3558162267839686
1.3499511241446724
1.3450635386119256
1.33822091886608
1.327468230694037
1.3118279569892473
1.29227761485826
1.2717497556207231
1.2551319648093842
1.2512218963831867
1.267839687194526
1.3020527859237536
1.356793743890518
1.4437927663734116
1.5562072336265884
1.683284457478006
1.8132942326490715
1.935483870967742
2.0410557184750733
2.12316715542522
2.1818181818181817
2.219941348973607
2.2404692082111435
2.247311827956989
2.243401759530792
2.232649071358749
2.2160312805474094
2.1945259042033234
2.1700879765395893
2.142717497556207
2.114369501466276
2.086021505376344
2.0576735092864125
2.03128054740958
2.004887585532747
1.9794721407624636
1.9560117302052784
1.932551319648094
1.906158357771261
1.87683284457478
1.842619745845552
1.8025415444770283
1.7565982404692082
1.7028347996089932
1.6412512218963833
1.5708699902248289
1.4926686217008798
1.4086021505376345
1.321603128054741
1.24633431085044
1.1798631476050832
1.1085043988269794
1.0410557184750733
0.9833822091886608
0.9364613880742912
0.9002932551319648
0.8748778103616813
0.8572825024437928
0.8455522971652004
0.8377321603128055
0.8318670576735093
0.8299120234604106
0.83088954056696
0.8289345063538612
0.8250244379276638
0.8211143695014663
0.8181818181818182
0.8152492668621701
0.8113391984359726
0.8084066471163245
0.8054740957966764
0.8015640273704789
0.7966764418377321
0.7898338220918866
0.7859237536656891
0.7839687194525904
0.7771260997067448
0.7683284457478006
0.7605083088954057
0.7536656891495601
0.7478005865102639
0.7429130009775171
0.7390029325513197
0.7370478983382209
0.7360703812316716
0.7350928641251222
0.7390029325513197
0.7458455522971652
0.7497556207233627
0.7526881720430108
0.7565982404692082
0.761485826001955
0.7653958944281525
0.7683284457478006
0.772238514173998
0.7800586510263929
0.7996089931573802
0.8357771260997068
0.8973607038123167
0.9745845552297164
1.0733137829912025
1.209188660801564
1.3734115347018572
1.552297165200391
1.7331378299120237
1.9042033235581624
2.056695992179863
2.1847507331378297
2.286412512218964
2.364613880742913
2.420332355816227
2.453567937438905
2.472140762463343
2.484848484848485
2.49266862170088
2.495601173020528
2.495601173020528
2.4916911045943304
2.484848484848485
2.4750733137829912
2.462365591397849
2.44672531769306
2.4271749755620724
2.404692082111437
2.380254154447703
2.3528836754643208
2.320625610948192
2.2825024437927666
2.274682306940372
2.2952101661779083
2.286412512218964
2.242424242424242
2.175953079178885
2.0977517106549364
2.016617790811339
1.9374389051808407
1.8729227761485825
1.8211143695014664
1.7732160312805474
1.7341153470185728
1.704789833822092
1.6842619745845553
1.6695992179863148
1.6578690127077225
1.6480938416422288
1.6383186705767352
1.6275659824046922
1.616813294232649
1.606060606060606
1.5972629521016617
1.5894428152492668
1.5796676441837731
1.56891495601173
1.5571847507331378
1.543499511241447
1.5288367546432062
1.5131964809384164
1.4965786901270772
1.4809384164222874
1.4652981427174976
1.4506353861192571
1.439882697947214
1.4330400782013686
1.4242424242424243
1.4164222873900294
1.409579667644184
1.404692082111437
1.4007820136852396
1.396871945259042
1.3949169110459434
1.3978494623655917
1.4115347018572826
1.439882697947214
1.487781036168133
1.5464320625610948
1.6187683284457477
1.7165200391006843
1.83088954056696
1.9521016617790807
2.072336265884653
2.182795698924731
2.2766373411534704
2.350928641251222
2.4027370478983383
2.434017595307918
2.4457478005865103
2.442815249266862
2.429130009775171
2.4027370478983383
2.366568914956012
2.32355816226784
2.274682306940372
2.2218963831867056
2.164222873900293
2.101661779081134
2.035190615835777
1.967741935483871
1.9012707722385145
1.8377321603128052
1.7869012707722385
1.7468230694037146
1.7096774193548387
1.6803519061583578
1.66177908113392
1.6520039100684265
1.6500488758553276
1.6529814271749756
1.656891495601173
1.6608015640273706
1.6627565982404693
1.6627565982404693
1.6627565982404693
1.66177908113392
1.6588465298142718
1.653958944281525
1.64613880742913
1.6363636363636365
1.6256109481915937
1.6138807429130009
1.603128054740958
1.5923753665689149
1.5826001955034212
1.5728250244379276
1.5669599217986314
1.5620723362658846
1.5562072336265884
1.5493646138807429
1.541544477028348
1.5347018572825024
1.5298142717497556
1.5268817204301075
1.525904203323558
1.5268817204301075
1.5298142717497556
1.533724340175953
1.5405669599217986
1.547409579667644
1.5542521994134897
1.560117302052786
1.5650048875855327
1.56891495601173
1.5728250244379276
1.576735092864125
1.581622678396872
1.5865102639296187
1.5923753665689149
1.598240469208211
1.6041055718475072
1.6099706744868034
1.6148582600195502
1.6187683284457477
1.6217008797653958
1.624633431085044
1.6285434995112416
1.6334310850439884
1.6392961876832846
1.6500488758553276
1.6608015640273706
1.6686217008797657
1.6774193548387095
1.6871945259042034
1.6959921798631477
1.704789833822092
1.7126099706744868
1.7204301075268815
1.7282502443792769
1.7350928641251222
1.7419354838709675
1.7468230694037146
1.7497556207233629
1.7526881720430108
1.758553274682307
1.775171065493646
1.8025415444770283
1.8504398826979471
1.9345063538611929
2.0576735092864125
2.217986314760508
2.4056695992179864
2.6070381231671558
2.807429130009776
2.992179863147605
3.1515151515151514
3.281524926686217
3.3812316715542523
3.453567937438905
3.493646138807429
3.5131964809384164
3.5268817204301075
3.532746823069404
3.532746823069404
3.525904203323558
3.515151515151515
3.501466275659824
3.484848484848485
3.466275659824047
3.4457478005865103
3.4252199413489737
3.39980449657869
3.3714565004887587
3.3440860215053765
3.314760508308896
3.2825024437927666
3.247311827956989
3.207233626588465
3.1622678396871944
3.1114369501466275
3.0547409579667644
2.9902248289345064
2.917888563049853
2.8377321603128056
2.760508308895406
2.6832844574780057
2.5992179863147604
2.5141739980449658
2.434017595307918
2.361681329423265
2.3010752688172045
2.2521994134897363
2.21505376344086
2.187683284457478
2.167155425219941
2.150537634408602
2.1378299120234603
2.126099706744868
2.113391984359726
2.0987292277614857
2.083088954056696
2.0664711632453567
2.0498533724340176
2.032258064516129
2.013685239491691
1.994134897360704
1.9745845552297163
1.95405669599218
1.9345063538611929
1.9178885630498532
1.902248289345064
1.8856304985337244
1.869012707722385
1.8533724340175952
1.8377321603128052
1.823069403714565
1.8103616813294232
1.7996089931573802
1.790811339198436
1.782991202346041
1.7761485826001957
1.7712609970674489
1.7683284457478006
1.7653958944281525
1.7624633431085044
1.7605083088954057
1.758553274682307
1.7556207233626588
1.7526881720430108
1.7497556207233629
1.7448680351906158
1.739980449657869
1.7380254154447703
1.7438905180840665
1.7595307917888563
1.790811339198436
1.8484848484848484
1.9364613880742916
2.0527859237536656
2.190615835777126
2.340175953079179
2.4887585532746823
2.6285434995112413
2.7517106549364616
2.852394916911046
2.9315738025415445
2.983382209188661
3.0146627565982405
3.038123167155425
3.053763440860215
3.060606060606061
3.060606060606061
3.0557184750733137
3.047898338220919
3.037145650048876
3.024437927663734
3.0097751710654936
2.8641251221896384
2.6578690127077222
2.549364613880743
2.484848484848485
2.442815249266862
2.4115347018572826
2.3841642228739004
2.357771260997068
2.3304007820136854
2.300097751710655
2.264907135874878
2.2248289345063537
2.177908113391984
2.124144672531769
2.070381231671554
2.0146627565982405
1.9501466275659824
1.881720430107527
1.8132942326490715
1.7487781036168133
1.6930596285434996
1.6471163245356797
1.611925708699902
1.5865102639296187
1.5708699902248289
1.560117302052786
1.552297165200391
1.5464320625610948
1.5376344086021505
1.5288367546432062
1.521994134897361
1.512218963831867
1.500488758553275
1.4868035190615836
1.4731182795698925
1.458455522971652
1.4428152492668622
1.426197458455523
1.4105571847507332
1.396871945259042
1.3851417399804498
1.3724340175953078
1.3587487781036167
1.3411534701857282
1.3264907135874875
1.3157380254154447
1.305962854349951
1.2981427174975562
1.29227761485826
1.2883675464320623
1.2864125122189638
1.2864125122189638
1.2873900293255132
1.2883675464320623
1.289345063538612
1.2913000977517106
1.2942326490713587
1.295210166177908
1.295210166177908
1.29227761485826
1.289345063538612
1.2854349951124144
1.284457478005865
1.2903225806451613
1.3069403714565004
1.3255131964809383
1.3792766373411536
1.4838709677419355
1.606060606060606
1.7429130009775171
1.8494623655913975
1.9696969696969695
2.12316715542522
2.243401759530792
2.3225806451612905
2.375366568914956
2.421309872922776
2.453567937438905
2.4731182795698925
2.482893450635386
2.4858260019550342
2.482893450635386
2.4760508308895406
2.464320625610948
2.449657869012708
2.4330400782013686
2.4134897360703813
2.3919843597262958
2.3685239491691106
2.3440860215053765
2.317693059628544
2.2883675464320627
2.2561094819159337
2.220918866080156
2.1808406647116323
2.136852394916911
2.0869990224828934
2.03128054740958
1.967741935483871
1.8963831867057677
1.827956989247312
1.7575757575757576
1.6744868035190617
1.5835777126099706
1.4897360703812317
1.396871945259042
1.3098729227761483
1.2316715542521994
1.164222873900293
1.1085043988269794
1.0635386119257086
1.0283479960899315
0.9990224828934506
0.9794721407624634
0.9638318670576737
0.946236559139785
0.9266862170087976
0.9051808406647116
0.8836754643206256
0.8611925708699902
0.8387096774193549
0.8152492668621701
0.7917888563049853
0.7683284457478006
0.7448680351906158
0.7272727272727273
0.7126099706744868
0.6940371456500489
0.6735092864125122
0.6529814271749755
0.6324535679374389
0.6129032258064516
0.5943304007820137
0.5777126099706745
0.5630498533724341
0.5503421309872922
0.5386119257086999
0.5288367546432062
0.5259042033235581
0.5259042033235581
0.52297165200391
0.5190615835777126
0.5141739980449658
0.5102639296187683
0.5063538611925709
0.5034213098729228
0.5024437927663734
0.501466275659824
0.5004887585532747
0.4985337243401759
0.5004887585532747
0.5043988269794721
0.5053763440860215
0.509286412512219
0.5239491691104594
0.5571847507331378
0.6177908113391984
0.7106549364613881
0.8357771260997068
0.9863147605083088
1.1544477028347997
1.327468230694037
1.4926686217008798
1.6275659824046922
1.737047898338221
1.8387096774193548
1.9227761485826005
1.989247311827957
2.0410557184750733
2.078201368523949
2.104594330400782
2.12316715542522
2.1358748778103616
2.142717497556207
2.1436950146627565
2.1388074291300097
2.1309872922776147
2.120234604105572
2.10752688172043
2.093841642228739
2.078201368523949
2.06158357771261
2.043010752688172
2.0195503421309877
1.991202346041056
1.956989247311828
1.9149560117302051
1.865102639296188
1.81524926686217
1.7634408602150538
1.7018572825024438
1.632453567937439
1.5591397849462365
1.4858260019550342
1.414467253176931
1.348973607038123
1.29227761485826
1.2453567937438903
1.2101661779081134
1.1857282502443791
1.1720430107526882
1.1652003910068427
1.1622678396871946
1.1612903225806452
1.1622678396871946
1.1622678396871946
1.1612903225806452
1.1583577712609971
1.1544477028347997
1.1485826001955035
1.141739980449658
1.1348973607038124
1.1280547409579669
1.1231671554252198
1.1192570869990224
1.1124144672531768
1.1036168132942326
1.0918866080156402
1.0791788856304985
1.0654936461388074
1.050830889540567
1.0371456500488758
1.024437927663734
1.0127077223851415
1.002932551319648
0.997067448680352
0.9931573802541545
0.9863147605083088
0.9775171065493646
0.9696969696969696
0.9618768328445748
0.95405669599218
0.9472140762463344
0.9413489736070382
0.9364613880742912
0.9305962854349952
0.9237536656891496
0.916911045943304
0.9130009775171064
0.9159335288367546
0.9266862170087976
0.9550342130987292
1.007820136852395
1.0899315738025417
1.2023460410557183
1.3411534701857282
1.4965786901270772
1.6588465298142718
1.8162267839687196
1.9608993157380252
2.072336265884653
2.158357771260997
2.2355816226783967
2.300097751710655
2.3489736070381237
2.512218963831867
2.727272727272727
2.8367546432062563
2.8914956011730206
2.9159335288367547
2.9227761485826003
2.918866080156403
2.90811339198436
2.89247311827957
2.8729227761485827
2.852394916911046
2.83088954056696
2.807429130009776
2.7810361681329425
2.7517106549364616
2.717497556207233
2.678396871945259
2.633431085043988
2.5806451612903225
2.520039100684262
2.4594330400782014
2.3978494623655915
2.32355816226784
2.242424242424242
2.1593352883675463
2.0791788856304985
2.005865102639296
1.9423264907135875
1.889540566959922
1.8494623655913975
1.8201368523949168
1.7986314760508308
1.7859237536656891
1.7790811339198436
1.772238514173998
1.7663734115347018
1.7605083088954057
1.7556207233626588
1.7497556207233629
1.7429130009775171
1.7341153470185728
1.7243401759530792
1.7135874877810362
1.7018572825024438
1.689149560117302
1.6793743890518085
1.6715542521994136
1.6627565982404693
1.6529814271749756
1.6441837732160314
1.6363636363636365
1.6275659824046922
1.6207233626588464
1.6138807429130009
1.608993157380254
1.6050830889540566
1.6021505376344083
1.603128054740958
1.6050830889540566
1.606060606060606
1.607038123167155
1.608993157380254
1.611925708699902
1.6158357771260996
1.6207233626588464
1.6256109481915937
1.6304985337243405
1.6344086021505375
1.6363636363636365
1.635386119257087
1.6363636363636365
1.6383186705767352
1.6441837732160314
1.66177908113392
1.6989247311827955
1.7634408602150538
1.8592375366568916
1.9853372434017595
2.1378299120234603
2.3059628543499517
2.4760508308895406
2.638318670576735
2.7673509286412514
2.868035190615836
2.962854349951124
3.0410557184750733
3.101661779081134
3.145650048875855
3.175953079178885
3.1945259042033234
3.204301075268817
3.2082111436950145
3.2052785923753664
3.198435972629521
3.187683284457478
3.1730205278592374
3.1544477028347995
3.136852394916911
3.1192570869990224
3.1006842619745845
3.081133919843597
3.059628543499511
3.037145650048876
3.0117302052785924
2.981427174975562
2.9472140762463344
2.9071358748778104
2.866080156402737
2.8211143695014664
2.766373411534702
2.7038123167155423
2.633431085043988
2.5562072336265884
2.4750733137829912
2.391006842619746
2.3098729227761488
2.2355816226783967
2.1710654936461387
2.118279569892473
2.078201368523949
2.0518084066471163
2.034213098729228
2.022482893450636
2.01564027370479
2.010752688172043
2.005865102639296
2.0
1.9931573802541545
1.9843597262952104
1.9745845552297163
1.962854349951124
1.9501466275659824
1.9393939393939397
1.9296187683284456
1.9178885630498532
1.906158357771261
1.8944281524926687
1.8826979472140764
1.870967741935484
1.8592375366568916
1.8484848484848484
1.8377321603128052
1.827956989247312
1.8191593352883677
1.8113391984359728
1.8054740957966764
1.801564027370479
1.7986314760508308
1.7976539589442817
1.7976539589442817
1.7996089931573802
1.8035190615835777
1.8093841642228736
1.81524926686217
1.8211143695014664
1.826001955034213
1.827956989247312
1.828934506353861
1.83088954056696
1.833822091886608
1.842619745845552
1.865102639296188
1.9071358748778104
1.975562072336266
2.070381231671554
2.190615835777126
2.3284457478005867
2.474095796676442
2.6158357771261
2.7468230694037143
2.84652981427175
2.921798631476051
2.989247311827957
3.043010752688172
3.0821114369501466
3.10752688172043
3.1221896383186705
3.129032258064516
3.1300097751710654
3.126099706744868
3.1192570869990224
3.1094819159335287
3.0957966764418376
3.0791788856304985
3.0635386119257086
3.048875855327468
3.034213098729228
3.0175953079178885
3.0
2.9804496578690127
2.9579667644183774
2.9335288367546437
2.905180840664712
2.8729227761485827
2.835777126099707
2.7976539589442817
2.7565982404692084
2.7067448680351904
2.6480938416422286
2.5835777126099706
2.5131964809384164
2.439882697947214
2.367546432062561
2.2991202346041058
2.239491691104594
2.188660801564027
2.1495601173020527
2.1221896383186705
2.103616813294233
2.089931573802541
2.080156402737048
2.072336265884653
2.064516129032258
2.056695992179863
2.047898338220919
2.0391006842619745
2.029325513196481
2.018572825024438
2.006842619745845
1.994134897360704
1.9824046920821117
1.9716520039100685
1.9579667644183771
1.9442815249266865
1.9296187683284456
1.9149560117302051
1.902248289345064
1.889540566959922
1.87683284457478
1.865102639296188
1.855327468230694
1.847507331378299
1.8416422287390029
1.8377321603128052
1.8328445747800584
1.828934506353861
1.826001955034213
1.823069403714565
2.517106549364614
2.5141739980449658
2.501466275659824
2.482893450635386
2.4594330400782014
2.434017595307918
2.407624633431085
2.3822091886608017
2.356793743890518
2.332355816226784
2.30791788856305
2.2844574780058653
2.260997067448681
2.236559139784946
2.210166177908113
2.1818181818181817
2.150537634408602
2.1163245356793743
2.0772238514174
2.0391006842619745
1.9980449657869013
1.9472140762463344
1.8866080156402736
1.8172043010752688
1.739980449657869
1.6559139784946235
1.56891495601173
1.4819159335288368
1.3998044965786902
1.3284457478005864
1.270772238514174
1.2316715542521994
1.2082111436950147
1.1935483870967742
1.187683284457478
1.1886608015640274
1.1935483870967742
1.1994134897360704
1.206256109481916
1.2121212121212122
1.2160312805474096
1.2189638318670577
1.219941348973607
1.219941348973607
1.219941348973607
1.219941348973607
1.2179863147605083
1.2150537634408602
1.2101661779081134
1.2043010752688172
1.198435972629521
1.1935483870967742
1.1896383186705768
1.1867057673509287
1.1837732160312806
1.181818181818182
1.181818181818182
1.1827956989247312
1.1837732160312806
1.1857282502443791
1.187683284457478
1.1896383186705768
1.1915933528836755
1.1945259042033236
1.1974584555229717
1.2013685239491692
1.2043010752688172
1.2082111436950147
1.2111436950146628
