ppg
1.6852394916911049
1.6285434995112416
1.5542521994134897
1.500488758553275
1.457478005865103
1.4203323558162269
1.3870967741935485
1.356793743890518
1.3294232649071358
1.3040078201368523
1.2795698924731185
1.2561094819159335
1.2394916911045943
1.2267839687194526
1.2130987292277615
1.198435972629521
1.18475073313783
1.1710654936461389
1.1593352883675463
1.1495601173020529
1.1397849462365592
1.1300097751710656
1.121212121212121
1.1124144672531768
1.1036168132942326
1.0977517106549364
1.093841642228739
1.0879765395894427
1.0811339198435972
1.0742913000977516
1.0664711632453567
1.0586510263929618
1.0527859237536656
1.0478983382209188
1.043010752688172
1.0391006842619743
1.035190615835777
1.0342130987292275
1.0342130987292275
1.032258064516129
1.029325513196481
1.0263929618768328
1.0224828934506354
1.018572825024438
1.0146627565982405
1.0117302052785924
1.0087976539589445
1.007820136852395
1.0068426197458455
1.0068426197458455
1.0087976539589445
1.0117302052785924
1.013685239491691
1.0146627565982405
1.013685239491691
1.0127077223851415
1.0117302052785924
1.010752688172043
1.0097751710654936
1.0097751710654936
1.010752688172043
1.0175953079178883
1.0303030303030305
1.0518084066471165
1.088954056695992
1.1456500488758554
1.224828934506354
1.3284457478005864
1.4545454545454546
1.5992179863147604
1.758553274682307
1.924731182795699
2.090909090909091
2.249266862170088
2.393939393939394
2.506353861192571
2.593352883675464
2.67644183773216
2.748778103616813
2.807429130009776
2.8533724340175954
2.887585532746823
2.9100684261974585
2.9237536656891496
2.9286412512218964
2.924731182795699
2.913000977517106
2.8914956011730206
2.86217008797654
2.8240469208211145
2.777126099706745
2.720430107526881
2.654936461388074
2.581622678396872
2.5024437927663734
2.419354838709677
2.337243401759531
2.2580645161290325
2.1847507331378297
2.118279569892473
2.064516129032258
2.0205278592375366
1.9794721407624636
1.943304007820137
1.9120234604105573
1.884652981427175
1.8592375366568916
1.835777126099707
1.812316715542522
1.7898338220918866
1.7653958944281525
1.7390029325513197
1.715542521994135
1.6911045943304008
1.6627565982404693
1.6314760508308896
1.5992179863147604
1.5679374389051808
1.5356793743890518
1.5034213098729228
1.4711632453567938
1.4389051808406648
1.4086021505376345
1.380254154447703
1.35386119257087
1.332355816226784
1.313782991202346
1.2942326490713587
1.2746823069403714
1.2551319648093842
1.2365591397849462
1.2179863147605083
1.2003910068426198
1.18475073313783
1.1710654936461389
1.1593352883675463
1.1485826001955035
1.141739980449658
1.1368523949169111
1.1300097751710656
1.121212121212121
1.1114369501466277
1.1026392961876832
1.093841642228739
1.086021505376344
1.078201368523949
1.0703812316715542
1.0635386119257086
1.0557184750733135
1.0488758553274682
1.04594330400782
1.0449657869012707
1.043010752688172
1.040078201368524
1.0361681329423265
1.032258064516129
1.0283479960899315
1.024437927663734
1.0205278592375366
1.0166177908113392
1.013685239491691
1.010752688172043
1.010752688172043
1.0127077223851415
1.013685239491691
1.0146627565982405
1.0146627565982405
1.0146627565982405
1.0146627565982405
1.0146627565982405
1.013685239491691
1.0127077223851415
1.0127077223851415
1.0117302052785924
1.010752688172043
1.0127077223851415
1.0156402737047898
1.018572825024438
1.0263929618768328
1.0420332355816226
1.0703812316715542
1.115347018572825
1.1827956989247312
1.273704789833822
1.3900293255131966
1.5268817204301075
1.6793743890518085
1.8191593352883677
1.9521016617790807
2.1006842619745845
2.2502443792766376
2.3900293255131966
2.515151515151515
2.622678396871945
2.7126099706744866
2.78494623655914
2.8406647116324537
2.881720430107527
2.9100684261974585
2.9266862170087977
2.929618768328446
2.9237536656891496
2.913978494623656
2.897360703812317
2.873900293255132
2.841642228739003
2.798631476050831
2.744868035190616
2.681329423264907
2.6099706744868034
2.532746823069404
2.4516129032258065
2.376344086021505
2.3069403714565007
2.2355816226783967
2.167155425219941
2.104594330400782
2.0498533724340176
2.002932551319648
1.962854349951124
1.9296187683284456
1.9012707722385145
1.87683284457478
1.8543499511241448
1.833822091886608
1.8142717497556209
1.793743890518084
1.7702834799608993
1.7448680351906158
1.7174975562072337
1.6871945259042034
1.6559139784946235
1.6236559139784943
1.590420332355816
1.5562072336265884
1.521994134897361
1.487781036168133
1.4604105571847508
1.435972629521017
1.4086021505376345
1.3812316715542523
1.3548387096774193
1.3284457478005864
1.303030303030303
1.2795698924731185
1.2570869990224829
1.2375366568914956
1.2209188660801564
1.206256109481916
1.1974584555229717
1.1915933528836755
1.18475073313783
1.176930596285435
1.1691104594330402
1.1612903225806452
1.1544477028347997
1.1466275659824048
1.13880742913001
1.1300097751710656
1.121212121212121
1.1124144672531768
1.1036168132942326
1.0987292277614855
1.0948191593352885
1.0899315738025417
1.0840664711632453
1.078201368523949
1.072336265884653
1.0664711632453567
1.0606060606060606
1.0547409579667644
1.0488758553274682
1.043010752688172
1.0381231671554252
1.0371456500488758
1.0371456500488758
1.035190615835777
1.032258064516129
1.029325513196481
1.0263929618768328
1.024437927663734
1.0234604105571847
1.0224828934506354
1.0224828934506354
1.0224828934506354
1.0224828934506354
1.0224828934506354
1.024437927663734
1.0283479960899315
1.0303030303030305
1.0303030303030305
1.029325513196481
1.0283479960899315
1.0283479960899315
1.0303030303030305
1.0371456500488758
1.0547409579667644
1.086021505376344
1.1378299120234605
1.198435972629521
1.2746823069403714
1.380254154447703
1.512218963831867
1.6627565982404693
1.8269794721407624
1.997067448680352
2.1652003910068425
2.32355816226784
2.4682306940371457
2.595307917888563
2.701857282502444
2.788856304985337
2.8484848484848486
2.8885630498533725
2.9237536656891496
2.951124144672532
2.9687194525904204
2.9775171065493646
2.9765395894428157
2.9667644183773216
2.9472140762463344
2.917888563049853
2.878787878787879
2.8299120234604107
2.776148582600196
2.716520039100684
2.6471163245356792
2.56891495601173
2.486803519061584
2.401759530791789
2.3196480938416424
2.241446725317693
2.1700879765395893
2.10752688172043
2.0527859237536656
2.006842619745845
1.9667644183773216
1.935483870967742
1.9100684261974583
1.884652981427175
1.858260019550342
1.8318670576735088
1.804496578690127
1.7761485826001957
1.7458455522971652
1.715542521994135
1.6842619745845553
1.6529814271749756
1.6207233626588464
1.5923753665689149
1.5650048875855327
1.533724340175953
1.499511241446725
1.4652981427174976
1.43108504398827
1.396871945259042
1.3655913978494625
1.3343108504398826
1.3049853372434017
1.2756598240469208
1.2482893450635386
1.2218963831867058
1.2023460410557183
1.1867057673509287
1.1691104594330402
1.1505376344086022
1.130987292277615
1.1124144672531768
1.096774193548387
1.0821114369501466
1.067448680351906
1.053763440860215
1.0410557184750733
1.0283479960899315
1.0205278592375366
1.0146627565982405
1.0058651026392962
0.9951124144672532
0.9843597262952102
0.9745845552297164
0.9657869012707724
0.9579667644183774
0.9501466275659824
0.9433040078201368
0.9364613880742912
0.9296187683284456
0.9237536656891496
0.9217986314760508
0.9217986314760508
0.9208211143695014
0.9188660801564028
0.916911045943304
0.9159335288367546
0.9149560117302052
0.9149560117302052
0.9149560117302052
0.9149560117302052
0.9149560117302052
0.9149560117302052
0.916911045943304
0.919843597262952
0.9208211143695014
0.9208211143695014
0.9208211143695014
0.9208211143695014
0.9208211143695014
0.9208211143695014
0.9208211143695014
0.9217986314760508
0.9247311827956988
0.9325513196480938
0.9481915933528836
0.9706744868035192
1.0048875855327468
1.0586510263929618
1.133919843597263
1.2326490713587488
1.3548387096774193
1.499511241446725
1.6608015640273706
1.833822091886608
2.0097751710654936
2.1808406647116323
2.3411534701857284
2.4672531769305963
2.56891495601173
2.668621700879765
2.757575757575758
2.831867057673509
2.8914956011730206
2.936461388074292
2.9687194525904204
2.989247311827957
3.0
3.0009775171065494
2.992179863147605
2.973607038123167
2.946236559139785
2.9120234604105573
2.8699902248289346
2.8181818181818183
2.757575757575758
2.6881720430107525
2.6129032258064515
2.533724340175953
2.452590420332356
2.372434017595308
2.2961876832844577
2.2267839687194524
2.16911045943304
2.120234604105572
2.074291300097752
2.034213098729228
2.0009775171065494
1.9726295210166176
1.946236559139785
1.921798631476051
1.8973607038123168
1.8729227761485825
1.8465298142717497
1.8201368523949168
1.7947214076246334
1.7702834799608993
1.7419354838709675
1.710654936461388
1.6774193548387095
1.6422287390029326
1.606060606060606
1.5698924731182795
1.533724340175953
1.498533724340176
1.4643206256109482
1.4320625610948192
1.4027370478983383
1.3792766373411536
1.359726295210166
1.33822091886608
1.316715542521994
1.2961876832844574
1.2756598240469208
1.2551319648093842
1.2365591397849462
1.2189638318670577
1.203323558162268
1.1896383186705768
1.1788856304985338
1.1720430107526882
1.1671554252199414
1.160312805474096
1.152492668621701
1.144672531769306
1.1368523949169111
1.1290322580645162
1.121212121212121
1.1133919843597262
1.1055718475073313
1.0977517106549364
1.088954056695992
1.0801564027370478
1.075268817204301
1.072336265884653
1.067448680351906
1.0625610948191593
1.056695992179863
1.050830889540567
1.04594330400782
1.0410557184750733
1.0361681329423265
1.032258064516129
1.0283479960899315
1.0254154447702837
1.0263929618768328
1.0283479960899315
1.0488758553274682
1.0791788856304985
1.093841642228739
1.1006842619745845
1.1036168132942326
1.104594330400782
1.104594330400782
1.104594330400782
1.104594330400782
1.1036168132942326
1.1026392961876832
1.104594330400782
1.1085043988269794
1.1114369501466277
1.118279569892473
1.1329423264907137
1.1593352883675463
1.203323558162268
1.2688172043010753
1.356793743890518
1.4682306940371457
1.6001955034213098
1.7497556207233629
1.8875855327468232
2.018572825024438
2.1652003910068425
2.313782991202346
2.453567937438905
2.579667644183773
2.689149560117302
2.782013685239492
2.8582600195503423
2.919843597262952
2.9667644183773216
3.0009775171065494
3.024437927663734
3.0332355816226784
3.03128054740958
3.026392961876833
3.01564027370479
2.997067448680352
2.9687194525904204
2.930596285434995
2.881720430107527
2.822091886608016
2.752688172043011
2.67644183773216
2.595307917888563
2.5190615835777126
2.4457478005865103
2.3685239491691106
2.2932551319648096
2.222873900293255
2.158357771260997
2.101661779081134
2.053763440860215
2.0127077223851417
1.978494623655914
1.9501466275659824
1.9237536656891496
1.900293255131965
1.8797653958944285
1.8602150537634408
1.839687194525904
1.8172043010752688
1.7917888563049853
1.7634408602150538
1.7331378299120237
1.7018572825024438
1.6686217008797657
1.635386119257087
1.6011730205278591
1.5679374389051808
1.5395894428152492
1.5141739980449658
1.4858260019550342
1.456500488758553
1.4281524926686218
1.4007820136852396
1.3743890518084063
1.3499511241446724
1.327468230694037
1.3069403714565004
1.2883675464320623
1.2717497556207231
1.2561094819159335
1.2453567937438903
1.2375366568914956
1.227761485826002
1.2160312805474096
1.2043010752688172
1.1935483870967742
1.18475073313783
1.176930596285435
1.1700879765395895
1.164222873900293
1.1583577712609971
1.152492668621701
1.1495601173020529
1.147605083088954
1.141739980449658
1.133919843597263
1.126099706744868
1.118279569892473
1.1114369501466277
1.1055718475073313
1.1016617790811338
1.0977517106549364
1.093841642228739
1.0899315738025417
1.086021505376344
1.0850439882697946
1.0850439882697946
1.083088954056696
1.0811339198435972
1.0801564027370478
1.0801564027370478
1.0801564027370478
1.0801564027370478
1.0801564027370478
1.0791788856304985
1.0772238514173995
1.075268817204301
1.0762463343108504
1.078201368523949
1.0772238514173995
1.0742913000977516
1.0713587487781036
1.0694037145650048
1.0684261974584557
1.0703812316715542
1.078201368523949
1.0957966764418376
1.1280547409579669
1.1779081133919844
1.2502443792766371
1.3313782991202343
1.4242424242424243
1.5464320625610948
1.6901270772238517
1.847507331378299
2.0117302052785924
2.1739980449657867
2.3274682306940373
2.469208211143695
2.5943304007820136
2.699902248289345
2.787878787878788
2.8484848484848486
2.889540566959922
2.9257086999022484
2.95405669599218
2.975562072336266
2.988269794721408
2.9931573802541545
2.989247311827957
2.975562072336266
2.9530791788856305
2.921798631476051
2.8807429130009776
2.833822091886608
2.780058651026393
2.716520039100684
2.644183773216031
2.5650048875855327
2.4819159335288368
2.398826979472141
2.318670576735093
2.243401759530792
2.174975562072336
2.115347018572825
2.0635386119257086
2.0195503421309877
1.9853372434017595
1.956989247311828
1.9315738025415443
1.90811339198436
1.8856304985337244
1.8631476050830889
1.8406647116324533
1.8172043010752688
1.7917888563049853
1.7653958944281525
1.7380254154447703
1.70772238514174
1.6813294232649072
1.6549364613880744
1.624633431085044
1.5923753665689149
1.5591397849462365
1.5268817204301075
1.4946236559139785
1.4633431085043989
1.4330400782013686
1.404692082111437
1.3773216031280548
1.3528836754643203
1.3294232649071358
1.3118279569892473
1.2991202346041055
1.284457478005865
1.2697947214076246
1.2561094819159335
1.2434017595307918
1.2316715542521994
1.219941348973607
1.2082111436950147
1.1974584555229717
1.1867057673509287
1.1759530791788857
1.1700879765395895
1.166177908113392
1.1612903225806452
1.155425219941349
1.1485826001955035
1.1407624633431086
1.133919843597263
1.1270772238514175
1.121212121212121
1.115347018572825
1.1094819159335287
1.104594330400782
1.1006842619745845
1.099706744868035
1.099706744868035
1.096774193548387
1.0928641251221896
1.088954056695992
1.0850439882697946
1.0811339198435972
1.0772238514173995
1.0742913000977516
1.0733137829912025
1.072336265884653
1.072336265884653
1.0742913000977516
1.078201368523949
1.0791788856304985
1.078201368523949
1.0772238514173995
1.075268817204301
1.0742913000977516
1.0733137829912025
1.072336265884653
1.0713587487781036
1.0703812316715542
1.0703812316715542
1.0742913000977516
1.083088954056696
1.1006842619745845
1.130987292277615
1.1798631476050832
1.2502443792766371
1.3450635386119256
1.4633431085043989
1.6021505376344083
1.7419354838709675
1.8826979472140764
2.037145650048876
2.1915933528836757
2.318670576735093
2.426197458455523
2.5347018572825024
2.633431085043988
2.717497556207233
2.7859237536656893
2.8406647116324537
2.881720430107527
2.9100684261974585
2.927663734115347
2.936461388074292
2.935483870967742
2.9257086999022484
2.906158357771261
2.877810361681329
2.841642228739003
2.795698924731183
2.740957966764418
2.67644183773216
2.6041055718475072
2.525904203323558
2.444770283479961
2.3626588465298144
2.281524926686217
2.206256109481916
2.142717497556207
2.0879765395894427
2.0361681329423265
1.9902248289345064
1.9501466275659824
1.9149560117302051
1.884652981427175
1.858260019550342
1.833822091886608
1.8103616813294232
1.7859237536656891
1.761485826001955
1.7360703812316716
1.7126099706744868
1.689149560117302
1.66177908113392
1.632453567937439
1.6011730205278591
1.5698924731182795
1.5386119257087
1.5073313782991202
1.4750733137829912
1.4428152492668622
1.4115347018572826
1.3822091886608017
1.359726295210166
1.3401759530791788
1.3186705767350928
1.2961876832844574
1.2756598240469208
1.2561094819159335
1.2375366568914956
1.219941348973607
1.203323558162268
1.1886608015640274
1.1759530791788857
1.1652003910068427
1.155425219941349
1.1485826001955035
1.142717497556207
1.1348973607038124
1.126099706744868
1.1173020527859236
1.1094819159335287
1.1026392961876832
1.0957966764418376
1.0899315738025417
1.0850439882697946
1.0811339198435972
1.0762463343108504
1.0742913000977516
1.0733137829912025
1.0694037145650048
1.0654936461388074
1.06158357771261
1.0586510263929618
1.0557184750733135
1.053763440860215
1.0518084066471165
1.0498533724340176
1.0488758553274682
1.0488758553274682
1.0488758553274682
1.050830889540567
1.0527859237536656
1.053763440860215
1.0547409579667644
1.0547409579667644
1.0557184750733135
1.0576735092864125
1.0596285434995112
1.06158357771261
1.0625610948191593
1.064516129032258
1.0654936461388074
1.0684261974584557
1.0713587487781036
1.072336265884653
1.075268817204301
1.083088954056696
1.0987292277614855
1.1270772238514175
1.173998044965787
1.2424242424242424
1.3343108504398826
1.4506353861192571
1.587487781036168
1.7409579667644184
1.881720430107527
2.0146627565982405
2.1622678396871944
2.3098729227761488
2.4486803519061584
2.573802541544477
2.681329423264907
2.7702834799608995
2.841642228739003
2.897360703812317
2.9393939393939394
2.970674486803519
2.9853372434017595
2.989247311827957
2.9902248289345064
2.9853372434017595
2.973607038123167
2.9530791788856305
2.9227761485826003
2.8826979472140764
2.832844574780059
2.773216031280548
2.704789833822092
2.6295210166177907
2.5562072336265884
2.4838709677419355
2.406647116324536
2.3304007820136854
2.2580645161290325
2.193548387096774
2.136852394916911
2.0869990224828934
2.04594330400782
2.0117302052785924
1.9824046920821117
1.956989247311828
1.9335288367546437
1.9120234604105573
1.8914956011730208
1.869012707722385
1.844574780058651
1.818181818181818
1.7898338220918866
1.7595307917888563
1.7272727272727273
1.694037145650049
1.6598240469208212
1.6265884652981428
1.5923753665689149
1.564027370478983
1.5386119257087
1.5112414467253177
1.482893450635386
1.4545454545454546
1.426197458455523
1.3988269794721409
1.3724340175953078
1.346041055718475
1.321603128054741
1.2991202346041055
1.2776148582600195
1.2580645161290325
1.2434017595307918
1.2316715542521994
1.2189638318670577
1.206256109481916
1.195503421309873
1.1857282502443791
1.1779081133919844
1.1720430107526882
1.1652003910068427
1.1583577712609971
1.1515151515151516
1.1436950146627567
1.1378299120234605
1.1319648093841643
1.1231671554252198
1.1133919843597262
1.104594330400782
1.0948191593352885
1.0850439882697946
1.0742913000977516
1.0635386119257086
1.0518084066471165
1.0410557184750733
1.0303030303030305
1.021505376344086
1.0156402737047898
1.010752688172043
1.002932551319648
0.9941348973607038
0.9853372434017597
0.9765395894428152
0.967741935483871
0.9608993157380256
0.95405669599218
0.9491691104594332
0.9452590420332356
0.9423264907135877
0.9433040078201368
0.9472140762463344
0.9501466275659824
0.9511241446725318
0.9511241446725318
0.9501466275659824
0.9491691104594332
0.9481915933528836
0.9501466275659824
0.9579667644183774
0.9736070381231672
1.002932551319648
1.0518084066471165
1.1094819159335287
1.181818181818182
1.2825024437927663
1.4066471163245358
1.5493646138807429
1.704789833822092
1.8670576735092863
2.029325513196481
2.1837732160312804
2.326490713587488
2.453567937438905
2.5620723362658846
2.6402737047898337
2.6959921798631474
2.747800586510264
2.790811339198436
2.823069403714565
2.8455522971652005
2.860215053763441
2.866080156402737
2.863147605083089
2.8514173998044967
2.8299120234604107
2.798631476050831
2.755620723362659
2.705767350928641
2.650048875855328
2.5865102639296187
2.517106549364614
2.4408602150537635
2.363636363636364
2.2873900293255134
2.2140762463343107
2.146627565982405
2.0869990224828934
2.0361681329423265
1.9931573802541545
1.9589442815249267
1.932551319648094
1.9090909090909087
1.8875855327468232
1.866080156402737
1.8455522971652003
1.825024437927664
1.8035190615835777
1.7810361681329423
1.7556207233626588
1.729227761485826
1.7018572825024438
1.6735092864125125
1.6480938416422288
1.624633431085044
1.5972629521016617
1.5679374389051808
1.5376344086021505
1.5063538611925709
1.47702834799609
1.4486803519061584
1.4222873900293256
1.396871945259042
1.3734115347018572
1.3528836754643203
1.3372434017595307
1.3235581622678396
1.3079178885630498
1.2913000977517106
1.2756598240469208
1.2609970674486803
1.24633431085044
1.2336265884652982
1.2218963831867058
1.2101661779081134
1.1994134897360704
1.1906158357771262
1.181818181818182
1.1759530791788857
1.1720430107526882
1.1671554252199414
1.160312805474096
1.1534701857282503
1.1456500488758554
1.13880742913001
1.130987292277615
1.1241446725317692
1.118279569892473
1.1133919843597262
1.1085043988269794
1.10752688172043
1.10752688172043
1.1055718475073313
1.1026392961876832
1.1006842619745845
1.0987292277614855
1.0977517106549364
1.0957966764418376
1.093841642228739
1.0918866080156402
1.0909090909090908
1.0899315738025417
1.088954056695992
1.0909090909090908
1.093841642228739
1.0957966764418376
1.096774193548387
1.096774193548387
1.096774193548387
1.096774193548387
1.096774193548387
1.0957966764418376
1.0948191593352885
1.093841642228739
1.0928641251221896
1.0957966764418376
1.104594330400782
1.1192570869990224
1.1466275659824048
1.1925708699902249
1.260019550342131
1.3509286412512218
1.4643206256109482
1.5972629521016617
1.7448680351906158
1.9012707722385145
2.059628543499511
2.193548387096774
2.3088954056695994
2.4281524926686218
2.5405669599217986
2.6392961876832843
2.7223851417399803
2.789833822091887
2.8426197458455524
2.8807429130009776
2.90811339198436
2.9257086999022484
2.9335288367546437
2.9335288367546437
2.9227761485826003
2.9042033235581624
2.8807429130009776
2.8484848484848486
2.806451612903226
2.7546432062561097
2.6930596285435
2.624633431085044
2.550342130987292
2.472140762463343
2.3929618768328447
2.315738025415445
2.2482893450635384
2.189638318670577
2.131964809384164
2.0791788856304985
2.0332355816226784
1.9931573802541545
1.959921798631476
1.9305962854349952
1.905180840664712
1.881720430107527
1.8602150537634408
1.8387096774193548
1.81524926686217
1.7927663734115349
1.7712609970674489
1.7458455522971652
1.718475073313783
1.6881720430107527
1.656891495601173
1.624633431085044
1.5913978494623655
1.5581622678396871
1.525904203323558
1.4946236559139785
1.4652981427174976
1.4418377321603129
1.4213098729227762
1.3988269794721409
1.375366568914956
1.3528836754643203
1.3313782991202343
1.3118279569892473
1.2932551319648091
1.2756598240469208
1.2590420332355816
1.2443792766373412
1.2316715542521994
1.219941348973607
1.2111436950146628
1.2043010752688172
1.1964809384164223
1.1886608015640274
1.1808406647116323
1.173998044965787
1.1671554252199414
1.1612903225806452
1.1544477028347997
1.1466275659824048
1.13880742913001
1.130987292277615
1.126099706744868
1.1231671554252198
1.118279569892473
1.1133919843597262
1.1085043988269794
1.1036168132942326
1.099706744868035
1.0957966764418376
1.0918866080156402
1.0879765395894427
1.0840664711632453
1.0801564027370478
1.0762463343108504
1.075268817204301
1.0762463343108504
1.075268817204301
1.0733137829912025
1.0703812316715542
1.0684261974584557
1.067448680351906
1.0664711632453567
1.0654936461388074
1.064516129032258
1.064516129032258
1.064516129032258
1.067448680351906
1.0713587487781036
1.0733137829912025
1.0742913000977516
1.075268817204301
1.0772238514173995
1.083088954056696
1.0948191593352885
1.118279569892473
1.1573802541544478
1.2160312805474096
1.2971652003910068
1.4007820136852396
1.5053763440860215
1.6158357771260996
1.75366568914956
1.905180840664712
2.06158357771261
2.2140762463343107
2.355816226783969
2.4819159335288368
2.591397849462365
2.6832844574780057
2.755620723362659
2.812316715542522
2.8484848484848486
2.8690127077223853
2.8856304985337244
