ppg
1.2130987292277615
1.2052785923753666
1.1974584555229717
1.1896383186705768
1.181818181818182
1.1730205278592376
1.164222873900293
1.1583577712609971
1.155425219941349
1.1515151515151516
1.1485826001955035
1.1485826001955035
1.1544477028347997
1.1700879765395895
1.1974584555229717
1.2394916911045943
1.2961876832844574
1.367546432062561
1.455522971652004
1.5571847507331378
1.6549364613880744
1.750733137829912
1.8592375366568916
1.9716520039100685
2.083088954056696
2.190615835777126
2.291300097751711
2.3851417399804498
2.4701857282502444
2.5454545454545454
2.610948191593353
2.668621700879765
2.7096774193548385
2.739980449657869
2.771260997067449
2.80058651026393
2.8260019550342133
2.8455522971652005
2.8582600195503423
2.8641251221896384
2.863147605083089
2.855327468230694
2.8426197458455524
2.823069403714565
2.7947214076246336
2.760508308895406
2.7223851417399803
2.67644183773216
2.6265884652981426
2.573802541544477
2.520039100684262
2.469208211143695
2.420332355816227
2.376344086021505
2.3362658846529816
2.300097751710655
2.267839687194526
2.2404692082111435
2.2170087976539588
2.1925708699902247
2.166177908113392
2.1378299120234603
2.110459433040078
2.0821114369501466
2.053763440860215
2.0234604105571847
1.991202346041056
1.9589442815249267
1.9266862170087975
1.895405669599218
1.869012707722385
1.8455522971652003
1.8201368523949168
1.7927663734115349
1.7653958944281525
1.7380254154447703
1.7126099706744868
1.686217008797654
1.6578690127077225
1.629521016617791
1.603128054740958
1.5796676441837731
1.5620723362658846
1.547409579667644
1.5239491691104594
1.501466275659824
1.4848484848484849
1.4672531769305963
1.4506353861192571
1.434017595307918
1.418377321603128
1.401759530791789
1.3861192570869991
1.3714565004887584
1.3577712609970674
1.348973607038123
1.3401759530791788
1.327468230694037
1.3157380254154447
1.3040078201368523
1.2913000977517106
1.2795698924731185
1.267839687194526
1.2551319648093842
1.2424242424242424
1.2287390029325511
1.2160312805474096
1.2072336265884651
1.2013685239491692
1.1925708699902249
1.181818181818182
1.1710654936461389
1.1622678396871946
1.155425219941349
1.1544477028347997
1.1622678396871946
1.1837732160312806
1.2189638318670577
1.2697947214076246
1.33822091886608
1.4115347018572826
1.4936461388074291
1.5962854349951123
1.7135874877810362
1.8406647116324533
1.9726295210166176
2.103616813294233
2.23069403714565
2.3528836754643208
2.4682306940371457
2.5747800586510263
2.6725317693059627
2.747800586510264
2.8103616813294234
2.874877810361681
2.9374389051808407
2.9960899315738025
3.0498533724340176
3.0977517106549364
3.1407624633431084
3.177908113391984
3.210166177908113
3.2375366568914954
3.2580645161290325
3.264907135874878
3.2639296187683287
3.260019550342131
3.249266862170088
3.23069403714565
3.203323558162268
3.1652003910068425
3.1192570869990224
3.0664711632453567
3.007820136852395
2.946236559139785
2.8856304985337244
2.8269794721407626
2.774193548387097
2.7262952101661777
2.678396871945259
2.590420332355816
2.4858260019550342
2.418377321603128
2.3714565004887587
2.335288367546432
2.303030303030303
2.2737047898338223
2.24633431085044
2.218963831867057
2.1925708699902247
2.166177908113392
2.1388074291300097
2.1114369501466275
2.0840664711632453
2.0547409579667644
2.024437927663734
1.9931573802541545
1.9618768328445748
1.9305962854349952
1.9012707722385145
1.8729227761485825
1.844574780058651
1.818181818181818
1.7947214076246334
1.76930596285435
1.7429130009775171
1.7165200391006843
1.6920821114369502
1.6695992179863148
1.6490713587487782
1.6285434995112416
1.6080156402737047
1.5884652981427174
1.5698924731182795
1.555229716520039
1.541544477028348
1.5249266862170088
1.5073313782991202
1.490713587487781
1.4760508308895406
1.4613880742913
1.447702834799609
1.434017595307918
1.4203323558162269
1.4066471163245358
1.391006842619746
1.3743890518084063
1.3626588465298142
1.3528836754643203
1.3391984359726294
1.324535679374389
1.3088954056695992
1.2903225806451613
1.273704789833822
1.262952101661779
1.2541544477028348
1.2473118279569892
1.2443792766373412
1.2473118279569892
1.2561094819159335
1.2727272727272727
1.300097751710655
1.3411534701857282
1.3958944281524928
1.4633431085043989
1.542521994134897
1.6334310850439884
1.7331378299120237
1.835777126099707
1.9393939393939397
2.0410557184750733
2.139784946236559
2.220918866080156
2.289345063538612
2.360703812316716
2.4281524926686218
2.4916911045943304
2.548387096774193
2.5992179863147604
2.644183773216031
2.6832844574780057
2.716520039100684
2.745845552297165
2.771260997067449
2.7869012707722387
2.795698924731183
2.803519061583578
2.8084066471163247
2.8084066471163247
2.801564027370479
2.787878787878788
2.7673509286412514
2.7390029325513194
2.702834799608993
2.659824046920821
2.611925708699902
2.5610948191593352
2.5131964809384164
2.4701857282502444
2.426197458455523
2.383186705767351
2.3421309872922778
2.3059628543499517
2.2737047898338223
2.244379276637341
2.217986314760508
2.1925708699902247
2.167155425219941
2.1407624633431084
2.1163245356793743
2.093841642228739
2.0684261974584555
2.042033235581622
2.01564027370479
1.988269794721408
1.959921798631476
1.9315738025415443
1.9042033235581624
1.87683284457478
1.8494623655913975
1.822091886608016
1.793743890518084
1.76930596285435
1.7458455522971652
1.7194525904203324
1.6930596285434996
1.6686217008797657
1.6441837732160314
1.6207233626588464
1.598240469208211
1.576735092864125
1.555229716520039
1.533724340175953
1.512218963831867
1.495601173020528
1.4838709677419355
1.4711632453567938
1.457478005865103
1.4437927663734116
1.4301075268817205
1.4164222873900294
1.4027370478983383
1.3890518084066472
1.3763440860215057
1.364613880742913
1.3528836754643203
1.3401759530791788
1.3304007820136852
1.3225806451612905
1.310850439882698
1.2961876832844574
1.281524926686217
1.267839687194526
1.2561094819159335
1.2453567937438903
1.2336265884652982
1.2209188660801564
1.2082111436950147
1.1964809384164223
1.1906158357771262
1.1886608015640274
1.1886608015640274
1.1974584555229717
1.217008797653959
1.249266862170088
1.2942326490713587
1.3528836754643203
1.4242424242424243
1.5063538611925709
1.5972629521016617
1.694037145650049
1.7927663734115349
1.878787878787879
1.9579667644183771
2.042033235581622
2.1251221896383186
2.204301075268817
2.27761485826002
2.345063538611926
2.406647116324536
2.469208211143695
2.520039100684262
2.5532746823069403
2.5835777126099706
2.6041055718475072
2.616813294232649
2.6295210166177907
2.6392961876832843
2.64613880742913
2.649071358748778
2.64613880742913
2.638318670576735
2.6236559139784945
2.601173020527859
2.5718475073313782
2.536656891495601
2.4995112414467253
2.4604105571847508
2.4164222873900294
2.36950146627566
2.32355816226784
2.280547409579668
2.241446725317693
2.206256109481916
2.1739980449657867
2.144672531769306
2.1192570869990224
2.096774193548387
2.0733137829912023
2.050830889540567
2.029325513196481
2.005865102639296
1.9824046920821117
1.9579667644183771
1.9335288367546437
1.90811339198436
1.881720430107527
1.8543499511241448
1.825024437927664
1.7956989247311828
1.7653958944281525
1.7390029325513197
1.715542521994135
1.689149560117302
1.66177908113392
1.6344086021505375
1.6080156402737047
1.5826001955034212
1.5581622678396871
1.533724340175953
1.5112414467253177
1.490713587487781
1.4701857282502444
1.4496578690127078
1.434017595307918
1.4203323558162269
1.4027370478983383
1.3851417399804498
1.3685239491691104
1.3519061583577712
1.3372434017595307
1.3235581622678396
1.3098729227761483
1.2961876832844574
1.281524926686217
1.267839687194526
1.2590420332355816
1.2531769305962854
1.2443792766373412
1.2336265884652982
1.2209188660801564
1.2082111436950147
1.1925708699902249
1.1759530791788857
1.160312805474096
1.1456500488758554
1.099706744868035
1.0381231671554252
1.0
0.9804496578690128
0.9687194525904204
0.9550342130987292
0.9423264907135877
0.9315738025415444
0.9247311827956988
0.9266862170087976
0.9393939393939394
0.967741935483871
1.013685239491691
1.075268817204301
1.1544477028347997
1.2355816226783969
1.3196480938416422
1.4203323558162269
1.5317693059628543
1.6471163245356797
1.7624633431085044
1.873900293255132
1.978494623655914
2.075268817204301
2.1622678396871944
2.2385141739980448
2.3059628543499517
2.364613880742913
2.406647116324536
2.4389051808406648
2.4711632453567938
2.4995112414467253
2.5219941348973607
2.536656891495601
2.5454545454545454
2.547409579667644
2.5434995112414467
2.533724340175953
2.5161290322580645
2.490713587487781
2.4594330400782014
2.4242424242424243
2.380254154447703
2.3304007820136854
2.2795698924731185
2.228739002932551
2.179863147605083
2.134897360703812
2.0928641251221896
2.0557184750733137
2.0234604105571847
1.9931573802541545
1.9608993157380252
1.9345063538611929
1.9159335288367547
1.895405669599218
1.8670576735092863
1.8416422287390029
1.822091886608016
1.7996089931573802
1.7741935483870968
1.747800586510264
1.718475073313783
1.686217008797654
1.6549364613880744
1.629521016617791
1.607038123167155
1.5806451612903225
1.552297165200391
1.5239491691104594
1.495601173020528
1.4672531769305963
1.439882697947214
1.4134897360703813
1.3890518084066472
1.364613880742913
1.3401759530791788
1.316715542521994
1.300097751710655
1.2873900293255132
1.2717497556207231
1.2561094819159335
1.2424242424242424
1.2297165200391007
1.2150537634408602
1.1994134897360704
1.1857282502443791
1.173998044965787
1.164222873900293
1.1564027370478984
1.1534701857282503
1.152492668621701
1.1505376344086022
1.1466275659824048
1.1407624633431086
1.1329423264907137
1.1231671554252198
1.1143695014662756
1.1085043988269794
1.1006842619745845
1.0928641251221896
1.0850439882697946
1.0772238514173995
1.0733137829912025
1.0703812316715542
1.0635386119257086
1.0576735092864125
1.0547409579667644
1.056695992179863
1.0684261974584557
1.0918866080156402
1.1290322580645162
1.1798631476050832
1.2697947214076246
1.3616813294232648
1.4222873900293256
1.4975562072336266
1.5933528836754642
1.699902248289345
1.8132942326490715
1.927663734115347
2.0391006842619745
2.1436950146627565
2.259042033235582
2.355816226783969
2.420332355816227
2.4819159335288368
2.539589442815249
2.582600195503421
2.611925708699902
2.6422287390029324
2.674486803519061
2.7038123167155423
2.721407624633431
2.7311827956989245
2.7331378299120237
2.730205278592375
2.724340175953079
2.7038123167155423
2.670576735092864
2.64613880742913
2.611925708699902
2.5591397849462365
2.50733137829912
2.455522971652004
2.4056695992179864
2.357771260997068
2.3225806451612905
2.286412512218964
2.243401759530792
2.21505376344086
2.187683284457478
2.155425219941349
2.1270772238514173
2.0987292277614857
2.070381231671554
2.042033235581622
2.0146627565982405
1.986314760508309
1.9579667644183771
1.9296187683284456
1.900293255131965
1.8699902248289344
1.8387096774193548
1.812316715542522
1.7888563049853372
1.7634408602150538
1.7350928641251222
1.7057673509286413
1.6764418377321604
1.6471163245356797
1.6207233626588464
1.5933528836754642
1.565982404692082
1.542521994134897
1.520039100684262
1.500488758553275
1.4838709677419355
1.4633431085043989
1.4408602150537635
1.4203323558162269
1.401759530791789
1.3841642228739004
1.364613880742913
1.346041055718475
1.3284457478005864
1.3118279569892473
1.2961876832844574
1.2825024437927663
1.273704789833822
1.267839687194526
1.2580645161290325
1.2473118279569892
1.2355816226783969
1.2238514173998043
1.2121212121212122
1.2003910068426198
1.187683284457478
1.173998044965787
1.160312805474096
1.1456500488758554
1.1368523949169111
1.1290322580645162
1.118279569892473
1.1065493646138806
1.0948191593352885
1.083088954056696
1.072336265884653
1.0625610948191593
1.0557184750733135
1.0557184750733135
1.067448680351906
1.0957966764418376
1.1407624633431086
1.1945259042033236
1.2590420332355816
1.3440860215053765
1.444770283479961
1.5581622678396871
1.6793743890518085
1.8064516129032255
1.935483870967742
2.064516129032258
2.189638318670577
2.3098729227761488
2.421309872922776
2.509286412512219
2.581622678396872
2.6578690127077222
2.732160312805474
2.8025415444770285
2.8670576735092865
2.924731182795699
2.975562072336266
3.0195503421309877
3.058651026392962
3.0928641251221896
3.121212121212121
3.142717497556207
3.1524926686217007
3.1544477028347995
3.155425219941349
3.1524926686217007
3.142717497556207
3.12316715542522
3.0928641251221896
3.053763440860215
3.006842619745845
2.952101661779081
2.89247311827957
2.83088954056696
2.774193548387097
2.721407624633431
2.6695992179863146
2.619745845552297
2.548387096774193
2.4711632453567938
2.4164222873900294
2.3734115347018574
2.3382209188660803
2.3059628543499517
2.275659824046921
2.247311827956989
2.219941348973607
2.1955034213098727
2.16911045943304
2.1407624633431084
2.1114369501466275
2.080156402737048
2.04594330400782
2.0117302052785924
1.978494623655914
1.946236559139785
1.913978494623656
1.8826979472140764
1.8523949169110456
1.8269794721407624
1.804496578690127
1.7810361681329423
1.7546432062561097
1.7272727272727273
1.699902248289345
1.6735092864125125
1.6480938416422288
1.6236559139784943
1.5992179863147604
1.576735092864125
1.5562072336265884
1.5347018572825024
1.517106549364614
1.5034213098729228
1.4868035190615836
1.4701857282502444
1.4535679374389052
1.4379276637341154
1.423264907135875
1.4086021505376345
1.392961876832845
1.3763440860215057
1.3587487781036167
1.3401759530791788
1.327468230694037
1.3176930596285434
1.3049853372434017
1.289345063538612
1.273704789833822
1.2580645161290325
1.241446725317693
1.2258064516129032
1.2111436950146628
1.1974584555229717
1.1867057673509287
1.1788856304985338
1.1749755620723363
1.1779081133919844
1.1906158357771262
1.2140762463343109
1.2512218963831867
1.3040078201368523
1.370478983382209
1.4496578690127078
1.5395894428152492
1.6363636363636365
1.7390029325513197
1.8455522971652003
1.949169110459433
2.0361681329423265
2.113391984359726
2.1955034213098727
2.275659824046921
2.3499511241446727
2.418377321603128
2.4809384164222874
2.539589442815249
2.593352883675464
2.6402737047898337
2.6823069403714563
2.719452590420332
2.7497556207233624
2.768328445747801
2.779081133919844
2.789833822091887
2.7966764418377323
2.798631476050831
2.793743890518084
2.7839687194525906
2.768328445747801
2.744868035190616
2.713587487781036
2.674486803519061
2.6285434995112413
2.582600195503421
2.535679374389052
2.484848484848485
2.434017595307918
2.386119257086999
2.3411534701857284
2.2981427174975564
2.260997067448681
2.228739002932551
2.20039100684262
2.1739980449657867
2.146627565982405
2.120234604105572
2.0957966764418376
2.072336265884653
2.04594330400782
2.0195503421309877
1.9931573802541545
1.963831867057673
1.9335288367546437
1.903225806451613
1.873900293255132
1.8435972629521016
1.8132942326490715
1.7839687194525904
1.7595307917888563
1.7350928641251222
1.70772238514174
1.6793743890518085
1.6529814271749756
1.629521016617791
1.606060606060606
1.5826001955034212
1.5610948191593352
1.5405669599217986
1.5190615835777126
1.4965786901270772
1.474095796676442
1.456500488758553
1.4418377321603129
1.426197458455523
1.409579667644184
1.3949169110459434
1.380254154447703
1.3636363636363635
1.3470185728250244
1.3333333333333333
1.3206256109481915
1.3069403714565004
1.29227761485826
1.2805474095796676
1.2697947214076246
1.2561094819159335
1.2404692082111437
1.2238514173998043
1.2082111436950147
1.1935483870967742
1.1788856304985338
1.164222873900293
1.1505376344086022
1.1358748778103618
1.1221896383186705
1.1143695014662756
1.110459433040078
1.1065493646138806
1.104594330400782
1.1065493646138806
1.1173020527859236
1.13880742913001
1.1720430107526882
1.219941348973607
1.2825024437927663
1.3577712609970674
1.4437927663734116
1.5376344086021505
1.6256109481915937
1.7096774193548387
1.804496578690127
1.902248289345064
1.9980449657869013
2.0879765395894427
2.1700879765395893
2.2453567937438903
2.314760508308896
2.376344086021505
2.4330400782013686
2.4838709677419355
2.520039100684262
2.548387096774193
2.5777126099706744
2.606060606060606
2.6295210166177907
2.6471163245356792
2.6578690127077222
2.6608015640273703
2.656891495601173
2.6471163245356792
2.63049853372434
2.606060606060606
2.575757575757576
2.5434995112414467
2.5083088954056696
2.4672531769305963
2.423264907135875
2.3792766373411536
2.335288367546432
2.29227761485826
2.2502443792766376
2.210166177908113
2.1730205278592374
2.139784946236559
2.110459433040078
2.0869990224828934
2.0664711632453567
2.0439882697947214
2.021505376344086
1.9980449657869013
1.9736070381231672
1.949169110459433
1.924731182795699
1.8983382209188664
1.870967741935484
1.8435972629521016
1.81524926686217
1.7869012707722385
1.7624633431085044
1.7380254154447703
1.710654936461388
1.683284457478006
1.656891495601173
1.6334310850439884
1.6109481915933528
1.587487781036168
1.564027370478983
1.542521994134897
1.521016617790811
1.498533724340176
1.479960899315738
1.4643206256109482
1.4467253176930597
1.4291300097751711
1.4115347018572826
1.3958944281524928
1.3792766373411536
1.3616813294232648
1.346041055718475
1.3333333333333333
1.3196480938416422
1.305962854349951
1.29227761485826
1.2825024437927663
1.2746823069403714
1.2639296187683284
1.2512218963831867
1.2375366568914956
1.224828934506354
1.2130987292277615
1.1994134897360704
1.1857282502443791
1.1720430107526882
1.133919843597263
1.0840664711632453
1.0557184750733135
1.0381231671554252
1.0224828934506354
1.007820136852395
0.9951124144672532
0.9863147605083088
0.981427174975562
0.9843597262952102
0.9980449657869012
1.024437927663734
1.0664711632453567
1.126099706744868
1.2003910068426198
1.2776148582600195
1.3616813294232648
1.4633431085043989
1.576735092864125
1.6959921798631477
1.8162267839687196
1.9335288367546437
2.04594330400782
2.1524926686217007
2.251221896383187
2.3391984359726297
2.4164222873900294
2.4760508308895406
2.5249266862170088
2.5747800586510263
2.621700879765396
2.6637341153470184
2.6989247311827955
2.729227761485826
2.752688172043011
2.76930596285435
2.780058651026393
2.782013685239492
2.776148582600196
2.7614858260019552
2.73802541544477
2.708699902248289
2.6715542521994133
2.6295210166177907
2.582600195503421
2.532746823069404
2.4809384164222874
2.4301075268817205
2.380254154447703
2.334310850439883
2.29227761485826
2.2521994134897363
2.218963831867057
2.189638318670577
2.160312805474096
2.131964809384164
2.102639296187683
2.074291300097752
2.047898338220919
2.0205278592375366
1.992179863147605
1.963831867057673
1.935483870967742
1.90811339198436
1.8797653958944285
1.8533724340175952
1.827956989247312
1.7996089931573802
1.7712609970674489
1.739980449657869
1.7067448680351909
1.6735092864125125
1.6392961876832846
1.607038123167155
1.576735092864125
1.5493646138807429
1.52297165200391
1.5024437927663734
1.4858260019550342
1.466275659824047
1.4437927663734116
1.4193548387096775
1.3958944281524928
1.3724340175953078
1.3479960899315735
1.324535679374389
1.3010752688172045
1.2795698924731185
1.262952101661779
1.2473118279569892
1.2355816226783969
1.224828934506354
1.2101661779081134
1.1925708699902249
1.1730205278592376
1.1534701857282503
1.1358748778103618
1.118279569892473
1.1016617790811338
1.0840664711632453
1.067448680351906
1.0498533724340176
1.0361681329423265
1.0254154447702837
1.010752688172043
0.9951124144672532
0.9794721407624634
0.9648093841642228
0.9501466275659824
0.9364613880742912
0.9237536656891496
0.9159335288367546
0.913978494623656
0.9217986314760508
0.9403714565004888
0.9706744868035192
1.0156402737047898
1.0772238514173995
1.1534701857282503
1.2434017595307918
1.3450635386119256
1.456500488758553
1.576735092864125
1.7008797653958945
1.822091886608016
1.93841642228739
2.047898338220919
2.136852394916911
2.2111436950146626
2.2883675464320627
2.361681329423265
2.429130009775171
2.4887585532746823
2.539589442815249
2.582600195503421
2.6177908113391983
2.64613880742913
2.668621700879765
2.684261974584555
2.6901270772238512
2.689149560117302
2.684261974584555
2.6725317693059627
2.6510263929618767
2.619745845552297
2.582600195503421
2.5386119257087
2.490713587487781
2.4389051808406648
2.386119257086999
2.335288367546432
2.286412512218964
2.243401759530792
2.203323558162268
2.163245356793744
2.126099706744868
2.09188660801564
2.059628543499511
2.029325513196481
1.9990224828934504
1.9687194525904204
1.9403714565004888
1.913978494623656
1.8875855327468232
1.8641251221896384
1.839687194525904
1.8113391984359728
1.782991202346041
1.7546432062561097
1.7233626588465298
1.6901270772238517
1.6559139784946235
1.6226783968719452
1.5894428152492668
1.5571847507331378
1.5249266862170088
1.4916911045943304
1.4643206256109482
1.4418377321603129
1.4164222873900294
1.391006842619746
1.3665689149560116
1.3440860215053765
1.3225806451612905
1.300097751710655
1.2776148582600195
1.2551319648093842
1.2326490713587488
1.2101661779081134
1.1935483870967742
1.1798631476050832
1.163245356793744
1.1485826001955035
1.1348973607038124
1.121212121212121
1.1065493646138806
1.0909090909090908
1.075268817204301
1.0586510263929618
1.0420332355816226
1.0263929618768328
1.0117302052785924
1.0039100684261977
0.997067448680352
0.9853372434017597
0.9726295210166178
0.959921798631476
0.9472140762463344
0.9335288367546432
0.9188660801564028
0.9022482893450636
0.8885630498533724
0.8768328445747801
0.8690127077223851
0.8690127077223851
0.8768328445747801
0.8924731182795699
0.9208211143695014
0.9648093841642228
1.0254154447702837
1.1036168132942326
1.1964809384164223
1.3020527859237536
1.4193548387096775
1.543499511241447
1.6695992179863148
1.793743890518084
1.900293255131965
1.994134897360704
2.0928641251221896
2.187683284457478
2.275659824046921
2.355816226783969
2.4252199413489737
2.484848484848485
2.535679374389052
2.5777126099706744
2.6129032258064515
2.6422287390029324
2.6608015640273703
2.6715542521994133
2.679374389051808
2.6832844574780057
2.681329423264907
2.6715542521994133
2.654936461388074
2.6295210166177907
2.5972629521016617
2.560117302052786
2.5180840664711632
2.4711632453567938
2.4242424242424243
2.3812316715542523
2.343108504398827
2.304985337243402
2.269794721407625
2.2844574780058653
2.324535679374389
2.3313782991202348
2.3225806451612905
2.3059628543499517
2.2844574780058653
2.26197458455523
2.2404692082111435
2.219941348973607
2.1974584555229715
2.1710654936461387
2.1417399804496577
2.1094819159335287
2.075268817204301
2.0410557184750733
2.007820136852395
1.978494623655914
1.9501466275659824
1.920821114369501
1.8914956011730208
1.8621700879765395
1.8387096774193548
1.818181818181818
1.7947214076246334
1.76930596285435
1.7419354838709675
1.7165200391006843
1.6930596285434996
1.6705767350928642
1.6471163245356797
1.6226783968719452
1.598240469208211
1.5747800586510263
1.5571847507331378
1.542521994134897
1.5268817204301075
1.5102639296187683
1.4926686217008798
1.4750733137829912
1.457478005865103
1.4418377321603129
1.4271749755620724
1.4115347018572826
1.3949169110459434
1.3792766373411536
1.3655913978494625
1.3558162267839686
1.348973607038123
1.3391984359726294
1.3255131964809383
1.3088954056695992
1.29227761485826
1.2746823069403714
1.2570869990224829
1.2394916911045943
1.2228739002932552
1.2052785923753666
1.1896383186705768
1.1827956989247312
1.1837732160312806
1.1886608015640274
1.2023460410557183
1.2287390029325511
1.2717497556207231
1.332355816226784
1.4115347018572826
1.509286412512219
