ppg
2.881720430107527
2.8826979472140764
2.8836754643206257
2.8836754643206257
2.8807429130009776
2.874877810361681
2.866080156402737
2.855327468230694
2.841642228739003
2.825024437927664
2.803519061583578
2.777126099706745
2.744868035190616
2.70772238514174
2.665689149560117
2.6177908113391983
2.5640273704789838
2.5131964809384164
2.462365591397849
2.403714565004888
2.3382209188660803
2.2688172043010755
2.196480938416422
2.121212121212121
2.0439882697947214
1.9657869012707725
1.8875855327468232
1.8103616813294232
1.7350928641251222
1.6735092864125125
1.6207233626588464
1.5620723362658846
1.501466275659824
1.4418377321603129
1.383186705767351
1.3255131964809383
1.2697947214076246
1.2160312805474096
1.166177908113392
1.121212121212121
1.0821114369501466
1.0498533724340176
1.0312805474095796
1.024437927663734
1.021505376344086
1.0283479960899315
1.04594330400782
1.0733137829912025
1.1114369501466277
1.160312805474096
1.2179863147605083
1.2825024437927663
1.3528836754643203
1.4281524926686218
1.4975562072336266
1.5650048875855327
1.6383186705767352
1.7135874877810362
1.7888563049853372
1.8641251221896384
1.9393939393939397
2.0127077223851417
2.085043988269794
2.1544477028347995
2.2218963831867056
2.2873900293255134
2.3499511241446727
2.401759530791789
2.4457478005865103
2.490713587487781
2.533724340175953
2.5718475073313782
2.606060606060606
2.636363636363636
2.66177908113392
2.684261974584555
2.704789833822092
2.7223851417399803
2.73802541544477
2.7497556207233624
2.758553274682307
2.768328445747801
2.780058651026393
2.790811339198436
2.798631476050831
2.8025415444770285
2.801564027370479
2.7966764418377323
2.7869012707722387
2.771260997067449
2.7497556207233624
2.7223851417399803
2.6930596285435
2.659824046920821
2.618768328445748
2.572825024437928
2.5239491691104594
2.472140762463343
2.419354838709677
2.3655913978494625
2.3098729227761488
2.254154447702835
2.198435972629521
2.12316715542522
2.046920821114369
1.9902248289345064
1.9364613880742916
1.8836754643206255
1.8328445747800584
1.7839687194525904
1.737047898338221
1.6930596285434996
1.6520039100684265
1.6138807429130009
1.5796676441837731
1.5493646138807429
1.52297165200391
1.504398826979472
1.4926686217008798
1.482893450635386
1.47702834799609
1.47702834799609
1.4858260019550342
1.5034213098729228
1.5298142717497556
1.565982404692082
1.611925708699902
1.6666666666666667
1.729227761485826
1.7888563049853372
1.847507331378299
1.913978494623656
1.9843597262952104
2.056695992179863
2.1300097751710654
2.2023460410557183
2.272727272727273
2.340175953079179
2.4056695992179864
2.4701857282502444
2.5317693059628543
2.591397849462365
2.6392961876832843
2.679374389051808
2.721407624633431
2.7624633431085046
2.7996089931573804
2.831867057673509
2.8582600195503423
2.878787878787879
2.89247311827957
2.900293255131965
2.905180840664712
2.9071358748778104
2.905180840664712
2.9012707722385143
2.900293255131965
2.900293255131965
2.9012707722385143
2.902248289345064
2.903225806451613
2.903225806451613
2.9012707722385143
2.8963831867057674
2.8885630498533725
2.877810361681329
2.863147605083089
2.844574780058651
2.822091886608016
2.795698924731183
2.766373411534702
2.732160312805474
2.6940371456500487
2.6510263929618767
2.6021505376344085
2.549364613880743
2.4916911045943304
2.43108504398827
2.3685239491691106
2.3118279569892475
2.2580645161290325
2.1974584555229715
2.133919843597263
2.069403714565005
2.005865102639296
1.943304007820137
1.881720430107527
1.822091886608016
1.7644183773216031
1.7086999022482894
1.6549364613880744
1.6021505376344083
1.560117302052786
1.5249266862170088
1.4858260019550342
1.4486803519061584
1.41544477028348
1.3870967741935485
1.3655913978494625
1.3528836754643203
1.3499511241446724
1.3577712609970674
1.3773216031280548
1.4086021505376345
1.4467253176930597
1.4916911045943304
1.547409579667644
1.6099706744868034
1.678396871945259
1.750733137829912
1.825024437927664
1.900293255131965
1.9745845552297163
2.046920821114369
2.1192570869990224
2.190615835777126
2.26197458455523
2.3225806451612905
2.376344086021505
2.436950146627566
2.4995112414467253
2.560117302052786
2.618768328445748
2.674486803519061
2.7253176930596283
2.771260997067449
2.8103616813294234
2.841642228739003
2.865102639296188
2.878787878787879
2.884652981427175
2.8885630498533725
2.8914956011730206
2.89345063538612
2.8963831867057674
2.898338220918866
2.900293255131965
2.902248289345064
2.902248289345064
2.900293255131965
2.895405669599218
2.886608015640274
2.873900293255132
2.8582600195503423
2.8396871945259043
2.81622678396872
2.787878787878788
2.7536656891495603
2.7155425219941347
2.6725317693059627
2.6236559139784945
2.5698924731182795
2.5112414467253177
2.449657869012708
2.3929618768328447
2.3382209188660803
2.275659824046921
2.209188660801564
2.139784946236559
2.069403714565005
1.9990224828934504
1.9286412512218964
1.858260019550342
1.7888563049853372
1.721407624633431
1.6559139784946235
1.6021505376344083
1.555229716520039
1.501466275659824
1.4467253176930597
1.392961876832845
1.3421309872922775
1.295210166177908
1.2531769305962854
1.2160312805474096
1.18475073313783
1.1593352883675463
1.142717497556207
1.1358748778103618
1.141739980449658
1.1573802541544478
1.181818181818182
1.217008797653959
1.262952101661779
1.3176930596285434
1.3782991202346042
1.444770283479961
1.5151515151515151
1.587487781036168
1.6608015640273706
1.7341153470185728
1.8005865102639296
1.8631476050830889
1.9296187683284456
1.9980449657869013
2.067448680351906
2.136852394916911
2.206256109481916
2.274682306940372
2.340175953079179
2.4027370478983383
2.462365591397849
2.517106549364614
2.5669599217986314
2.6041055718475072
2.633431085043988
2.66177908113392
2.686217008797654
2.705767350928641
2.721407624633431
2.732160312805474
2.739980449657869
2.7468230694037143
2.7536656891495603
2.760508308895406
2.7673509286412514
2.7702834799608995
2.771260997067449
2.773216031280548
2.774193548387097
2.7722385141739982
2.766373411534702
2.755620723362659
2.739980449657869
2.718475073313783
2.69208211143695
2.6608015640273703
2.6236559139784945
2.579667644183773
2.536656891495601
2.49266862170088
2.441837732160313
2.386119257086999
2.326490713587488
2.264907135874878
2.203323558162268
2.1407624633431084
2.0791788856304985
2.018572825024438
1.9589442815249267
1.9012707722385145
1.8533724340175952
1.8103616813294232
1.7634408602150538
1.7165200391006843
1.6705767350928642
1.6285434995112416
1.5894428152492668
1.555229716520039
1.525904203323558
1.501466275659824
1.4819159335288368
1.4682306940371457
1.4613880742913
1.4633431085043989
1.4731182795698925
1.4897360703812317
1.5141739980449658
1.547409579667644
1.5757575757575757
1.607038123167155
1.6588465298142718
1.7243401759530792
1.7976539589442817
1.87683284457478
1.9589442815249267
2.032258064516129
2.1006842619745845
2.175953079178885
2.2551319648093844
2.334310850439883
2.4144672531769307
2.493646138807429
2.570869990224829
2.6451612903225805
2.7145650048875853
2.780058651026393
2.841642228739003
2.8963831867057674
2.936461388074292
2.9657869012707723
2.995112414467253
3.0205278592375366
3.0391006842619745
3.0518084066471163
3.058651026392962
3.06158357771261
3.0625610948191597
3.0635386119257086
3.064516129032258
3.067448680351906
3.067448680351906
3.064516129032258
3.064516129032258
3.064516129032258
3.0635386119257086
3.059628543499511
3.0518084066471163
3.040078201368524
3.0234604105571847
3.0019550342130987
2.975562072336266
2.9442815249266863
2.9071358748778104
2.868035190615836
2.825024437927664
2.7751710654936463
2.718475073313783
2.656891495601173
2.590420332355816
2.520039100684262
2.44672531769306
2.3704789833822093
2.2932551319648096
2.2160312805474094
2.139784946236559
2.0733137829912023
2.0127077223851417
1.945259042033236
1.8758553274682308
1.8064516129032255
1.7380254154447703
1.6715542521994136
1.6080156402737047
1.5483870967741935
1.490713587487781
1.435972629521017
1.3851417399804498
1.3391984359726294
1.3049853372434017
1.2795698924731185
1.2541544477028348
1.2336265884652982
1.2209188660801564
1.2189638318670577
1.2287390029325511
1.252199413489736
1.2883675464320623
1.3362658846529814
1.3958944281524928
1.4652981427174976
1.533724340175953
1.6021505376344083
1.6793743890518085
1.761485826001955
1.8435972629521016
1.9266862170087975
2.0087976539589443
2.0879765395894427
2.1652003910068425
2.2404692082111435
2.312805474095797
2.3822091886608017
2.4486803519061584
2.5034213098729228
2.5513196480938416
2.6041055718475072
2.6559139784946235
2.704789833822092
2.747800586510264
2.7839687194525906
2.8132942326490715
2.835777126099707
2.852394916911046
2.865102639296188
2.873900293255132
2.877810361681329
2.878787878787879
2.881720430107527
2.884652981427175
2.887585532746823
2.8885630498533725
2.8885630498533725
2.8856304985337244
2.8807429130009776
2.8729227761485827
2.8611925708699903
2.843597262952102
2.823069403714565
2.7976539589442817
2.7673509286412514
2.7311827956989245
2.689149560117302
2.641251221896383
2.587487781036168
2.527859237536657
2.463343108504399
2.393939393939394
2.321603128054741
2.24633431085044
2.1710654936461387
2.1055718475073317
2.0449657869012707
1.9765395894428155
1.905180840664712
1.833822091886608
1.7282502443792769
1.6598240469208212
1.5923753665689149
1.4946236559139785
1.4330400782013686
1.3743890518084063
1.327468230694037
1.289345063538612
1.2473118279569892
1.2052785923753666
1.166177908113392
1.1173020527859236
1.0928641251221896
1.0772238514173995
1.072336265884653
1.0840664711632453
1.10752688172043
1.144672531769306
1.1886608015640274
1.2394916911045943
1.3020527859237536
1.3734115347018572
1.4506353861192571
1.5327468230694037
1.616813294232649
1.7028347996089932
1.7878787878787878
1.8729227761485825
1.956989247311828
2.0391006842619745
2.110459433040078
2.175953079178885
2.247311827956989
2.320625610948192
2.426197458455523
2.4946236559139785
2.560117302052786
2.6510263929618767
2.702834799608993
2.7468230694037143
2.782013685239492
2.8084066471163247
2.8240469208211145
2.831867057673509
2.8377321603128056
2.841642228739003
2.843597262952102
2.84652981427175
2.849462365591398
2.852394916911046
2.855327468230694
2.857282502443793
2.8563049853372435
2.852394916911046
2.8426197458455524
2.8289345063538613
2.8103616813294234
2.7859237536656893
2.7546432062561097
2.716520039100684
2.6715542521994133
2.619745845552297
2.5620723362658846
2.4975562072336266
2.4271749755620724
2.3519061583577714
2.2737047898338223
2.203323558162268
2.136852394916911
2.06158357771261
1.9824046920821117
1.902248289345064
1.823069403714565
1.7448680351906158
1.6666666666666667
1.5913978494623655
1.5180840664711632
1.447702834799609
1.380254154447703
1.327468230694037
1.2825024437927663
1.2316715542521994
1.1808406647116323
1.1319648093841643
1.086021505376344
1.0439882697947214
1.0068426197458455
0.9765395894428152
0.95405669599218
0.9403714565004888
0.9374389051808406
0.9452590420332356
0.9638318670576737
0.9921798631476052
1.0312805474095796
1.0801564027370478
1.13880742913001
1.2052785923753666
1.2795698924731185
1.359726295210166
1.444770283479961
1.5317693059628543
1.6207233626588464
1.7096774193548387
1.7888563049853372
1.8631476050830889
1.943304007820137
2.0254154447702835
2.10850439882698
2.1925708699902247
2.275659824046921
2.356793743890518
2.434017595307918
2.506353861192571
2.573802541544477
2.635386119257087
2.67644183773216
2.70772238514174
2.7282502443792764
2.750733137829912
2.780058651026393
2.795698924731183
2.8084066471163247
2.820136852394917
2.83088954056696
2.841642228739003
2.852394916911046
2.863147605083089
2.8690127077223853
2.8729227761485827
2.87683284457478
2.8797653958944283
2.8807429130009776
2.878787878787879
2.8719452590420333
2.8611925708699903
2.8455522971652005
2.825024437927664
2.798631476050831
2.7673509286412514
2.730205278592375
2.6930596285435
2.653958944281525
2.608993157380254
2.558162267839687
2.5024437927663734
2.442815249266862
2.3792766373411536
2.313782991202346
2.247311827956989
2.179863147605083
2.112414467253177
2.0449657869012707
1.9872922776148585
1.935483870967742
1.878787878787879
1.822091886608016
1.7644183773216031
1.7086999022482894
1.6549364613880744
1.603128054740958
1.5542521994134897
1.509286412512219
1.4682306940371457
1.4330400782013686
1.404692082111437
1.3870967741935485
1.3782991202346042
1.3743890518084063
1.3782991202346042
1.392961876832845
1.4203323558162269
1.4604105571847508
1.5112414467253177
1.5728250244379276
1.6412512218963833
1.7145650048875856
1.7917888563049853
1.86119257086999
1.9266862170087975
2.0
2.075268817204301
2.150537634408602
2.2248289345063537
2.2981427174975564
2.3685239491691106
2.436950146627566
2.5024437927663734
2.5640273704789838
2.6236559139784945
2.679374389051808
2.7223851417399803
2.757575757575758
2.793743890518084
2.8260019550342133
2.852394916911046
2.8719452590420333
2.8856304985337244
2.895405669599218
2.902248289345064
2.906158357771261
2.9100684261974585
2.913978494623656
2.913978494623656
2.9120234604105573
2.9120234604105573
2.913000977517106
2.913000977517106
2.9100684261974585
2.905180840664712
2.8963831867057674
2.884652981427175
2.8670576735092865
2.844574780058651
2.817204301075269
2.7869012707722387
2.7536656891495603
2.713587487781036
2.665689149560117
2.6129032258064515
2.555229716520039
2.49266862170088
2.4271749755620724
2.358748778103617
2.2883675464320627
2.217986314760508
2.146627565982405
2.075268817204301
2.0127077223851417
1.9550342130987293
1.8914956011730208
1.826001955034213
1.7605083088954057
1.696969696969697
1.635386119257087
1.5757575757575757
1.5180840664711632
1.4623655913978495
1.409579667644184
1.3607038123167154
1.3235581622678396
1.2932551319648091
1.260019550342131
1.2297165200391007
1.2043010752688172
1.1867057673509287
1.1798631476050832
1.1837732160312806
1.2003910068426198
1.2297165200391007
1.270772238514174
1.321603128054741
1.3812316715542523
1.439882697947214
1.499511241446725
1.5679374389051808
1.6412512218963833
1.7165200391006843
1.790811339198436
1.865102639296188
1.9374389051808407
2.007820136852395
2.0762463343108504
2.1417399804496577
2.206256109481916
2.260019550342131
2.3069403714565007
2.356793743890518
2.407624633431085
2.4565004887585533
2.501466275659824
2.5405669599217986
2.573802541544477
2.60019550342131
2.619745845552297
2.632453567937439
2.6422287390029324
2.649071358748778
2.652003910068426
2.6529814271749754
2.654936461388074
2.658846529814272
2.6637341153470184
2.667644183773216
2.670576735092864
2.6715542521994133
2.668621700879765
2.66177908113392
2.649071358748778
2.63049853372434
2.6080156402737047
2.5806451612903225
2.544477028347996
2.501466275659824
2.452590420332356
2.3978494623655915
2.337243401759531
2.272727272727273
2.2052785923753664
2.134897360703812
2.0625610948191597
1.988269794721408
1.913978494623656
1.8504398826979471
1.7927663734115349
1.7282502443792769
1.6608015640273706
1.5923753665689149
1.5239491691104594
1.458455522971652
1.393939393939394
1.332355816226784
1.273704789833822
1.2179863147605083
1.1671554252199414
1.1300097751710656
1.1006842619745845
1.067448680351906
1.035190615835777
1.0058651026392962
0.9833822091886608
0.967741935483871
0.9608993157380256
0.9648093841642228
0.981427174975562
1.0097751710654936
1.0488758553274682
1.0987292277614855
1.1534701857282503
1.2121212121212122
1.2795698924731185
1.3548387096774193
1.434017595307918
1.5151515151515151
1.598240469208211
1.6823069403714566
1.7673509286412512
1.8523949169110456
1.935483870967742
2.0175953079178885
2.088954056695992
2.1544477028347995
2.2248289345063537
2.2981427174975564
2.3704789833822093
2.441837732160313
2.5102639296187683
2.5747800586510263
2.633431085043988
2.6852394916911044
2.729227761485826
2.766373411534702
2.795698924731183
2.814271749755621
2.8260019550342133
2.838709677419355
2.850439882697948
2.86217008797654
2.8729227761485827
2.8836754643206257
2.89345063538612
2.902248289345064
2.9100684261974585
2.9159335288367547
2.919843597262952
2.917888563049853
2.9120234604105573
2.905180840664712
2.8944281524926687
2.8797653958944283
2.860215053763441
2.855327468230694
2.854349951124145
2.832844574780059
2.7996089931573804
2.757575757575758
2.708699902248289
2.6559139784946235
2.6050830889540566
2.5532746823069403
2.493646138807429
2.4301075268817205
2.363636363636364
2.2952101661779083
2.225806451612903
2.157380254154448
2.089931573802541
2.0234604105571847
1.9579667644183771
1.895405669599218
1.844574780058651
1.8005865102639296
1.7517106549364614
1.7028347996089932
1.6559139784946235
1.6129032258064515
1.5747800586510263
1.542521994134897
1.517106549364614
1.499511241446725
1.490713587487781
1.490713587487781
1.499511241446725
1.517106549364614
1.541544477028348
1.5757575757575757
1.6207233626588464
1.6744868035190617
1.7360703812316716
1.8054740957966764
1.8797653958944285
1.956989247311828
2.035190615835777
2.114369501466276
2.1925708699902247
2.260019550342131
2.320625610948192
2.386119257086999
2.453567937438905
2.5210166177908118
2.587487781036168
2.652003910068426
2.713587487781036
2.7702834799608995
2.822091886608016
2.868035190615836
2.9071358748778104
2.9335288367546437
2.951124144672532
2.967741935483871
2.981427174975562
2.991202346041056
2.9980449657869013
3.002932551319648
3.005865102639296
3.0087976539589443
3.0127077223851417
3.01564027370479
3.016617790811339
3.0175953079178885
3.0146627565982405
3.0087976539589443
3.002932551319648
2.995112414467253
2.98435972629521
2.9696969696969697
2.951124144672532
2.9286412512218964
2.900293255131965
2.866080156402737
2.8260019550342133
2.779081133919844
2.732160312805474
2.6832844574780057
2.625610948191593
2.5610948191593352
2.4916911045943304
2.420332355816227
2.3489736070381237
2.2766373411534704
2.204301075268817
2.131964809384164
2.060606060606061
1.9902248289345064
1.920821114369501
1.8631476050830889
1.812316715542522
1.7565982404692082
1.6989247311827955
1.6422287390029326
1.5894428152492668
1.541544477028348
1.499511241446725
1.4652981427174976
1.4389051808406648
1.4222873900293256
1.414467253176931
1.4173998044965788
1.4291300097751711
1.4486803519061584
1.4750733137829912
1.5073313782991202
1.5464320625610948
1.5894428152492668
1.6363636363636365
1.6842619745845553
1.7331378299120237
1.782991202346041
1.8318670576735088
1.8797653958944285
1.921798631476051
1.9608993157380252
2.0019550342130987
2.043010752688172
2.083088954056696
2.12316715542522
2.160312805474096
2.1945259042033234
2.225806451612903
2.254154447702835
2.2795698924731185
2.302052785923754
2.3196480938416424
2.334310850439883
2.350928641251222
2.3685239491691106
2.3851417399804498
2.401759530791789
2.418377321603128
2.434017595307918
2.447702834799609
2.4613880742913
2.4731182795698925
2.482893450635386
2.4916911045943304
2.4975562072336266
2.5004887585532747
2.5024437927663734
2.5024437927663734
2.5004887585532747
2.495601173020528
2.4858260019550342
2.472140762463343
2.453567937438905
2.4301075268817205
2.39980449657869
2.364613880742913
2.3304007820136854
2.294232649071359
2.249266862170088
2.196480938416422
2.1378299120234603
2.075268817204301
2.0097751710654936
1.9423264907135875
1.873900293255132
1.8054740957966764
1.737047898338221
1.6686217008797657
1.6021505376344083
1.547409579667644
1.499511241446725
1.444770283479961
1.388074291300098
1.3304007820136852
1.2756598240469208
1.2238514173998043
1.1749755620723363
1.1280547409579669
1.086021505376344
1.0469208211143697
1.0117302052785924
0.9882697947214076
0.9736070381231672
0.9579667644183774
0.9472140762463344
0.9433040078201368
0.9501466275659824
0.967741935483871
0.997067448680352
1.0381231671554252
1.0909090909090908
1.1534701857282503
1.2258064516129032
1.305962854349951
1.3822091886608017
1.457478005865103
1.542521994134897
1.6344086021505375
1.729227761485826
1.8240469208211143
1.919843597262952
2.0146627565982405
2.10850439882698
2.201368523949169
2.2932551319648096
2.383186705767351
2.4594330400782014
2.527859237536657
2.603128054740958
2.678396871945259
2.750733137829912
2.8181818181818183
2.878787878787879
2.9335288367546437
2.9804496578690127
3.0195503421309877
3.050830889540567
3.074291300097752
3.0928641251221896
3.102639296187683
3.10752688172043
3.113391984359726
3.121212121212121
3.129032258064516
3.1378299120234603
3.145650048875855
3.1524926686217007
3.157380254154448
3.158357771260997
3.156402737047898
3.1515151515151514
3.1407624633431084
3.126099706744868
3.1094819159335287
3.090909090909091
3.0684261974584555
3.0410557184750733
3.0087976539589443
2.970674486803519
2.927663734115347
2.878787878787879
2.825024437927664
2.766373411534702
2.7038123167155423
2.64613880742913
2.589442815249267
2.5249266862170088
2.4565004887585533
2.3851417399804498
2.312805474095797
2.2404692082111435
2.1700879765395893
2.101661779081134
2.035190615835777
1.9716520039100685
1.911045943304008
1.8563049853372435
1.8074291300097751
1.7595307917888563
1.7145650048875856
1.6735092864125125
1.6373411534701858
1.6050830889540566
1.5796676441837731
1.5620723362658846
1.5542521994134897
1.5562072336265884
1.56891495601173
1.5913978494623655
1.6207233626588464
1.6559139784946235
1.699902248289345
1.7517106549364614
1.8093841642228736
1.8699902248289344
1.9335288367546437
1.9990224828934504
2.065493646138808
2.1309872922776147
2.1955034213098727
2.2580645161290325
2.310850439882698
2.356793743890518
2.406647116324536
2.4565004887585533
2.505376344086021
2.552297165200391
2.5943304007820136
2.63049853372434
2.66177908113392
2.687194525904203
2.70772238514174
2.7233626588465296
2.7311827956989245
2.735092864125122
2.7390029325513194
2.742913000977517
2.747800586510264
2.7536656891495603
2.7595307917888565
2.764418377321604
2.7673509286412514
2.76930596285435
2.7702834799608995
2.768328445747801
2.764418377321604
2.7565982404692084
2.745845552297165
2.7331378299120237
2.718475073313783
2.699902248289345
2.677419354838709
2.6510263929618767
2.618768328445748
2.5806451612903225
2.5376344086021505
2.489736070381232
2.4379276637341154
2.3900293255131966
2.3411534701857284
2.2854349951124147
2.225806451612903
2.164222873900293
2.101661779081134
2.040078201368524
1.9794721407624636
1.920821114369501
1.8621700879765395
1.804496578690127
1.7487781036168133
1.694037145650049
1.6480938416422288
1.6099706744868034
1.56891495601173
1.530791788856305
1.500488758553275
1.479960899315738
1.4711632453567938
1.4750733137829912
1.4916911045943304
1.520039100684262
1.5581622678396871
1.6050830889540566
1.6529814271749756
1.7018572825024438
1.7575757575757576
1.818181818181818
1.8797653958944285
1.943304007820137
2.005865102639296
2.067448680351906
2.1270772238514173
2.185728250244379
2.242424242424242
2.2961876832844577
2.347996089931574
2.3900293255131966
2.4271749755620724
2.4672531769305963
2.505376344086021
2.5405669599217986
2.5698924731182795
2.5943304007820136
2.6129032258064515
2.627565982404692
2.6373411534701856
2.643206256109482
2.6471163245356792
2.6480938416422286
2.6480938416422286
2.6480938416422286
2.6480938416422286
2.6471163245356792
2.6451612903225805
2.641251221896383
2.633431085043988
2.6207233626588464
2.6041055718475072
2.582600195503421
2.5542521994134897
2.5190615835777126
2.4819159335288368
2.443792766373412
