ppg
1.6911045943304008
1.6901270772238517
1.6901270772238517
1.6901270772238517
1.6901270772238517
1.6901270772238517
1.689149560117302
1.689149560117302
1.689149560117302
1.689149560117302
1.689149560117302
1.689149560117302
1.689149560117302
1.689149560117302
1.689149560117302
1.689149560117302
1.6901270772238517
1.6911045943304008
1.6911045943304008
1.6920821114369502
1.6920821114369502
1.6930596285434996
1.694037145650049
1.694037145650049
1.694037145650049
1.6950146627565983
1.6950146627565983
1.6950146627565983
1.6950146627565983
1.6950146627565983
1.6950146627565983
1.6950146627565983
1.6950146627565983
1.6950146627565983
1.6950146627565983
1.6950146627565983
1.6950146627565983
1.6950146627565983
1.6950146627565983
1.6950146627565983
1.6950146627565983
1.694037145650049
1.694037145650049
1.694037145650049
1.694037145650049
1.6930596285434996
1.7673509286412512
1.866080156402737
1.8885630498533723
1.8826979472140764
1.866080156402737
1.839687194525904
1.8093841642228736
1.7781036168132942
1.7497556207233629
1.7243401759530792
1.7008797653958945
1.6803519061583578
1.6608015640273706
1.640273704789834
1.6217008797653958
1.6011730205278591
1.581622678396872
1.563049853372434
1.5386119257087
1.5083088954056696
1.478005865102639
1.4467253176930597
1.41544477028348
1.3851417399804498
1.3519061583577712
1.3176930596285434
1.2825024437927663
1.2473118279569892
1.2189638318670577
1.195503421309873
1.1710654936461389
1.1495601173020529
1.133919843597263
1.1221896383186705
1.118279569892473
1.1300097751710656
1.160312805474096
1.2150537634408602
1.2961876832844574
1.4007820136852396
1.525904203323558
1.6451612903225807
1.76930596285435
1.9130009775171064
2.060606060606061
2.207233626588465
2.345063538611926
2.4672531769305963
2.572825024437928
2.6608015640273703
2.729227761485826
2.7781036168132944
2.814271749755621
2.834799608993157
2.8426197458455524
2.84652981427175
2.8455522971652005
2.838709677419355
2.8269794721407626
2.809384164222874
2.787878787878788
2.7595307917888565
2.7223851417399803
2.6803519061583576
2.63049853372434
2.576735092864125
2.5249266862170088
2.4701857282502444
2.409579667644184
2.3489736070381237
2.2873900293255134
2.2297165200391005
2.1788856304985336
2.1309872922776147
2.0879765395894427
2.050830889540567
2.0205278592375366
1.997067448680352
1.978494623655914
1.962854349951124
1.946236559139785
1.9266862170087975
1.9012707722385145
1.8748778103616808
1.8484848484848484
1.818181818181818
1.7849462365591398
1.7526881720430108
1.721407624633431
1.686217008797654
1.64613880742913
1.6129032258064515
1.5835777126099706
1.5503421309872922
1.5161290322580645
1.4819159335288368
1.4486803519061584
1.4164222873900294
1.3851417399804498
1.35386119257087
1.3225806451612905
1.2942326490713587
1.270772238514174
1.2570869990224829
1.2541544477028348
1.2668621700879763
1.2991202346041055
1.3528836754643203
1.4330400782013686
1.541544477028348
1.675464320625611
1.8269794721407624
1.988269794721408
2.15347018572825
2.3088954056695994
2.4486803519061584
2.5562072336265884
2.643206256109482
2.729227761485826
2.8054740957966766
2.8719452590420333
2.929618768328446
2.978494623655914
3.016617790811339
3.042033235581622
3.056695992179863
3.064516129032258
3.0635386119257086
3.0518084066471163
3.035190615835777
3.013685239491691
2.9853372434017595
2.951124144672532
2.909090909090909
2.859237536656892
2.801564027370479
2.735092864125122
2.66177908113392
2.587487781036168
2.515151515151515
2.447702834799609
2.3919843597262958
2.3421309872922778
2.2952101661779083
2.254154447702835
2.2160312805474094
2.1808406647116323
2.145650048875855
2.10850439882698
2.072336265884653
2.0361681329423265
2.0
1.964809384164223
1.9335288367546437
1.905180840664712
1.8729227761485825
1.8347996089931573
1.7888563049853372
1.7419354838709675
1.6959921798631477
1.651026392961877
1.607038123167155
1.5620723362658846
1.520039100684262
1.4819159335288368
1.444770283479961
1.414467253176931
1.3890518084066472
1.3587487781036167
1.3255131964809383
1.2913000977517106
1.2561094819159335
1.2209188660801564
1.1906158357771262
1.1710654936461389
1.1652003910068427
1.1779081133919844
1.2150537634408602
1.2688172043010753
1.3421309872922775
1.447702834799609
1.5777126099706744
1.726295210166178
1.8875855327468232
2.0449657869012707
2.1925708699902247
2.3284457478005867
2.4457478005865103
2.539589442815249
2.6148582600195502
2.668621700879765
2.7038123167155423
2.735092864125122
2.7614858260019552
2.7810361681329425
2.793743890518084
2.7996089931573804
2.80058651026393
2.7966764418377323
2.7859237536656893
2.7673509286412514
2.739980449657869
2.7038123167155423
2.6666666666666665
2.6236559139784945
2.570869990224829
2.5112414467253177
2.4457478005865103
2.377321603128055
2.30791788856305
2.2404692082111435
2.175953079178885
2.112414467253177
2.053763440860215
2.004887585532747
1.9667644183773216
1.9345063538611929
1.905180840664712
1.87683284457478
1.8455522971652003
1.812316715542522
1.7781036168132942
1.7448680351906158
1.7135874877810362
1.6774193548387095
1.6373411534701858
1.595307917888563
1.547409579667644
1.501466275659824
1.458455522971652
1.412512218963832
1.367546432062561
1.3235581622678396
1.278592375366569
1.2365591397849462
1.198435972629521
1.1612903225806452
1.1221896383186705
1.0811339198435972
1.0381231671554252
1.002932551319648
0.9726295210166178
0.9374389051808406
0.9042033235581622
0.8787878787878788
0.8690127077223851
0.8768328445747801
0.9090909090909092
0.9716520039100685
1.0635386119257086
1.18475073313783
1.3294232649071358
1.487781036168133
1.6334310850439884
1.7673509286412512
1.9120234604105573
2.0557184750733137
2.185728250244379
2.2961876832844577
2.389051808406647
2.4613880742913
2.5161290322580645
2.557184750733138
2.589442815249267
2.613880742913001
2.6265884652981426
2.632453567937439
2.635386119257087
2.633431085043988
2.625610948191593
2.611925708699902
2.591397849462365
2.563049853372434
2.5268817204301075
2.484848484848485
2.4379276637341154
2.386119257086999
2.334310850439883
2.289345063538612
2.24633431085044
2.203323558162268
2.161290322580645
2.120234604105572
2.080156402737048
2.0439882697947214
2.016617790811339
1.994134897360704
1.975562072336266
1.9579667644183771
1.9393939393939397
1.921798631476051
1.903225806451613
1.8778103616813293
1.8494623655913975
1.8191593352883677
1.790811339198436
1.7644183773216031
1.7390029325513197
1.7145650048875856
1.6881720430107527
1.6588465298142718
1.6285434995112416
1.5972629521016617
1.5698924731182795
1.544477028347996
1.5151515151515151
1.4848484848484849
1.4535679374389052
1.4222873900293256
1.391006842619746
1.356793743890518
1.324535679374389
1.2961876832844574
1.273704789833822
1.2609970674486803
1.260019550342131
1.2717497556207231
1.2971652003910068
1.346041055718475
1.4203323558162269
1.5190615835777126
1.640273704789834
1.7781036168132942
1.924731182795699
2.072336265884653
2.2140762463343107
2.3440860215053765
2.4613880742913
2.552297165200391
2.6236559139784945
2.6911045943304006
2.750733137829912
2.80058651026393
2.838709677419355
2.868035190615836
2.8905180840664717
2.90811339198436
2.918866080156403
2.919843597262952
2.913000977517106
2.897360703812317
2.873900293255132
2.841642228739003
2.803519061583578
2.760508308895406
2.7116324535679373
2.656891495601173
2.5972629521016617
2.5376344086021505
2.479960899315738
2.423264907135875
2.367546432062561
2.315738025415445
2.2737047898338223
2.236559139784946
2.198435972629521
2.161290322580645
2.1270772238514173
2.093841642228739
2.0625610948191597
2.035190615835777
2.007820136852395
1.9804496578690127
1.95405669599218
1.927663734115347
1.902248289345064
1.8778103616813293
1.8455522971652003
1.8074291300097751
1.7702834799608993
1.7341153470185728
1.6959921798631477
1.656891495601173
1.6177908113391983
1.5806451612903225
1.5454545454545454
1.5102639296187683
1.4721407624633431
1.439882697947214
1.409579667644184
1.3743890518084063
1.3372434017595307
1.3020527859237536
1.2727272727272727
1.2482893450635386
1.2316715542521994
1.227761485826002
1.241446725317693
1.278592375366569
1.3391984359726294
1.4086021505376345
1.4916911045943304
1.5992179863147604
1.7223851417399805
1.8533724340175952
1.9843597262952104
2.110459433040078
2.2248289345063537
2.3284457478005867
2.4173998044965788
2.4916911045943304
2.5532746823069403
2.60019550342131
2.6295210166177907
2.6480938416422286
2.662756598240469
2.674486803519061
2.6803519061583576
2.679374389051808
2.674486803519061
2.668621700879765
2.6578690127077222
2.6402737047898337
2.6148582600195502
2.582600195503421
2.548387096774193
2.509286412512219
2.4604105571847508
2.403714565004888
2.3411534701857284
2.278592375366569
2.218963831867057
2.161290322580645
2.1065493646138806
2.0576735092864125
2.0146627565982405
1.9775171065493649
1.9472140762463344
1.919843597262952
1.8905180840664717
1.8592375366568916
1.827956989247312
1.8005865102639296
1.7771260997067448
1.75366568914956
1.7302052785923754
1.7038123167155426
1.672531769305963
1.6373411534701858
1.6001955034213098
1.5679374389051808
1.5395894428152492
1.5073313782991202
1.4731182795698925
1.439882697947214
1.4076246334310851
1.3734115347018572
1.33822091886608
1.3049853372434017
1.2727272727272727
1.2424242424242424
1.2130987292277615
1.1906158357771262
1.1730205278592376
1.1544477028347997
1.141739980449658
1.13880742913001
1.1495601173020529
1.1788856304985338
1.2316715542521994
1.3079178885630498
1.4056695992179864
1.521994134897361
1.6520039100684265
1.7898338220918866
1.9130009775171064
2.024437927663734
2.1436950146627565
2.259042033235582
2.364613880742913
2.4574780058651027
2.535679374389052
2.5992179863147604
2.649071358748778
2.687194525904203
2.7145650048875853
2.730205278592375
2.7341153470185726
2.730205278592375
2.724340175953079
2.717497556207233
2.70772238514174
2.6930596285435
2.6715542521994133
2.643206256109482
2.6050830889540566
2.560117302052786
2.509286412512219
2.452590420332356
2.3919843597262958
2.337243401759531
2.29227761485826
2.2502443792766376
2.209188660801564
2.1681329423264906
2.1300097751710654
2.096774193548387
2.0684261974584555
2.0439882697947214
2.022482893450636
1.9990224828934504
1.9736070381231672
1.949169110459433
1.924731182795699
1.8963831867057677
1.866080156402737
1.835777126099707
1.8064516129032255
1.7781036168132942
1.7458455522971652
1.7096774193548387
1.6715542521994136
1.6138807429130009
1.544477028347996
1.4897360703812317
1.4486803519061584
1.41544477028348
1.3782991202346042
1.33822091886608
1.2981427174975562
1.2580645161290325
1.2179863147605083
1.1827956989247312
1.1495601173020529
1.1173020527859236
1.0899315738025417
1.072336265884653
1.067448680351906
1.078201368523949
1.1085043988269794
1.163245356793744
1.2453567937438903
1.3528836754643203
1.479960899315738
1.6187683284457477
1.7634408602150538
1.906158357771261
2.042033235581622
2.1652003910068425
2.270772238514174
2.350928641251222
2.412512218963832
2.4701857282502444
2.5190615835777126
2.5591397849462365
2.590420332355816
2.611925708699902
2.622678396871945
2.6236559139784945
2.619745845552297
2.613880742913001
2.6041055718475072
2.5884652981427174
2.56891495601173
2.550342130987292
2.532746823069404
2.515151515151515
2.4975562072336266
2.479960899315738
2.466275659824047
2.4594330400782014
2.4604105571847508
2.472140762463343
2.495601173020528
2.529814271749756
2.5620723362658846
2.598240469208211
2.6471163245356792
2.702834799608993
2.7565982404692084
2.8084066471163247
2.8563049853372435
2.898338220918866
2.936461388074292
2.973607038123167
3.0097751710654936
3.043010752688172
3.064516129032258
3.075268817204301
3.085043988269794
3.093841642228739
3.102639296187683
3.1114369501466275
3.1163245356793743
3.114369501466276
3.1065493646138806
3.0957966764418376
3.086021505376344
3.0791788856304985
3.071358748778104
3.058651026392962
3.0439882697947214
3.027370478983382
3.0097751710654936
2.992179863147605
2.9765395894428157
2.9687194525904204
2.973607038123167
2.9960899315738025
3.0391006842619745
3.102639296187683
3.1847507331378297
3.26197458455523
3.335288367546432
3.4252199413489737
3.517106549364614
3.603128054740958
3.681329423264907
3.7468230694037135
3.796676441837732
3.83088954056696
3.852394916911046
3.863147605083089
3.86217008797654
3.8504398826979473
3.8269794721407626
3.792766373411535
3.7517106549364616
3.704789833822092
3.652003910068426
3.592375366568915
3.52297165200391
3.4457478005865103
3.3655913978494625
3.278592375366569
3.188660801564027
3.099706744868035
3.0175953079178885
2.93841642228739
2.852394916911046
2.760508308895406
2.668621700879765
2.578690127077224
2.4887585532746823
2.39980449657869
2.310850439882698
2.219941348973607
2.1280547409579667
2.038123167155425
1.959921798631476
1.8875855327468232
1.8093841642228736
1.726295210166178
1.6334310850439884
1.533724340175953
1.4330400782013686
1.33822091886608
1.2580645161290325
1.2003910068426198
1.1710654936461389
1.1681329423264908
1.1886608015640274
1.224828934506354
1.2746823069403714
1.3391984359726294
1.4115347018572826
1.4848484848484849
1.555229716520039
1.6207233626588464
1.678396871945259
1.7223851417399805
1.750733137829912
1.758553274682307
1.7468230694037146
1.7282502443792769
1.6989247311827955
1.6529814271749756
1.6041055718475072
1.564027370478983
1.5454545454545454
1.5610948191593352
1.6129032258064515
1.7008797653958945
1.8201368523949168
1.9657869012707725
2.129032258064516
2.297165200391007
2.4389051808406648
2.563049853372434
2.6940371456500487
2.814271749755621
2.916911045943304
2.997067448680352
3.0547409579667644
3.09188660801564
3.115347018572825
3.1270772238514173
3.126099706744868
3.114369501466276
3.0957966764418376
3.071358748778104
3.0361681329423265
2.9902248289345064
2.9335288367546437
2.866080156402737
2.7859237536656893
2.6940371456500487
2.595307917888563
2.4887585532746823
2.375366568914956
2.259042033235582
2.142717497556207
2.043010752688172
1.949169110459433
1.8484848484848484
1.7497556207233629
1.6520039100684265
1.5562072336265884
1.469208211143695
1.3919843597262953
1.324535679374389
1.2649071358748778
1.2101661779081134
1.160312805474096
1.1221896383186705
1.0899315738025417
1.0518084066471165
1.0087976539589445
0.9628543499511242
0.9149560117302052
0.8651026392961877
0.8132942326490714
0.7605083088954057
0.70772238514174
0.656891495601173
0.6099706744868035
0.5640273704789834
0.5298142717497556
0.501466275659824
0.4652981427174975
0.4252199413489736
0.3851417399804496
0.3479960899315738
0.313782991202346
0.2854349951124145
0.2668621700879765
0.2639296187683284
0.2805474095796676
0.3176930596285435
0.3714565004887585
0.4447702834799609
0.5434995112414467
0.6656891495601173
0.8093841642228738
0.9628543499511242
1.1192570869990224
1.2746823069403714
1.423264907135875
1.5591397849462365
1.6823069403714566
1.7927663734115349
1.8875855327468232
1.959921798631476
2.013685239491691
2.0625610948191597
2.104594330400782
2.1388074291300097
2.16911045943304
2.1955034213098727
2.21505376344086
2.2297165200391005
2.239491691104594
2.241446725317693
2.233626588465298
2.218963831867057
2.196480938416422
2.163245356793744
2.1192570869990224
2.06158357771261
2.003910068426197
1.9608993157380252
1.9257086999022484
1.895405669599218
1.868035190615836
1.8435972629521016
1.8240469208211143
1.8064516129032255
1.7927663734115349
1.7810361681329423
1.7683284457478006
1.7546432062561097
1.739980449657869
1.7253176930596286
1.710654936461388
1.694037145650049
1.6774193548387095
1.66177908113392
1.6451612903225807
1.629521016617791
1.616813294232649
1.6041055718475072
1.5884652981427174
1.5708699902248289
1.5503421309872922
1.5278592375366569
1.504398826979472
1.4809384164222874
1.456500488758553
1.4320625610948192
1.4076246334310851
1.3851417399804498
1.3626588465298142
1.3440860215053765
1.327468230694037
1.3079178885630498
1.289345063538612
1.2756598240469208
1.270772238514174
1.278592375366569
1.2981427174975562
1.3304007820136852
1.375366568914956
1.4349951124144673
1.5063538611925709
1.5747800586510263
1.643206256109482
1.7204301075268815
1.7996089931573802
1.8758553274682308
1.945259042033236
2.006842619745845
2.059628543499511
2.103616813294233
2.1388074291300097
2.167155425219941
2.1915933528836757
2.212121212121212
2.225806451612903
2.2355816226783967
2.2453567937438903
2.2521994134897363
2.2561094819159337
2.2561094819159337
2.2531769305962857
2.244379276637341
2.228739002932551
2.207233626588465
2.1818181818181817
2.15347018572825
2.126099706744868
2.0987292277614857
2.067448680351906
2.034213098729228
2.0
1.9687194525904204
1.9393939393939397
1.913978494623656
1.89247311827957
1.8758553274682308
1.8602150537634408
1.842619745845552
1.825024437927664
1.812316715542522
1.8005865102639296
1.7878787878787878
1.7741935483870968
1.7595307917888563
1.7448680351906158
1.729227761485826
1.710654936461388
1.6901270772238517
1.6705767350928642
1.6480938416422288
1.6226783968719452
1.6001955034213098
1.5786901270772238
1.5532746823069403
1.5268817204301075
1.501466275659824
1.47702834799609
1.452590420332356
1.4281524926686218
1.4037145650048877
1.380254154447703
1.3616813294232648
1.3470185728250244
1.33822091886608
1.335288367546432
1.3362658846529814
1.3440860215053765
1.3626588465298142
1.396871945259042
1.4437927663734116
1.5034213098729228
1.5728250244379276
1.6490713587487782
1.7282502443792769
1.8084066471163245
1.8836754643206255
1.943304007820137
1.992179863147605
2.0410557184750733
2.085043988269794
2.12316715542522
2.1544477028347995
2.179863147605083
2.20039100684262
2.21505376344086
2.2277614858260018
2.236559139784946
2.2404692082111435
2.241446725317693
2.2404692082111435
2.2375366568914954
2.2297165200391005
2.217986314760508
2.2023460410557183
2.1818181818181817
2.157380254154448
2.1300097751710654
2.1006842619745845
2.0684261974584555
2.035190615835777
2.002932551319648
1.9775171065493649
1.956989247311828
1.9374389051808407
1.9178885630498532
1.8983382209188664
1.878787878787879
1.8602150537634408
1.844574780058651
1.83088954056696
1.8172043010752688
1.8035190615835777
1.7888563049853372
1.7771260997067448
1.7663734115347018
1.75366568914956
1.7390029325513197
1.7204301075268815
1.6989247311827955
1.6774193548387095
1.656891495601173
1.6344086021505375
1.6080156402737047
1.5806451612903225
1.5542521994134897
1.5298142717497556
1.512218963831867
1.498533724340176
1.4819159335288368
1.4633431085043989
1.444770283479961
1.426197458455523
1.409579667644184
1.3958944281524928
1.3861192570869991
1.3841642228739004
1.392961876832845
1.4164222873900294
1.4506353861192571
1.495601173020528
1.5571847507331378
2.970674486803519
2.9501466275659824
2.9227761485826003
2.8905180840664717
2.855327468230694
2.8181818181818183
2.780058651026393
2.7419354838709675
2.70772238514174
2.675464320625611
2.6422287390029324
2.6099706744868034
2.582600195503421
2.5610948191593352
2.541544477028348
2.52297165200391
2.505376344086021
2.4887585532746823
2.472140762463343
2.455522971652004
2.4379276637341154
2.421309872922776
2.404692082111437
2.386119257086999
2.3655913978494625
2.3440860215053765
2.3225806451612905
2.2991202346041058
2.2737047898338223
2.24633431085044
2.219941348973607
2.1974584555229715
2.177908113391984
2.161290322580645
2.145650048875855
2.1251221896383186
2.1065493646138806
2.0928641251221896
2.0772238514174
2.06158357771261
2.046920821114369
2.0361681329423265
2.034213098729228
2.0439882697947214
2.070381231671554
2.102639296187683
2.145650048875855
2.210166177908113
2.290322580645161
2.3812316715542523
2.4780058651026398
2.575757575757576
2.6695992179863146
2.757575757575758
2.834799608993157
2.9012707722385143
2.959921798631476
3.0009775171065494
3.0283479960899315
3.0527859237536656
3.0733137829912023
3.090909090909091
3.103616813294233
3.113391984359726
3.120234604105572
3.1270772238514173
3.131964809384164
3.132942326490713
3.1270772238514173
3.113391984359726
3.0928641251221896
3.0664711632453567
3.035190615835777
2.99902248289345
2.956989247311828
2.911045943304008
2.86217008797654
2.811339198435973
2.760508308895406
2.7126099706744866
2.6666666666666665
2.6207233626588464
2.579667644183773
2.5434995112414467
2.50733137829912
2.4701857282502444
2.432062561094819
2.3949169110459434
2.356793743890518
2.302052785923754
2.251221896383187
2.2130987292277613
2.166177908113392
1.902248289345064
1.5464320625610948
1.3548387096774193
1.219941348973607
1.0791788856304985
0.9374389051808406
0.8435972629521017
0.772238514173998
0.6871945259042033
0.5747800586510264
0.4750733137829912
0.3841642228739003
0.2756598240469208
0.1955034213098729
0.1300097751710655
0.075268817204301
0.043010752688172
0.021505376344086
0.010752688172043
0.0048875855327468
0.0019550342130987
0.0009775171065493
0.0
0.0
0.0009775171065493
0.0263929618768328
0.0801564027370479
0.1505376344086021
0.2355816226783968
0.3255131964809384
0.41544477028348
0.5024437927663734
0.5806451612903226
0.6471163245356794
0.7018572825024438
0.7448680351906158
0.7771260997067448
0.7996089931573802
0.8152492668621701
0.823069403714565
0.820136852394917
0.8084066471163245
0.7898338220918866
0.7693059628543499
0.7478005865102639
0.7223851417399805
0.6901270772238515
0.6500488758553274
0.5992179863147605
0.5395894428152492
0.4731182795698925
0.4134897360703812
0.35386119257087
0.2825024437927664
0.2121212121212121
0.1427174975562072
0.0811339198435972
0.0400782013685239
0.0195503421309872
0.0097751710654936
0.0048875855327468
0.0019550342130987
0.0009775171065493
0.0
0.0263929618768328
0.1036168132942326
0.2140762463343108
0.3235581622678397
0.4252199413489736
0.530791788856305
0.6285434995112414
0.7145650048875856
0.7878787878787878
0.8484848484848485
0.8983382209188661
0.93841642228739
0.9667644183773216
0.9853372434017597
0.997067448680352
1.002932551319648
1.0019550342130987
0.9902248289345064
0.9716520039100685
0.9472140762463344
0.9149560117302052
0.8778103616813294
0.8328445747800587
0.7820136852394917
0.7282502443792767
0.6686217008797654
0.6089931573802542
0.555229716520039
0.5151515151515151
0.4868035190615836
0.4594330400782013
0.4349951124144672
0.4115347018572825
0.3919843597262952
0.375366568914956
0.3587487781036168
0.3431085043988269
0.3274682306940371
0.3088954056695992
0.2883675464320626
0.2717497556207233
0.2570869990224829
0.2385141739980449
0.2209188660801564
0.2013685239491691
0.1779081133919843
0.1515151515151515
0.1212121212121212
0.0879765395894428
0.0547409579667644
0.0283479960899315
0.0136852394916911
0.0068426197458455
0.002932551319648
0.0009775171065493
0.0
0.0
0.0
0.0
0.0
0.0
0.0
0.0
0.0
0.0
0.0
0.0
0.0
0.0263929618768328
0.1036168132942326
0.2179863147605083
0.3528836754643206
0.4985337243401759
0.6471163245356794
0.793743890518084
0.9296187683284456
1.0488758553274682
1.1515151515151516
1.2287390029325511
1.2873900293255132
1.33822091886608
1.3782991202346042
1.4076246334310851
1.4222873900293256
1.423264907135875
1.412512218963832
1.393939393939394
1.3695014662756595
1.33822091886608
1.3010752688172045
1.2649071358748778
1.224828934506354
1.1720430107526882
