ppg
2.740957966764418
2.776148582600196
2.80058651026393
2.81622678396872
2.825024437927664
2.8269794721407626
2.819159335288368
2.803519061583578
2.7839687194525906
2.7565982404692084
2.720430107526881
2.6725317693059627
2.6129032258064515
2.5425219941348973
2.4652981427174976
2.3841642228739004
2.302052785923754
2.2218963831867056
2.1524926686217007
2.0928641251221896
2.037145650048876
1.9872922776148585
1.9442815249266865
1.90811339198436
1.87683284457478
1.8484848484848484
1.8211143695014664
1.7947214076246334
1.7663734115347018
1.7360703812316716
1.7057673509286413
1.6774193548387095
1.651026392961877
1.6207233626588464
1.5884652981427174
1.555229716520039
1.521994134897361
1.4887585532746823
1.457478005865103
1.4271749755620724
1.3998044965786902
1.375366568914956
1.35386119257087
1.33822091886608
1.3264907135874875
1.3128054740957966
1.2981427174975562
1.2834799608993157
1.2697947214076246
1.2551319648093842
1.2424242424242424
1.2297165200391007
1.2179863147605083
1.2072336265884651
1.1964809384164223
1.1857282502443791
1.1788856304985338
1.1720430107526882
1.163245356793744
1.1534701857282503
1.144672531769306
1.1358748778103618
1.1280547409579669
1.118279569892473
1.1085043988269794
1.0987292277614855
1.088954056695992
1.0811339198435972
1.0772238514173995
1.075268817204301
1.0713587487781036
1.0664711632453567
1.06158357771261
1.0557184750733135
1.050830889540567
1.0469208211143697
1.0449657869012707
1.0439882697947214
1.0439882697947214
1.043010752688172
1.0410557184750733
1.0420332355816226
1.0439882697947214
1.0439882697947214
1.043010752688172
1.043010752688172
1.0439882697947214
1.04594330400782
1.0478983382209188
1.0498533724340176
1.0518084066471165
1.053763440860215
1.056695992179863
1.06158357771261
1.067448680351906
1.0713587487781036
1.0742913000977516
1.075268817204301
1.0762463343108504
1.0772238514173995
1.0801564027370478
1.0869990224828934
1.104594330400782
1.1368523949169111
1.187683284457478
1.249266862170088
1.327468230694037
1.4379276637341154
1.5777126099706744
1.739980449657869
1.916911045943304
2.0987292277614857
2.275659824046921
2.4389051808406648
2.582600195503421
2.7038123167155423
2.8025415444770285
2.878787878787879
2.9257086999022484
2.9530791788856305
2.9765395894428157
2.9931573802541545
3.002932551319648
3.005865102639296
3.0009775171065494
2.988269794721408
2.967741935483871
2.9374389051808407
2.8963831867057674
2.844574780058651
2.7869012707722387
2.7223851417399803
2.64613880742913
2.560117302052786
2.4701857282502444
2.3812316715542523
2.2961876832844577
2.218963831867057
2.1515151515151514
2.093841642228739
2.0449657869012707
2.003910068426197
1.967741935483871
1.9374389051808407
1.9100684261974583
1.8807429130009776
1.8494623655913975
1.8172043010752688
1.7820136852394917
1.7458455522971652
1.70772238514174
1.6686217008797657
1.629521016617791
1.590420332355816
1.5532746823069403
1.521994134897361
1.4936461388074291
1.4623655913978495
1.4301075268817205
1.396871945259042
1.364613880742913
1.332355816226784
1.300097751710655
1.2668621700879763
1.2336265884652982
1.2013685239491692
1.1700879765395895
1.1407624633431086
1.118279569892473
1.099706744868035
1.0811339198435972
1.0635386119257086
1.0488758553274682
1.0371456500488758
1.029325513196481
1.024437927663734
1.021505376344086
1.021505376344086
1.024437927663734
1.0303030303030305
1.0391006842619743
1.0498533724340176
1.0596285434995112
1.0694037145650048
1.0801564027370478
1.0918866080156402
1.1036168132942326
1.115347018572825
1.1270772238514175
1.1378299120234605
1.1485826001955035
1.1593352883675463
1.1691104594330402
1.1788856304985338
1.1886608015640274
1.195503421309873
1.1994134897360704
1.2003910068426198
1.1994134897360704
1.1945259042033236
1.1867057673509287
1.1759530791788857
1.1622678396871946
1.1466275659824048
1.130987292277615
1.1192570869990224
1.1085043988269794
1.0948191593352885
1.0811339198435972
1.067448680351906
1.053763440860215
1.040078201368524
1.0303030303030305
1.024437927663734
1.0224828934506354
1.0263929618768328
1.035190615835777
1.0488758553274682
1.064516129032258
1.083088954056696
1.1055718475073313
1.133919843597263
1.173998044965787
1.2297165200391007
1.3069403714565004
1.409579667644184
1.5386119257087
1.694037145650049
1.8699902248289344
2.059628543499511
2.225806451612903
2.376344086021505
2.5386119257087
2.6940371456500487
2.83088954056696
2.945259042033236
3.0361681329423265
3.104594330400782
3.15347018572825
3.185728250244379
3.2052785923753664
3.212121212121212
3.209188660801564
3.1945259042033234
3.1700879765395893
3.139784946236559
3.1006842619745845
3.0498533724340176
2.986314760508309
2.911045943304008
2.825024437927664
2.730205278592375
2.63049853372434
2.529814271749756
2.4330400782013686
2.3499511241446727
2.27761485826002
2.209188660801564
2.1485826001955037
2.0948191593352883
2.046920821114369
2.006842619745845
1.9716520039100685
1.93841642228739
1.906158357771261
1.8748778103616808
1.842619745845552
1.8084066471163245
1.7771260997067448
1.7458455522971652
1.7116324535679377
1.675464320625611
1.6392961876832846
1.603128054740958
1.5679374389051808
1.5347018572825024
1.5034213098729228
1.474095796676442
1.4467253176930597
1.4222873900293256
1.4027370478983383
1.3870967741935485
1.370478983382209
1.3548387096774193
1.33822091886608
1.321603128054741
1.3040078201368523
1.2864125122189638
1.2697947214076246
1.2531769305962854
1.2365591397849462
1.2209188660801564
1.2052785923753666
1.1935483870967742
1.1837732160312806
1.1710654936461389
1.1583577712609971
1.144672531769306
1.1300097751710656
1.115347018572825
1.0948191593352885
1.072336265884653
1.0557184750733135
1.043010752688172
1.032258064516129
1.0254154447702837
1.021505376344086
1.0166177908113392
1.0117302052785924
1.0058651026392962
1.0019550342130987
0.9990224828934506
0.9980449657869012
0.9980449657869012
0.9990224828934506
0.9990224828934506
0.9990224828934506
1.0
1.002932551319648
1.0068426197458455
1.0087976539589445
1.010752688172043
1.0127077223851415
1.013685239491691
1.0146627565982405
1.0146627565982405
1.013685239491691
1.013685239491691
1.0127077223851415
1.0117302052785924
1.0127077223851415
1.0156402737047898
1.0175953079178883
1.0175953079178883
1.0175953079178883
1.0166177908113392
1.0156402737047898
1.0156402737047898
1.018572825024438
1.0273704789833822
1.04594330400782
1.0811339198435972
1.1270772238514175
1.187683284457478
1.278592375366569
1.396871945259042
1.5376344086021505
1.6959921798631477
1.8621700879765395
2.0283479960899315
2.1867057673509285
2.3304007820136854
2.4545454545454546
2.5562072336265884
2.636363636363636
2.689149560117302
2.7223851417399803
2.750733137829912
2.773216031280548
2.789833822091887
2.801564027370479
2.807429130009776
2.8054740957966766
2.7966764418377323
2.780058651026393
2.752688172043011
2.7145650048875853
2.6695992179863146
2.6177908113391983
2.5542521994134897
2.4809384164222874
2.40078201368524
2.317693059628544
2.2346041055718477
2.155425219941349
2.081133919843597
2.0146627565982405
1.9560117302052784
1.906158357771261
1.8631476050830889
1.827956989247312
1.7986314760508308
1.76930596285435
1.7409579667644184
1.7126099706744868
1.6842619745845553
1.6549364613880744
1.6236559139784943
1.590420332355816
1.5562072336265884
1.521994134897361
1.4868035190615836
1.457478005865103
1.43108504398827
1.4027370478983383
1.375366568914956
1.348973607038123
1.3255131964809383
1.303030303030303
1.281524926686217
1.2609970674486803
1.2404692082111437
1.2218963831867058
1.2052785923753666
1.1896383186705768
1.1788856304985338
1.1700879765395895
1.1593352883675463
1.147605083088954
1.1358748778103618
1.1241446725317692
1.1124144672531768
1.1006842619745845
1.0899315738025417
1.0791788856304985
1.0684261974584557
1.0586510263929618
1.0527859237536656
1.0488758553274682
1.043010752688172
1.035190615835777
1.0273704789833822
1.0195503421309873
1.0117302052785924
1.0048875855327468
0.9990224828934506
0.9931573802541545
0.9882697947214076
0.9824046920821116
0.9775171065493646
0.975562072336266
0.975562072336266
0.9736070381231672
0.9716520039100685
0.9706744868035192
0.9706744868035192
0.9706744868035192
0.9706744868035192
0.9706744868035192
0.9706744868035192
0.9706744868035192
0.9706744868035192
0.9726295210166178
0.9765395894428152
0.978494623655914
0.9804496578690128
0.981427174975562
0.981427174975562
0.981427174975562
0.981427174975562
0.981427174975562
0.9824046920821116
0.9833822091886608
0.9863147605083088
0.989247311827957
0.9941348973607038
1.0
1.0068426197458455
1.0195503421309873
1.0420332355816226
1.0791788856304985
1.1368523949169111
1.217008797653959
1.321603128054741
1.4486803519061584
1.595307917888563
1.7546432062561097
1.8963831867057677
2.0254154447702835
2.163245356793744
2.294232649071359
2.4115347018572826
2.5102639296187683
2.590420332355816
2.652003910068426
2.696969696969697
2.7282502443792764
2.747800586510264
2.7595307917888565
2.763440860215054
2.758553274682307
2.745845552297165
2.7311827956989245
2.710654936461388
2.681329423264907
2.643206256109482
2.595307917888563
2.535679374389052
2.466275659824047
2.391006842619746
2.310850439882698
2.23069403714565
2.1593352883675463
2.096774193548387
2.0361681329423265
1.9804496578690127
1.9315738025415443
1.889540566959922
1.8533724340175952
1.822091886608016
1.793743890518084
1.7653958944281525
1.737047898338221
1.7086999022482894
1.6793743890518085
1.6520039100684265
1.6256109481915937
1.595307917888563
1.563049853372434
1.5298142717497556
1.4965786901270772
1.4643206256109482
1.434017595307918
1.404692082111437
1.3773216031280548
1.3519061583577712
1.3284457478005864
1.3098729227761483
1.295210166177908
1.2795698924731185
1.262952101661779
1.2473118279569892
1.2336265884652982
1.2218963831867058
1.2101661779081134
1.198435972629521
1.187683284457478
1.1759530791788857
1.164222873900293
1.1544477028347997
1.147605083088954
1.1407624633431086
1.1319648093841643
1.1231671554252198
1.1143695014662756
1.1055718475073313
1.096774193548387
1.0869990224828934
1.078201368523949
1.0694037145650048
1.0606060606060606
1.0518084066471165
1.0478983382209188
1.04594330400782
1.0420332355816226
1.0371456500488758
1.032258064516129
1.0273704789833822
1.0234604105571847
1.0205278592375366
1.0175953079178883
1.0146627565982405
1.0117302052785924
1.0087976539589445
1.0087976539589445
1.010752688172043
1.018572825024438
1.0303030303030305
1.035190615835777
1.0361681329423265
1.0361681329423265
1.0342130987292275
1.032258064516129
1.0312805474095796
1.0303030303030305
1.0303030303030305
1.0303030303030305
1.0332355816226784
1.0381231671554252
1.0420332355816226
1.0439882697947214
1.0449657869012707
1.04594330400782
1.0478983382209188
1.0498533724340176
1.0527859237536656
1.06158357771261
1.0811339198435972
1.115347018572825
1.160312805474096
1.2218963831867058
1.313782991202346
1.4349951124144673
1.5826001955034212
1.750733137829912
1.9305962854349952
2.110459433040078
2.2825024437927666
2.4389051808406648
2.5747800586510263
2.6881720430107525
2.7781036168132944
2.8377321603128056
2.875855327468231
2.909090909090909
2.9345063538611926
2.952101661779081
2.962854349951124
2.967741935483871
2.964809384164223
2.95405669599218
2.935483870967742
2.906158357771261
2.866080156402737
2.819159335288368
2.763440860215054
2.6940371456500487
2.6148582600195502
2.527859237536657
2.436950146627566
2.346041055718475
2.259042033235582
2.179863147605083
2.110459433040078
2.050830889540567
2.0
1.9579667644183771
1.9257086999022484
1.8983382209188664
1.870967741935484
1.8435972629521016
1.81524926686217
1.7859237536656891
1.7546432062561097
1.721407624633431
1.6852394916911049
1.6480938416422288
1.6109481915933528
1.573802541544477
1.542521994134897
1.5141739980449658
1.4848484848484849
1.455522971652004
1.426197458455523
1.3978494623655917
1.3724340175953078
1.3479960899315735
1.3255131964809383
1.3049853372434017
1.2864125122189638
1.2688172043010753
1.252199413489736
1.2394916911045943
1.2297165200391007
1.2189638318670577
1.209188660801564
1.1994134897360704
1.1906158357771262
1.181818181818182
1.1730205278592376
1.164222873900293
1.155425219941349
1.1456500488758554
1.1348973607038124
1.1270772238514175
1.1202346041055715
1.1114369501466277
1.1016617790811338
1.0909090909090908
1.0811339198435972
1.0713587487781036
1.06158357771261
1.0518084066471165
1.0420332355816226
1.0342130987292275
1.0283479960899315
1.0234604105571847
1.021505376344086
1.0224828934506354
1.0234604105571847
1.0234604105571847
1.0234604105571847
1.0234604105571847
1.0234604105571847
1.0234604105571847
1.0234604105571847
1.0234604105571847
1.0234604105571847
1.0234604105571847
1.0254154447702837
1.0283479960899315
1.0283479960899315
1.0283479960899315
1.0283479960899315
1.0283479960899315
1.0283479960899315
1.0283479960899315
1.0283479960899315
1.0283479960899315
1.029325513196481
1.0303030303030305
1.0312805474095796
1.0342130987292275
1.0381231671554252
1.040078201368524
1.043010752688172
1.050830889540567
1.067448680351906
1.0987292277614855
1.1515151515151516
1.2297165200391007
1.335288367546432
1.4672531769305963
1.6226783968719452
1.76930596285435
1.9120234604105573
2.075268817204301
2.241446725317693
2.398826979472141
2.5386119257087
2.6578690127077222
2.7536656891495603
2.827956989247312
2.8826979472140764
2.921798631476051
2.948191593352884
2.964809384164223
2.9696969696969697
2.964809384164223
2.9579667644183774
2.945259042033236
2.9257086999022484
2.8963831867057674
2.8563049853372435
2.8044965786901277
2.739980449657869
2.664711632453568
2.582600195503421
2.4946236559139785
2.4134897360703813
2.3382209188660803
2.260019550342131
2.185728250244379
2.118279569892473
2.06158357771261
2.013685239491691
1.9736070381231672
1.9393939393939397
1.90811339198436
1.87683284457478
1.8455522971652003
1.8132942326490715
1.7839687194525904
1.7546432062561097
1.7204301075268815
1.683284457478006
1.6441837732160314
1.603128054740958
1.5610948191593352
1.5180840664711632
1.4760508308895406
1.434017595307918
1.392961876832845
1.35386119257087
1.321603128054741
1.295210166177908
1.267839687194526
1.2424242424242424
1.219941348973607
1.2003910068426198
1.18475073313783
1.1720430107526882
1.163245356793744
1.1573802541544478
1.1544477028347997
1.1534701857282503
1.1544477028347997
1.1573802541544478
1.1622678396871946
1.1671554252199414
1.1730205278592376
1.1788856304985338
1.1857282502443791
1.1925708699902249
1.2003910068426198
1.2082111436950147
1.2150537634408602
1.2218963831867058
1.227761485826002
1.2336265884652982
1.2394916911045943
1.2434017595307918
1.2453567937438903
1.24633431085044
1.24633431085044
1.2434017595307918
1.238514173998045
1.23069403714565
1.2209188660801564
1.2101661779081134
1.1964809384164223
1.18475073313783
1.173998044965787
1.1593352883675463
1.142717497556207
1.1241446725317692
1.1055718475073313
1.088954056695992
1.0742913000977516
1.0606060606060606
1.0498533724340176
1.043010752688172
1.0410557184750733
1.0449657869012707
1.053763440860215
1.0664711632453567
1.083088954056696
1.1016617790811338
1.1221896383186705
1.142717497556207
1.1612903225806452
1.1798631476050832
1.1935483870967742
1.2052785923753666
1.2189638318670577
1.2355816226783969
1.2551319648093842
1.281524926686217
1.3225806451612905
1.383186705767351
1.469208211143695
1.5806451612903225
1.718475073313783
1.878787878787879
2.0547409579667644
2.236559139784946
2.4144672531769307
2.579667644183773
2.7262952101661777
2.834799608993157
2.913978494623656
2.9853372434017595
3.042033235581622
3.0821114369501466
3.10752688172043
3.120234604105572
3.1221896383186705
3.114369501466276
3.0977517106549364
3.0733137829912023
3.0410557184750733
3.0019550342130987
2.956011730205278
2.8993157380254155
2.831867057673509
2.7546432062561097
2.6695992179863146
2.579667644183773
2.487781036168133
2.396871945259042
2.313782991202346
2.239491691104594
2.174975562072336
2.120234604105572
2.0762463343108504
2.040078201368524
2.007820136852395
1.9775171065493649
1.948191593352884
1.9188660801564028
1.8875855327468232
1.855327468230694
1.822091886608016
1.7869012707722385
1.7517106549364614
1.715542521994135
1.6823069403714566
1.651026392961877
1.616813294232649
1.5806451612903225
1.543499511241447
1.5073313782991202
1.474095796676442
1.4418377321603129
1.4115347018572826
1.383186705767351
1.356793743890518
1.332355816226784
1.3098729227761483
1.2913000977517106
1.2756598240469208
1.2570869990224829
1.2375366568914956
1.219941348973607
1.203323558162268
1.1886608015640274
1.173998044965787
1.160312805474096
1.1466275659824048
1.133919843597263
1.121212121212121
1.1124144672531768
1.1055718475073313
1.096774193548387
1.086021505376344
1.0762463343108504
1.0684261974584557
1.06158357771261
1.0547409579667644
1.0498533724340176
1.0449657869012707
1.0410557184750733
1.0371456500488758
1.0332355816226784
1.0332355816226784
1.0342130987292275
1.0342130987292275
1.0332355816226784
1.0312805474095796
1.029325513196481
1.0273704789833822
1.0254154447702837
1.0234604105571847
1.0205278592375366
1.0175953079178883
1.0156402737047898
1.0156402737047898
1.0175953079178883
1.0175953079178883
1.0166177908113392
1.0146627565982405
1.013685239491691
1.0127077223851415
1.010752688172043
1.007820136852395
1.0039100684261977
1.0
0.997067448680352
0.9960899315738024
0.9980449657869012
1.0019550342130987
1.0048875855327468
1.0087976539589445
1.0146627565982405
1.0263929618768328
1.0469208211143697
1.0840664711632453
1.1436950146627567
1.2297165200391007
1.3450635386119256
1.4887585532746823
1.629521016617791
1.7732160312805474
1.9423264907135875
2.120234604105572
2.294232649071359
2.452590420332356
2.590420332355816
2.704789833822092
2.7966764418377323
2.8670576735092865
2.918866080156403
2.956011730205278
2.983382209188661
2.9960899315738025
2.99902248289345
3.0019550342130987
3.0
2.991202346041056
2.9745845552297165
2.9472140762463344
2.9071358748778104
2.855327468230694
2.791788856304985
2.717497556207233
2.634408602150537
2.555229716520039
2.47702834799609
2.3929618768328447
2.3098729227761488
2.231671554252199
2.1593352883675463
2.0957966764418376
2.040078201368524
1.991202346041056
1.949169110459433
1.9120234604105573
1.8778103616813293
1.8455522971652003
1.8172043010752688
1.7898338220918866
1.758553274682307
1.7233626588465298
1.6871945259042034
1.651026392961877
1.6138807429130009
1.5757575757575757
1.5386119257087
1.5034213098729228
1.4701857282502444
1.4379276637341154
1.4115347018572826
1.3890518084066472
1.364613880742913
1.3411534701857282
1.3176930596285434
1.295210166177908
1.2756598240469208
1.2570869990224829
1.2404692082111437
1.224828934506354
1.2111436950146628
1.198435972629521
1.1896383186705768
1.181818181818182
1.1710654936461389
1.1593352883675463
1.1466275659824048
1.133919843597263
1.121212121212121
1.1094819159335287
1.0977517106549364
1.086021505376344
1.075268817204301
1.064516129032258
1.053763440860215
1.0478983382209188
1.0439882697947214
1.0371456500488758
1.029325513196481
1.021505376344086
1.0146627565982405
1.0087976539589445
1.002932551319648
0.997067448680352
0.9921798631476052
0.9882697947214076
0.9853372434017597
0.9843597262952102
0.9853372434017597
0.9843597262952102
0.9833822091886608
0.981427174975562
0.9804496578690128
0.9804496578690128
0.9804496578690128
0.981427174975562
0.9833822091886608
0.9853372434017597
0.9872922776148584
0.989247311827957
0.9931573802541545
0.9980449657869012
1.0009775171065494
1.002932551319648
1.0039100684261977
1.0039100684261977
1.0039100684261977
1.0048875855327468
1.0068426197458455
1.0087976539589445
1.010752688172043
1.013685239491691
1.0205278592375366
1.0332355816226784
1.0547409579667644
1.0899315738025417
1.1456500488758554
1.227761485826002
1.3372434017595307
1.474095796676442
1.6344086021505375
1.8113391984359728
1.9951124144672527
2.175953079178885
2.347018572825025
2.4819159335288368
2.5884652981427174
2.66177908113392
2.705767350928641
2.7536656891495603
2.7947214076246336
2.8269794721407626
2.850439882697948
2.866080156402737
2.874877810361681
2.877810361681329
2.874877810361681
2.86217008797654
2.841642228739003
2.814271749755621
2.7781036168132944
2.7311827956989245
2.6725317693059627
2.6021505376344085
2.52297165200391
2.4379276637341154
2.3519061583577714
2.267839687194526
2.189638318670577
2.1192570869990224
2.06158357771261
2.013685239491691
1.9687194525904204
1.9286412512218964
1.8934506353861196
1.8621700879765395
1.8318670576735088
1.8025415444770283
1.7732160312805474
1.7429130009775171
1.7116324535679377
1.6793743890518085
1.6500488758553276
1.6226783968719452
1.5933528836754642
1.5620723362658846
1.5298142717497556
1.4975562072336266
1.466275659824047
1.435972629521017
1.4066471163245358
1.3792766373411536
1.3548387096774193
1.332355816226784
1.3128054740957966
1.2971652003910068
1.284457478005865
1.270772238514174
1.2580645161290325
1.2453567937438903
1.2336265884652982
1.2218963831867058
1.2111436950146628
1.2013685239491692
1.1906158357771262
1.1788856304985338
1.1671554252199414
1.1593352883675463
1.152492668621701
1.1436950146627567
1.133919843597263
1.1241446725317692
1.1133919843597262
1.1036168132942326
1.093841642228739
1.0850439882697946
1.0772238514173995
1.0694037145650048
1.0625610948191593
1.056695992179863
1.053763440860215
1.0518084066471165
1.0478983382209188
1.043010752688172
1.0391006842619743
1.0361681329423265
1.0332355816226784
1.0312805474095796
1.0303030303030305
1.0303030303030305
1.0303030303030305
1.0303030303030305
1.032258064516129
1.035190615835777
1.0371456500488758
1.0381231671554252
1.0381231671554252
1.0381231671554252
1.0371456500488758
1.0361681329423265
1.0342130987292275
1.0332355816226784
1.032258064516129
1.0312805474095796
1.032258064516129
1.035190615835777
1.040078201368524
1.043010752688172
1.04594330400782
1.0478983382209188
1.050830889540567
1.0557184750733135
1.0664711632453567
1.0879765395894427
1.126099706744868
1.18475073313783
1.267839687194526
1.3587487781036167
1.4633431085043989
1.6001955034213098
1.758553274682307
1.927663734115347
2.0977517106549364
2.260019550342131
2.406647116324536
2.5347018572825024
2.6402737047898337
2.724340175953079
2.787878787878788
2.834799608993157
2.8611925708699903
2.874877810361681
2.886608015640274
2.8944281524926687
2.8963831867057674
2.89247311827957
2.881720430107527
2.8641251221896384
2.835777126099707
2.7976539589442817
2.747800586510264
2.6881720430107525
2.625610948191593
2.558162267839687
2.4809384164222874
2.3978494623655915
2.313782991202346
2.231671554252199
2.155425219941349
2.0869990224828934
2.0283479960899315
1.978494623655914
1.9364613880742916
1.9012707722385145
1.8699902248289344
1.8435972629521016
1.818181818181818
1.7917888563049853
1.7624633431085044
1.7302052785923754
1.696969696969697
1.6627565982404693
1.6275659824046922
1.5913978494623655
1.5562072336265884
1.521016617790811
1.4868035190615836
1.458455522971652
1.434017595307918
1.4076246334310851
1.3822091886608017
1.3587487781036167
1.3362658846529814
1.3147605083088951
1.295210166177908
1.2766373411534702
1.260019550342131
1.2443792766373412
1.23069403714565
1.2209188660801564
1.2130987292277615
1.2043010752688172
1.1935483870967742
1.181818181818182
1.1691104594330402
1.1573802541544478
1.1456500488758554
1.1348973607038124
1.1251221896383188
