ppg
2.81622678396872
2.884652981427175
2.935483870967742
2.963831867057673
2.9765395894428157
2.98435972629521
2.9853372434017595
2.9804496578690127
2.9667644183773216
2.945259042033236
2.918866080156403
2.887585532746823
2.8514173998044967
2.811339198435973
2.766373411534702
2.721407624633431
2.6725317693059627
2.616813294232649
2.5532746823069403
2.482893450635386
2.404692082111437
2.3196480938416424
2.2297165200391005
2.1358748778103616
2.040078201368524
1.945259042033236
1.8523949169110456
1.772238514173998
1.7008797653958945
1.6275659824046922
1.5571847507331378
1.4936461388074291
1.439882697947214
1.3949169110459434
1.3587487781036167
1.332355816226784
1.3118279569892473
1.2971652003910068
1.2854349951124144
1.2776148582600195
1.273704789833822
1.2727272727272727
1.2697947214076246
1.2658846529814272
1.2619745845552297
1.2570869990224829
1.252199413489736
1.2453567937438903
1.2365591397849462
1.2267839687194526
1.217008797653959
1.206256109481916
1.1974584555229717
1.1896383186705768
1.1788856304985338
1.166177908113392
1.152492668621701
1.13880742913001
1.1241446725317692
1.1094819159335287
1.0957966764418376
1.0821114369501466
1.0684261974584557
1.0557184750733135
1.0439882697947214
1.0371456500488758
1.032258064516129
1.0254154447702837
1.018572825024438
1.013685239491691
1.0117302052785924
1.0117302052785924
1.0117302052785924
1.0117302052785924
1.0117302052785924
1.0117302052785924
1.0117302052785924
1.013685239491691
1.0175953079178883
1.0195503421309873
1.0205278592375366
1.021505376344086
1.0224828934506354
1.024437927663734
1.0273704789833822
1.0303030303030305
1.032258064516129
1.0332355816226784
1.0342130987292275
1.0342130987292275
1.0371456500488758
1.0439882697947214
1.056695992179863
1.083088954056696
1.1300097751710656
1.2052785923753666
1.310850439882698
1.4457478005865103
1.6050830889540566
1.7820136852394917
1.9657869012707725
2.1485826001955037
2.3010752688172045
2.4330400782013686
2.567937438905181
2.6930596285435
2.8025415444770285
2.89345063538612
2.9657869012707723
3.0195503421309877
3.056695992179863
3.0791788856304985
3.088954056695992
3.0869990224828934
3.075268817204301
3.0547409579667644
3.026392961876833
2.995112414467253
2.9589442815249267
2.917888563049853
2.8719452590420333
2.8211143695014664
2.7653958944281527
2.704789833822092
2.638318670576735
2.5640273704789838
2.482893450635386
2.404692082111437
2.3284457478005867
2.241446725317693
2.1495601173020527
2.0547409579667644
1.9618768328445748
1.8729227761485825
1.7888563049853372
1.7116324535679377
1.6422287390029326
1.5835777126099706
1.5356793743890518
1.4965786901270772
1.469208211143695
1.4496578690127078
1.434017595307918
1.4213098729227762
1.4105571847507332
1.4027370478983383
1.3958944281524928
1.3900293255131966
1.3841642228739004
1.3792766373411536
1.3734115347018572
1.3655913978494625
1.3587487781036167
1.3528836754643203
1.3450635386119256
1.3372434017595307
1.3294232649071358
1.3206256109481915
1.3098729227761483
1.2971652003910068
1.284457478005865
1.2717497556207231
1.260019550342131
1.249266862170088
1.238514173998045
1.2316715542521994
1.2258064516129032
1.2179863147605083
1.2082111436950147
1.198435972629521
1.1886608015640274
1.1798631476050832
1.1720430107526882
1.164222873900293
1.152492668621701
1.13880742913001
1.1280547409579669
1.1231671554252198
1.1221896383186705
1.1202346041055715
1.118279569892473
1.115347018572825
1.1133919843597262
1.110459433040078
1.10752688172043
1.1055718475073313
1.1026392961876832
1.1006842619745845
1.0977517106549364
1.0948191593352885
1.0957966764418376
1.0977517106549364
1.0977517106549364
1.096774193548387
1.0948191593352885
1.0928641251221896
1.093841642228739
1.1026392961876832
1.126099706744868
1.1710654936461389
1.2424242424242424
1.3421309872922775
1.4486803519061584
1.564027370478983
1.70772238514174
1.8670576735092863
2.0283479960899315
2.1847507331378297
2.329423264907136
2.4594330400782014
2.572825024437928
2.667644183773216
2.7438905180840663
2.803519061583578
2.84652981427175
2.8699902248289346
2.8797653958944283
2.884652981427175
2.8836754643206257
2.875855327468231
2.8611925708699903
2.8396871945259043
2.8132942326490715
2.7810361681329425
2.744868035190616
2.702834799608993
2.653958944281525
2.6041055718475072
2.552297165200391
2.4946236559139785
2.432062561094819
2.363636363636364
2.289345063538612
2.210166177908113
2.126099706744868
2.037145650048876
1.945259042033236
1.8523949169110456
1.7624633431085044
1.6774193548387095
1.6080156402737047
1.5493646138807429
1.4926686217008798
1.4418377321603129
1.3998044965786902
1.3665689149560116
1.3411534701857282
1.3235581622678396
1.310850439882698
1.303030303030303
1.2981427174975562
1.2942326490713587
1.2932551319648091
1.2932551319648091
1.2913000977517106
1.289345063538612
1.2873900293255132
1.2834799608993157
1.2776148582600195
1.270772238514174
1.2609970674486803
1.2512218963831867
1.241446725317693
1.23069403714565
1.2228739002932552
1.2150537634408602
1.2043010752688172
1.1906158357771262
1.176930596285435
1.164222873900293
1.1515151515151516
1.13880742913001
1.126099706744868
1.1133919843597262
1.1016617790811338
1.0899315738025417
1.0801564027370478
1.075268817204301
1.072336265884653
1.0654936461388074
1.0586510263929618
1.0518084066471165
1.04594330400782
1.0410557184750733
1.0361681329423265
1.032258064516129
1.0303030303030305
1.029325513196481
1.0283479960899315
1.029325513196481
1.0312805474095796
1.032258064516129
1.0332355816226784
1.0361681329423265
1.040078201368524
1.0439882697947214
1.0488758553274682
1.053763440860215
1.0586510263929618
1.0635386119257086
1.0664711632453567
1.0703812316715542
1.0762463343108504
1.0879765395894427
1.110459433040078
1.1505376344086022
1.2150537634408602
1.3069403714565004
1.426197458455523
1.56891495601173
1.729227761485826
1.8983382209188664
2.069403714565005
2.2346041055718477
2.3685239491691106
2.479960899315738
2.591397849462365
2.69208211143695
2.7781036168132944
2.8475073313782997
2.8993157380254155
2.936461388074292
2.959921798631476
2.9716520039100685
2.972629521016618
2.963831867057673
2.948191593352884
2.9257086999022484
2.8993157380254155
2.868035190615836
2.831867057673509
2.790811339198436
2.7438905180840663
2.69208211143695
2.635386119257087
2.573802541544477
2.506353861192571
2.4330400782013686
2.35386119257087
2.2795698924731185
2.206256109481916
2.124144672531769
2.038123167155425
1.9521016617790807
1.8670576735092863
1.7878787878787878
1.7165200391006843
1.6520039100684265
1.595307917888563
1.547409579667644
1.509286412512219
1.479960899315738
1.4613880742913
1.4496578690127078
1.439882697947214
1.4330400782013686
1.4291300097751711
1.4252199413489737
1.4222873900293256
1.4193548387096775
1.4164222873900294
1.4134897360703813
1.4086021505376345
1.4027370478983383
1.3998044965786902
1.396871945259042
1.391006842619746
1.383186705767351
1.3743890518084063
1.364613880742913
1.3548387096774193
1.3440860215053765
1.332355816226784
1.3206256109481915
1.3088954056695992
1.2971652003910068
1.284457478005865
1.2756598240469208
1.267839687194526
1.2570869990224829
1.24633431085044
1.2355816226783969
1.2258064516129032
1.2160312805474096
1.2052785923753666
1.195503421309873
1.1857282502443791
1.1759530791788857
1.1681329423264908
1.164222873900293
1.1622678396871946
1.160312805474096
1.1583577712609971
1.1564027370478984
1.1534701857282503
1.1505376344086022
1.1485826001955035
1.1456500488758554
1.1436950146627567
1.1407624633431086
1.1397849462365592
1.1407624633431086
1.1436950146627567
1.1485826001955035
1.152492668621701
1.1544477028347997
1.1544477028347997
1.1544477028347997
1.1573802541544478
1.1691104594330402
1.198435972629521
1.2502443792766371
1.3294232649071358
1.4379276637341154
1.5513196480938416
1.6735092864125125
1.8240469208211143
1.988269794721408
2.15347018572825
2.310850439882698
2.4545454545454546
2.581622678396872
2.6901270772238512
2.780058651026393
2.852394916911046
2.90811339198436
2.949169110459433
2.9716520039100685
2.9804496578690127
2.986314760508309
2.986314760508309
2.979472140762464
2.9667644183773216
2.9472140762463344
2.920821114369501
2.8885630498533725
2.850439882697948
2.8084066471163247
2.7614858260019552
2.7145650048875853
2.6637341153470184
2.606060606060606
2.541544477028348
2.4701857282502444
2.3919843597262958
2.3059628543499517
2.2160312805474094
2.12316715542522
2.0283479960899315
1.9345063538611929
1.8435972629521016
1.7575757575757576
1.6871945259042034
1.6285434995112416
1.5698924731182795
1.517106549364614
1.4721407624633431
1.4349951124144673
1.4056695992179864
1.383186705767351
1.3665689149560116
1.3548387096774193
1.3479960899315735
1.3450635386119256
1.3440860215053765
1.3450635386119256
1.343108504398827
1.3391984359726294
1.335288367546432
1.3304007820136852
1.3225806451612905
1.313782991202346
1.3049853372434017
1.2961876832844574
1.2864125122189638
1.2756598240469208
1.2639296187683284
1.2551319648093842
1.2473118279569892
1.2375366568914956
1.2267839687194526
1.2150537634408602
1.2043010752688172
1.1925708699902249
1.1808406647116323
1.1681329423264908
1.1564027370478984
1.1456500488758554
1.1368523949169111
1.130987292277615
1.1280547409579669
1.1221896383186705
1.1163245356793745
1.1094819159335287
1.1016617790811338
1.093841642228739
1.0869990224828934
1.0811339198435972
1.0772238514173995
1.0742913000977516
1.0713587487781036
1.0713587487781036
1.072336265884653
1.0713587487781036
1.0713587487781036
1.072336265884653
1.0742913000977516
1.0762463343108504
1.078201368523949
1.0801564027370478
1.0801564027370478
1.0791788856304985
1.0772238514173995
1.078201368523949
1.0850439882697946
1.1026392961876832
1.1368523949169111
1.1935483870967742
1.2776148582600195
1.3900293255131966
1.5278592375366569
1.686217008797654
1.855327468230694
2.026392961876833
2.190615835777126
2.343108504398827
2.462365591397849
2.557184750733138
2.649071358748778
2.730205278592375
2.7966764418377323
2.8484848484848486
2.8856304985337244
2.909090909090909
2.920821114369501
2.9227761485826003
2.9149560117302054
2.898338220918866
2.874877810361681
2.84652981427175
2.8152492668621703
2.7810361681329425
2.742913000977517
2.7008797653958942
2.653958944281525
2.60019550342131
2.541544477028348
2.4750733137829912
2.4027370478983383
2.3255131964809386
2.242424242424242
2.1652003910068425
2.09188660801564
2.010752688172043
1.9257086999022484
1.842619745845552
1.7634408602150538
1.6920821114369502
1.6285434995112416
1.573802541544477
1.5278592375366569
1.490713587487781
1.4643206256109482
1.447702834799609
1.4389051808406648
1.435972629521017
1.4379276637341154
1.4428152492668622
1.4486803519061584
1.4545454545454546
1.4604105571847508
1.4652981427174976
1.469208211143695
1.4701857282502444
1.4682306940371457
1.4643206256109482
1.4604105571847508
1.455522971652004
1.447702834799609
1.436950146627566
1.4252199413489737
1.4105571847507332
1.3949169110459434
1.3792766373411536
1.364613880742913
1.348973607038123
1.3333333333333333
1.316715542521994
1.3010752688172045
1.289345063538612
1.278592375366569
1.2658846529814272
1.252199413489736
1.238514173998045
1.2258064516129032
1.2140762463343109
1.203323558162268
1.1925708699902249
1.1808406647116323
1.1700879765395895
1.1593352883675463
1.152492668621701
1.147605083088954
1.141739980449658
1.1348973607038124
1.1270772238514175
1.121212121212121
1.1163245356793745
1.1133919843597262
1.1124144672531768
1.1133919843597262
1.1133919843597262
1.1124144672531768
1.110459433040078
1.1114369501466277
1.1114369501466277
1.1085043988269794
1.1055718475073313
1.1065493646138806
1.1173020527859236
1.1436950146627567
1.1935483870967742
1.270772238514174
1.3763440860215057
1.509286412512219
1.6627565982404693
1.8064516129032255
1.9442815249266865
2.096774193548387
2.249266862170088
2.3919843597262958
2.520039100684262
2.63049853372434
2.721407624633431
2.792766373411535
2.8475073313782997
2.886608015640274
2.913000977517106
2.927663734115347
2.929618768328446
2.920821114369501
2.90811339198436
2.8905180840664717
2.868035190615836
2.8406647116324537
2.8084066471163247
2.773216031280548
2.732160312805474
2.6852394916911044
2.633431085043988
2.576735092864125
2.5210166177908118
2.4613880742913
2.391006842619746
2.3118279569892475
2.2248289345063537
2.133919843597263
2.040078201368524
1.946236559139785
1.8543499511241448
1.7653958944281525
1.6823069403714566
1.607038123167155
1.5405669599217986
1.4897360703812317
1.4486803519061584
1.4105571847507332
1.3792766373411536
1.3548387096774193
1.3362658846529814
1.3235581622678396
1.3147605083088951
1.3098729227761483
1.3079178885630498
1.3069403714565004
1.305962854349951
1.305962854349951
1.305962854349951
1.303030303030303
1.2991202346041055
1.2942326490713587
1.2873900293255132
1.2805474095796676
1.273704789833822
1.2658846529814272
1.2570869990224829
1.2316715542521994
1.1974584555229717
1.1749755620723363
1.1622678396871946
1.152492668621701
1.13880742913001
1.1251221896383188
1.1114369501466277
1.0987292277614855
1.0869990224828934
1.075268817204301
1.0654936461388074
1.056695992179863
1.0469208211143697
1.0371456500488758
1.0303030303030305
1.0254154447702837
1.018572825024438
1.0117302052785924
1.0039100684261977
0.997067448680352
0.9902248289345064
0.9843597262952102
0.978494623655914
0.9745845552297164
0.9726295210166178
0.9716520039100685
0.9736070381231672
0.978494623655914
0.9824046920821116
0.9863147605083088
0.9882697947214076
0.989247311827957
0.989247311827957
0.989247311827957
0.9902248289345064
0.9921798631476052
1.0019550342130987
1.0263929618768328
1.0713587487781036
1.1300097751710656
1.2082111436950147
1.3225806451612905
1.4672531769305963
1.6334310850439884
1.8132942326490715
1.9960899315738023
2.1739980449657867
2.3382209188660803
2.484848484848485
2.611925708699902
2.717497556207233
2.790811339198436
2.841642228739003
2.8856304985337244
2.918866080156403
2.9423264907135875
2.9550342130987293
2.9579667644183774
2.952101661779081
2.93841642228739
2.916911045943304
2.889540566959922
2.8563049853372435
2.817204301075269
2.774193548387097
2.727272727272727
2.674486803519061
2.616813294232649
2.5532746823069403
2.4838709677419355
2.406647116324536
2.3225806451612905
2.232649071358749
2.136852394916911
2.0391006842619745
1.9413489736070384
1.855327468230694
1.7771260997067448
1.6959921798631477
1.6187683284457477
1.547409579667644
1.4838709677419355
1.43108504398827
1.388074291300098
1.35386119257087
1.3294232649071358
1.3118279569892473
1.2991202346041055
1.2913000977517106
1.289345063538612
1.289345063538612
1.289345063538612
1.289345063538612
1.289345063538612
1.2883675464320623
1.284457478005865
1.2805474095796676
1.2746823069403714
1.267839687194526
1.260019550342131
1.252199413489736
1.2473118279569892
1.2424242424242424
1.2355816226783969
1.2287390029325511
1.2209188660801564
1.2121212121212122
1.2023460410557183
1.1906158357771262
1.1779081133919844
1.164222873900293
1.1505376344086022
1.1378299120234605
1.126099706744868
1.118279569892473
1.1133919843597262
1.1065493646138806
1.0987292277614855
1.0918866080156402
1.086021505376344
1.0801564027370478
1.075268817204301
1.0703812316715542
1.0654936461388074
1.06158357771261
1.056695992179863
1.0547409579667644
1.0547409579667644
1.053763440860215
1.0518084066471165
1.0488758553274682
1.0469208211143697
1.0449657869012707
1.0439882697947214
1.0439882697947214
1.043010752688172
1.0410557184750733
1.0381231671554252
1.035190615835777
1.0342130987292275
1.0361681329423265
1.0420332355816226
1.0596285434995112
1.0957966764418376
1.1564027370478984
1.2473118279569892
1.3685239491691104
1.5161290322580645
1.683284457478006
1.86119257086999
2.040078201368524
2.188660801564027
2.315738025415445
2.4457478005865103
2.565982404692082
2.670576735092864
2.758553274682307
2.8269794721407626
2.87683284457478
2.911045943304008
2.9315738025415445
2.940371456500489
2.9374389051808407
2.924731182795699
2.903225806451613
2.874877810361681
2.843597262952102
2.8084066471163247
2.768328445747801
2.7233626588465296
2.673509286412512
2.6177908113391983
2.555229716520039
2.486803519061584
2.412512218963832
2.3313782991202348
2.2551319648093844
2.1788856304985336
2.09188660801564
1.9990224828934504
1.903225806451613
1.8074291300097751
1.7135874877810362
1.6256109481915937
1.5454545454545454
1.4750733137829912
1.41544477028348
1.3665689149560116
1.3264907135874875
1.2981427174975562
1.2795698924731185
1.262952101661779
1.2512218963831867
1.2424242424242424
1.2375366568914956
1.2336265884652982
1.2297165200391007
1.2267839687194526
1.2228739002932552
1.217008797653959
1.2101661779081134
1.2043010752688172
1.198435972629521
1.1886608015640274
1.176930596285435
1.1652003910068427
1.1534701857282503
1.142717497556207
1.1300097751710656
1.1163245356793745
1.1006842619745845
1.0850439882697946
1.0694037145650048
1.053763440860215
1.0420332355816226
1.032258064516129
1.0195503421309873
1.0068426197458455
0.9951124144672532
0.9824046920821116
0.9687194525904204
0.95405669599218
0.9393939393939394
0.9257086999022482
0.913978494623656
0.9042033235581622
0.8993157380254154
0.8983382209188661
0.8963831867057673
0.8934506353861192
0.8914956011730205
0.8885630498533724
0.8866080156402737
0.884652981427175
0.8836754643206256
0.884652981427175
0.8866080156402737
0.8885630498533724
0.8914956011730205
0.8973607038123167
0.9032258064516128
0.906158357771261
0.9081133919843596
0.9090909090909092
0.9090909090909092
0.9100684261974584
0.913978494623656
0.9286412512218964
0.9608993157380256
1.0175953079178883
1.1036168132942326
1.2013685239491692
1.3147605083088951
1.4623655913978495
1.6334310850439884
1.8318670576735088
2.037145650048876
2.218963831867057
2.3792766373411536
2.517106549364614
2.633431085043988
2.729227761485826
2.8054740957966766
2.8563049853372435
2.887585532746823
2.913000977517106
2.9286412512218964
2.932551319648094
2.9286412512218964
2.9159335288367547
2.895405669599218
2.8670576735092865
2.832844574780059
2.793743890518084
2.7497556207233624
2.699902248289345
2.649071358748778
2.5962854349951123
2.535679374389052
2.4672531769305963
2.3929618768328447
2.312805474095797
2.228739002932551
2.1407624633431084
2.0518084066471163
1.962854349951124
1.8758553274682308
1.7947214076246334
1.7272727272727273
1.6705767350928642
1.6158357771260996
1.5679374389051808
1.5288367546432062
1.499511241446725
1.479960899315738
1.469208211143695
1.4643206256109482
1.4652981427174976
1.4711632453567938
1.479960899315738
1.4897360703812317
1.498533724340176
1.5053763440860215
1.5102639296187683
1.512218963831867
1.512218963831867
1.509286412512219
1.5024437927663734
1.4936461388074291
1.4819159335288368
1.466275659824047
1.4496578690127078
1.4330400782013686
1.418377321603128
1.404692082111437
1.3870967741935485
1.3695014662756595
1.3509286412512218
1.3333333333333333
1.3157380254154447
1.2971652003910068
1.2795698924731185
1.2639296187683284
1.2482893450635386
1.2326490713587488
1.217008797653959
1.2052785923753666
1.198435972629521
1.1896383186705768
1.1798631476050832
1.1700879765395895
1.1622678396871946
1.1544477028347997
1.1466275659824048
1.13880742913001
1.130987292277615
1.1241446725317692
1.1192570869990224
1.118279569892473
1.1192570869990224
1.118279569892473
1.1163245356793745
1.1143695014662756
1.1124144672531768
1.1114369501466277
1.1114369501466277
1.110459433040078
1.1085043988269794
1.10752688172043
1.1065493646138806
1.10752688172043
1.1133919843597262
1.130987292277615
1.166177908113392
1.2267839687194526
1.3176930596285434
1.4379276637341154
1.58455522971652
1.750733137829912
1.9286412512218964
2.1094819159335287
2.2844574780058653
2.44672531769306
2.572825024437928
2.6725317693059627
2.76930596285435
2.8533724340175954
2.921798631476051
2.973607038123167
3.0097751710654936
3.032258064516129
3.0449657869012707
3.048875855327468
3.0439882697947214
3.032258064516129
3.013685239491691
2.988269794721408
2.9579667644183774
2.924731182795699
2.8856304985337244
2.841642228739003
2.792766373411535
2.7370478983382207
2.675464320625611
2.606060606060606
2.529814271749756
2.447702834799609
2.360703812316716
2.278592375366569
2.19941348973607
2.1114369501466275
2.0205278592375366
1.9305962854349952
1.844574780058651
1.7624633431085044
1.6881720430107527
1.6226783968719452
1.565982404692082
1.5190615835777126
1.4809384164222874
1.4506353861192571
1.43108504398827
1.418377321603128
1.4076246334310851
1.3988269794721409
1.392961876832845
1.3900293255131966
1.388074291300098
1.3861192570869991
1.383186705767351
1.3792766373411536
1.3743890518084063
1.3695014662756595
1.364613880742913
1.359726295210166
1.3519061583577712
1.3421309872922775
1.332355816226784
1.321603128054741
1.3088954056695992
1.2961876832844574
1.2834799608993157
1.270772238514174
1.2590420332355816
1.2473118279569892
1.2355816226783969
1.227761485826002
1.2218963831867058
1.2140762463343109
1.2052785923753666
1.1964809384164223
1.187683284457478
1.1798631476050832
1.1720430107526882
1.164222873900293
1.1564027370478984
1.1485826001955035
1.141739980449658
1.1397849462365592
1.13880742913001
1.1358748778103618
1.1329423264907137
1.1300097751710656
1.1270772238514175
1.1251221896383188
1.1231671554252198
1.1231671554252198
1.1231671554252198
1.1231671554252198
1.1231671554252198
1.1231671554252198
1.1231671554252198
1.1231671554252198
1.1231671554252198
1.1231671554252198
1.1270772238514175
1.144672531769306
1.1827956989247312
1.24633431085044
1.3401759530791788
1.4633431085043989
1.6109481915933528
1.7771260997067448
1.9296187683284456
2.071358748778104
2.2248289345063537
2.377321603128055
2.5180840664711632
2.641251221896383
2.744868035190616
2.8289345063538613
2.8944281524926687
2.943304007820137
2.9775171065493646
2.997067448680352
3.004887585532747
3.0
2.986314760508309
2.967741935483871
2.9442815249266863
2.9159335288367547
2.8836754643206257
2.84652981427175
2.8054740957966766
2.758553274682307
2.705767350928641
2.6451612903225805
2.576735092864125
2.509286412512219
2.4408602150537635
2.3626588465298144
2.2766373411534704
2.185728250244379
2.09188660801564
1.997067448680352
1.9012707722385145
1.8074291300097751
1.718475073313783
1.6363636363636365
1.564027370478983
1.5073313782991202
1.4623655913978495
1.4213098729227762
1.3870967741935485
1.3607038123167154
1.3411534701857282
1.327468230694037
1.3186705767350928
1.3147605083088951
1.3128054740957966
1.3098729227761483
1.2825024437927663
1.2424242424242424
1.2218963831867058
1.2101661779081134
1.2003910068426198
1.1915933528836755
1.1837732160312806
1.1759530791788857
1.1671554252199414
1.1573802541544478
1.147605083088954
1.1358748778103618
1.1221896383186705
1.1065493646138806
1.093841642228739
1.083088954056696
1.0684261974584557
1.0518084066471165
1.035190615835777
1.0195503421309873
1.0048875855327468
0.989247311827957
0.9745845552297164
0.959921798631476
0.9452590420332356
0.9335288367546432
0.9237536656891496
0.9188660801564028
0.916911045943304
0.9130009775171064
0.9081133919843596
0.9022482893450636
0.8963831867057673
0.8895405669599218
0.8836754643206256
0.8787878787878788
0.8758553274682307
0.8729227761485826
0.8709677419354839
0.873900293255132
0.8797653958944281
0.8836754643206256
0.8875855327468231
0.8934506353861192
0.8983382209188661
0.9022482893450636
0.9051808406647116
0.9071358748778104
0.9110459433040078
0.9208211143695014
0.946236559139785
0.9931573802541545
