ppg
1.0742913000977516
1.067448680351906
1.0596285434995112
1.0527859237536656
1.0478983382209188
1.0449657869012707
1.0449657869012707
1.0478983382209188
1.0488758553274682
1.0498533724340176
1.0498533724340176
1.0498533724340176
1.0498533724340176
1.0488758553274682
1.04594330400782
1.0410557184750733
1.0361681329423265
1.0303030303030305
1.0224828934506354
1.0175953079178883
1.0146627565982405
1.0127077223851415
1.0146627565982405
1.029325513196481
1.064516129032258
1.1251221896383188
1.2160312805474096
1.33822091886608
1.4868035190615836
1.6549364613880744
1.8347996089931573
1.994134897360704
2.1378299120234603
2.291300097751711
2.4389051808406648
2.570869990224829
2.681329423264907
2.76930596285435
2.8367546432062563
2.884652981427175
2.913000977517106
2.9257086999022484
2.9266862170087977
2.913000977517106
2.887585532746823
2.8533724340175954
2.8103616813294234
2.757575757575758
2.6959921798631474
2.6285434995112413
2.5542521994134897
2.4750733137829912
2.393939393939394
2.310850439882698
2.2297165200391005
2.15347018572825
2.088954056695992
2.0361681329423265
1.9872922776148585
1.943304007820137
1.905180840664712
1.8748778103616808
1.8514173998044965
1.8318670576735088
1.8142717497556209
1.7996089931573802
1.7878787878787878
1.775171065493646
1.761485826001955
1.7487781036168133
1.7360703812316716
1.721407624633431
1.7038123167155426
1.6852394916911049
1.6656891495601174
1.6451612903225807
1.6217008797653958
1.5962854349951123
1.5708699902248289
1.543499511241447
1.5151515151515151
1.490713587487781
1.469208211143695
1.4457478005865103
1.4222873900293256
1.3988269794721409
1.3773216031280548
1.356793743890518
1.335288367546432
1.313782991202346
1.2913000977517106
1.270772238514174
1.2531769305962854
1.2365591397849462
1.224828934506354
1.2150537634408602
1.2023460410557183
1.1906158357771262
1.1779081133919844
1.164222873900293
1.1515151515151516
1.1397849462365592
1.1300097751710656
1.1221896383186705
1.1143695014662756
1.10752688172043
1.104594330400782
1.1016617790811338
1.096774193548387
1.0918866080156402
1.0879765395894427
1.0840664711632453
1.0791788856304985
1.0742913000977516
1.0694037145650048
1.064516129032258
1.0596285434995112
1.0547409579667644
1.0527859237536656
1.053763440860215
1.0547409579667644
1.0547409579667644
1.0527859237536656
1.0478983382209188
1.0410557184750733
1.0332355816226784
1.0254154447702837
1.0205278592375366
1.018572825024438
1.0283479960899315
1.0547409579667644
1.0928641251221896
1.1495601173020529
1.238514173998045
1.3587487781036167
1.5053763440860215
1.6715542521994136
1.8494623655913975
2.0303030303030303
2.204301075268817
2.364613880742913
2.505376344086021
2.624633431085044
2.7116324535679373
2.776148582600196
2.835777126099707
2.8826979472140764
2.9120234604105573
2.9257086999022484
2.924731182795699
2.9100684261974585
2.8826979472140764
2.8455522971652005
2.7996089931573804
2.7438905180840663
2.677419354838709
2.608993157380254
2.5376344086021505
2.4565004887585533
2.3704789833822093
2.2844574780058653
2.201368523949169
2.1251221896383186
2.0576735092864125
1.9980449657869013
1.946236559139785
1.903225806451613
1.868035190615836
1.839687194525904
1.8172043010752688
1.7976539589442817
1.780058651026393
1.7644183773216031
1.7497556207233629
1.7360703812316716
1.7243401759530792
1.715542521994135
1.7057673509286413
1.694037145650049
1.678396871945259
1.6588465298142718
1.6392961876832846
1.6187683284457477
1.5943304007820136
1.5698924731182795
1.5454545454545454
1.52297165200391
1.500488758553275
1.4760508308895406
1.4516129032258065
1.4271749755620724
1.401759530791789
1.3743890518084063
1.3509286412512218
1.3284457478005864
1.3049853372434017
1.284457478005865
1.2668621700879763
1.2512218963831867
1.2355816226783969
1.219941348973607
1.2052785923753666
1.1906158357771262
1.1759530791788857
1.1612903225806452
1.1466275659824048
1.1368523949169111
1.1319648093841643
1.1251221896383188
1.1173020527859236
1.110459433040078
1.10752688172043
1.104594330400782
1.1006842619745845
1.0957966764418376
1.0909090909090908
1.0850439882697946
1.0801564027370478
1.0801564027370478
1.0811339198435972
1.0791788856304985
1.0772238514173995
1.0762463343108504
1.075268817204301
1.072336265884653
1.0684261974584557
1.064516129032258
1.0596285434995112
1.0547409579667644
1.0488758553274682
1.0420332355816226
1.0371456500488758
1.0361681329423265
1.035190615835777
1.0361681329423265
1.0439882697947214
1.0664711632453567
1.1094819159335287
1.1779081133919844
1.2746823069403714
1.3978494623655917
1.544477028347996
1.70772238514174
1.8563049853372435
1.9960899315738023
2.1515151515151514
2.3059628543499517
2.449657869012708
2.579667644183773
2.6930596285435
2.7869012707722387
2.859237536656892
2.9100684261974585
2.943304007820137
2.960899315738025
2.964809384164223
2.956011730205278
2.936461388074292
2.909090909090909
2.873900293255132
2.833822091886608
2.787878787878788
2.7311827956989245
2.665689149560117
2.592375366568915
2.5141739980449658
2.434017595307918
2.35386119257087
2.280547409579668
2.2130987292277613
2.1436950146627565
2.080156402737048
2.0254154447702835
1.9765395894428155
1.9345063538611929
1.8993157380254155
1.871945259042033
1.8504398826979471
1.8347996089931573
1.822091886608016
1.8093841642228736
1.7976539589442817
1.7859237536656891
1.772238514173998
1.7556207233626588
1.7360703812316716
1.7165200391006843
1.6950146627565983
1.6705767350928642
1.643206256109482
1.6148582600195502
1.5865102639296187
1.560117302052786
1.5386119257087
1.5190615835777126
1.4965786901270772
1.4731182795698925
1.4486803519061584
1.4242424242424243
1.3978494623655917
1.3695014662756595
1.3411534701857282
1.3157380254154447
1.2932551319648091
1.273704789833822
1.2551319648093842
1.2404692082111437
1.227761485826002
1.2130987292277615
1.198435972629521
1.1827956989247312
1.1681329423264908
1.155425219941349
1.1466275659824048
1.1397849462365592
1.133919843597263
1.1270772238514175
1.1173020527859236
1.1085043988269794
1.1016617790811338
1.093841642228739
1.086021505376344
1.0791788856304985
1.072336265884653
1.0664711632453567
1.0635386119257086
1.06158357771261
1.0606060606060606
1.0586510263929618
1.0557184750733135
1.0518084066471165
1.0498533724340176
1.0488758553274682
1.04594330400782
1.040078201368524
1.032258064516129
1.0234604105571847
1.0146627565982405
1.007820136852395
1.0048875855327468
1.0087976539589445
1.0234604105571847
1.0547409579667644
1.096774193548387
1.152492668621701
1.2365591397849462
1.3519061583577712
1.4916911045943304
1.651026392961877
1.823069403714565
2.0
2.175953079178885
2.3411534701857284
2.490713587487781
2.621700879765396
2.718475073313783
2.787878787878788
2.8514173998044967
2.903225806451613
2.9393939393939394
2.959921798631476
2.9667644183773216
2.960899315738025
2.945259042033236
2.918866080156403
2.8807429130009776
2.831867057673509
2.7722385141739982
2.7096774193548385
2.644183773216031
2.5698924731182795
2.490713587487781
2.4086021505376345
2.326490713587488
2.24633431085044
2.1700879765395893
2.0987292277614857
2.035190615835777
1.9804496578690127
1.932551319648094
1.8963831867057677
1.868035190615836
1.8435972629521016
1.8240469208211143
1.8064516129032255
1.7898338220918866
1.7741935483870968
1.7595307917888563
1.7438905180840665
1.729227761485826
1.7126099706744868
1.694037145650049
1.675464320625611
1.656891495601173
1.6373411534701858
1.6138807429130009
1.5884652981427174
1.564027370478983
1.5395894428152492
1.5141739980449658
1.4887585532746823
1.4643206256109482
1.4389051808406648
1.41544477028348
1.391006842619746
1.3695014662756595
1.3519061583577712
1.3313782991202343
1.3088954056695992
1.2834799608993157
1.2609970674486803
1.2394916911045943
1.2189638318670577
1.2013685239491692
1.18475073313783
1.1691104594330402
1.1534701857282503
1.1407624633431086
1.133919843597263
1.1300097751710656
1.1231671554252198
1.115347018572825
1.10752688172043
1.099706744868035
1.0928641251221896
1.0840664711632453
1.0742913000977516
1.064516129032258
1.0557184750733135
1.0478983382209188
1.043010752688172
1.040078201368524
1.0381231671554252
1.0371456500488758
1.0361681329423265
1.0361681329423265
1.0332355816226784
1.0273704789833822
1.021505376344086
1.013685239491691
1.0039100684261977
0.9951124144672532
0.9872922776148584
0.9824046920821116
0.978494623655914
0.9726295210166178
0.9687194525904204
0.967741935483871
0.9736070381231672
0.9931573802541545
1.0332355816226784
1.099706744868035
1.195503421309873
1.3206256109481915
1.4721407624633431
1.616813294232649
1.7595307917888563
1.924731182795699
2.0948191593352883
2.2580645161290325
2.4086021505376345
2.544477028347996
2.6608015640273703
2.7565982404692084
2.832844574780059
2.887585532746823
2.9227761485826003
2.93841642228739
2.9335288367546437
2.913000977517106
2.8826979472140764
2.843597262952102
2.7966764418377323
2.740957966764418
2.67644183773216
2.6050830889540566
2.5268817204301075
2.442815249266862
2.355816226783969
2.269794721407625
2.1955034213098727
2.129032258064516
2.06158357771261
1.9980449657869013
1.9423264907135875
1.8963831867057677
1.858260019550342
1.8269794721407624
1.8025415444770283
1.782991202346041
1.7663734115347018
1.7517106549364614
1.7390029325513197
1.729227761485826
1.7233626588465298
1.7174975562072337
1.7096774193548387
1.7008797653958945
1.6911045943304008
1.678396871945259
1.7165200391006843
1.8592375366568916
1.9872922776148585
2.0987292277614857
2.177908113391984
2.232649071358749
2.280547409579668
2.315738025415445
2.337243401759531
2.345063538611926
2.3421309872922778
2.3284457478005867
2.304007820136853
2.270772238514174
2.2297165200391005
2.1808406647116323
2.1974584555229715
2.24633431085044
2.239491691104594
2.2023460410557183
2.147605083088954
2.0840664711632453
2.0195503421309877
1.9560117302052784
1.895405669599218
1.8416422287390029
1.796676441837732
1.758553274682307
1.726295210166178
1.7018572825024438
1.6842619745845553
1.6705767350928642
1.6588465298142718
1.6480938416422288
1.640273704789834
1.6304985337243405
1.619745845552297
1.6080156402737047
1.5962854349951123
1.58455522971652
1.5708699902248289
1.5581622678396871
1.5454545454545454
1.530791788856305
1.5151515151515151
1.498533724340176
1.479960899315738
1.4594330400782014
1.4379276637341154
1.418377321603128
1.3988269794721409
1.3792766373411536
1.3587487781036167
1.3391984359726294
1.3235581622678396
1.3098729227761483
1.2942326490713587
1.2766373411534702
1.2551319648093842
1.2336265884652982
1.2121212121212122
1.1925708699902249
1.1749755620723363
1.160312805474096
1.1466275659824048
1.133919843597263
1.1241446725317692
1.1163245356793745
1.1065493646138806
1.096774193548387
1.0879765395894427
1.0801564027370478
1.072336265884653
1.064516129032258
1.056695992179863
1.0488758553274682
1.0420332355816226
1.0371456500488758
1.0342130987292275
1.032258064516129
1.032258064516129
1.032258064516129
1.032258064516129
1.0312805474095796
1.029325513196481
1.024437927663734
1.018572825024438
1.0117302052785924
1.0039100684261977
0.9960899315738024
0.9872922776148584
0.9824046920821116
0.978494623655914
0.9726295210166178
0.967741935483871
0.967741935483871
0.9745845552297164
0.9941348973607038
1.032258064516129
1.0899315738025417
1.1691104594330402
1.2688172043010753
1.388074291300098
1.520039100684262
1.640273704789834
1.7526881720430108
1.87683284457478
2.0009775171065494
2.1163245356793743
2.219941348973607
2.30791788856305
2.380254154447703
2.436950146627566
2.4789833822091887
2.5083088954056696
2.527859237536657
2.532746823069404
2.5268817204301075
2.5161290322580645
2.498533724340176
2.474095796676442
2.442815249266862
2.4027370478983383
2.356793743890518
2.304985337243402
2.249266862170088
2.189638318670577
2.126099706744868
2.06158357771261
2.003910068426197
1.9521016617790807
1.900293255131965
1.8494623655913975
1.8035190615835777
1.7644183773216031
1.7311827956989247
1.7038123167155426
1.683284457478006
1.6666666666666667
1.6520039100684265
1.6392961876832846
1.6275659824046922
1.616813294232649
1.6050830889540566
1.5923753665689149
1.5806451612903225
1.5679374389051808
1.5542521994134897
1.5395894428152492
1.52297165200391
1.5034213098729228
1.4819159335288368
1.4613880742913
1.4408602150537635
1.4242424242424243
1.4086021505376345
1.3900293255131966
1.370478983382209
1.3499511241446724
1.327468230694037
1.3079178885630498
1.289345063538612
1.2717497556207231
1.2551319648093842
1.238514173998045
1.2218963831867058
1.2082111436950147
1.1964809384164223
1.1837732160312806
1.1710654936461389
1.1583577712609971
1.1466275659824048
1.1358748778103618
1.1251221896383188
1.1143695014662756
1.104594330400782
1.0957966764418376
1.0869990224828934
1.0801564027370478
1.0762463343108504
1.072336265884653
1.0654936461388074
1.0586510263929618
1.0527859237536656
1.0469208211143697
1.0410557184750733
1.0371456500488758
1.0342130987292275
1.0303030303030305
1.0273704789833822
1.0234604105571847
1.021505376344086
1.0234604105571847
1.024437927663734
1.024437927663734
1.0224828934506354
1.018572825024438
1.013685239491691
1.007820136852395
1.0039100684261977
1.0019550342130987
1.002932551319648
1.010752688172043
1.024437927663734
1.0488758553274682
1.0899315738025417
1.1505376344086022
1.2346041055718475
1.3401759530791788
1.4623655913978495
1.595307917888563
1.7331378299120237
1.869012707722385
1.997067448680352
2.115347018572825
2.220918866080156
2.2991202346041058
2.358748778103617
2.41544477028348
2.462365591397849
2.498533724340176
2.5239491691104594
2.5386119257087
2.5434995112414467
2.539589442815249
2.5288367546432062
2.5112414467253177
2.4858260019550342
2.455522971652004
2.421309872922776
2.380254154447703
2.332355816226784
2.278592375366569
2.220918866080156
2.160312805474096
2.099706744868035
2.0410557184750733
1.9872922776148585
1.9403714565004888
1.8993157380254155
1.8631476050830889
1.8347996089931573
1.8132942326490715
1.7947214076246334
1.7790811339198436
1.7663734115347018
1.75366568914956
1.7419354838709675
1.7302052785923754
1.715542521994135
1.699902248289345
1.686217008797654
1.6744868035190617
1.6637341153470186
1.6529814271749756
1.6412512218963833
1.629521016617791
1.6148582600195502
1.5972629521016617
1.5786901270772238
1.5581622678396871
1.5356793743890518
1.512218963831867
1.487781036168133
1.4633431085043989
1.4408602150537635
1.4242424242424243
1.4086021505376345
1.391006842619746
1.3734115347018572
1.35386119257087
1.3343108504398826
1.3450635386119256
1.3714565004887584
1.3743890518084063
1.3685239491691104
1.3577712609970674
1.3440860215053765
1.3333333333333333
1.3235581622678396
1.3118279569892473
1.3010752688172045
1.2873900293255132
1.2727272727272727
1.2619745845552297
1.2541544477028348
1.2473118279569892
1.241446725317693
1.2355816226783969
1.227761485826002
1.2189638318670577
1.2140762463343109
1.2121212121212122
1.2082111436950147
1.2023460410557183
1.1945259042033236
1.1837732160312806
1.1710654936461389
1.1573802541544478
1.142717497556207
1.1270772238514175
1.1124144672531768
1.1026392961876832
1.099706744868035
1.0977517106549364
1.0957966764418376
1.0948191593352885
1.093841642228739
1.093841642228739
1.093841642228739
1.0987292277614855
1.118279569892473
1.1593352883675463
1.227761485826002
1.3264907135874875
1.4516129032258065
1.5747800586510263
1.7008797653958945
1.8533724340175952
2.01564027370479
2.176930596285435
2.3304007820136854
2.4701857282502444
2.593352883675464
2.697947214076246
2.7839687194525906
2.849462365591398
2.8963831867057674
2.921798631476051
2.9315738025415445
2.936461388074292
2.932551319648094
2.918866080156403
2.8963831867057674
2.865102639296188
2.823069403714565
2.7722385141739982
2.7145650048875853
2.650048875855328
2.578690127077224
2.5024437927663734
2.43108504398827
2.361681329423265
2.2873900293255134
2.212121212121212
2.1407624633431084
2.0772238514174
2.022482893450636
1.9736070381231672
1.932551319648094
1.900293255131965
1.8758553274682308
1.855327468230694
1.8387096774193548
1.8240469208211143
1.8084066471163245
1.7927663734115349
1.7781036168132942
1.761485826001955
1.7429130009775171
1.7223851417399805
1.7008797653958945
1.678396871945259
1.656891495601173
1.6334310850439884
1.608993157380254
1.5894428152492668
1.5698924731182795
1.547409579667644
1.5239491691104594
1.498533724340176
1.4731182795698925
1.4486803519061584
1.426197458455523
1.404692082111437
1.3822091886608017
1.3577712609970674
1.3343108504398826
1.3157380254154447
1.300097751710655
1.2825024437927663
1.2639296187683284
1.2473118279569892
1.2316715542521994
1.2160312805474096
1.2003910068426198
1.18475073313783
1.1691104594330402
1.1544477028347997
1.1407624633431086
1.1290322580645162
1.1231671554252198
1.118279569892473
1.1114369501466277
1.1036168132942326
1.096774193548387
1.0909090909090908
1.0840664711632453
1.0772238514173995
1.0713587487781036
1.067448680351906
1.0654936461388074
1.064516129032258
1.0664711632453567
1.0694037145650048
1.0713587487781036
1.0703812316715542
1.0664711632453567
1.0596285434995112
1.050830889540567
1.0410557184750733
1.0312805474095796
1.0205278592375366
1.0117302052785924
1.0058651026392962
1.0058651026392962
1.0087976539589445
1.0127077223851415
1.0234604105571847
1.0478983382209188
1.0928641251221896
1.160312805474096
1.2531769305962854
1.3734115347018572
1.517106549364614
1.678396871945259
1.8494623655913975
2.0234604105571847
2.16911045943304
2.2952101661779083
2.4242424242424243
2.5434995112414467
2.6471163245356792
2.7341153470185726
2.801564027370479
2.849462365591398
2.8797653958944283
2.895405669599218
2.8963831867057674
2.884652981427175
2.8611925708699903
2.8299120234604107
2.791788856304985
2.744868035190616
2.69208211143695
2.632453567937439
2.5650048875855327
2.490713587487781
2.412512218963832
2.333333333333333
2.2551319648093844
2.179863147605083
2.110459433040078
2.053763440860215
2.006842619745845
1.9608993157380252
1.919843597262952
1.884652981427175
1.855327468230694
1.8318670576735088
1.812316715542522
1.7947214076246334
1.7771260997067448
1.7595307917888563
1.7419354838709675
1.7253176930596286
1.7086999022482894
1.6901270772238517
1.6705767350928642
1.6500488758553276
1.629521016617791
1.608993157380254
1.587487781036168
1.564027370478983
1.5395894428152492
1.5131964809384164
1.4848484848484849
1.455522971652004
1.4330400782013686
1.41544477028348
1.3958944281524928
1.3743890518084063
1.3519061583577712
1.327468230694037
1.3020527859237536
1.2795698924731185
1.260019550342131
1.2424242424242424
1.2258064516129032
1.2101661779081134
1.198435972629521
1.1886608015640274
1.1759530791788857
1.1622678396871946
1.147605083088954
1.1319648093841643
1.1163245356793745
1.1026392961876832
1.0899315738025417
1.0791788856304985
1.0713587487781036
1.067448680351906
1.0654936461388074
1.0664711632453567
1.0694037145650048
1.0684261974584557
1.0625610948191593
1.0547409579667644
1.04594330400782
1.0361681329423265
1.0263929618768328
1.018572825024438
1.013685239491691
1.007820136852395
1.0019550342130987
0.9990224828934506
0.997067448680352
0.9912023460410556
0.9824046920821116
0.9745845552297164
0.9667644183773216
0.9579667644183774
0.9491691104594332
0.9442815249266864
0.9452590420332356
0.9589442815249268
0.989247311827957
1.040078201368524
1.1192570869990224
1.2238514173998043
1.3479960899315735
1.490713587487781
1.6500488758553276
1.822091886608016
1.9980449657869013
2.16911045943304
2.329423264907136
2.472140762463343
2.595307917888563
2.697947214076246
2.7702834799608995
2.819159335288368
2.860215053763441
2.8905180840664717
2.911045943304008
2.920821114369501
2.920821114369501
2.913000977517106
2.898338220918866
2.8729227761485827
2.835777126099707
2.7869012707722387
2.729227761485826
2.6695992179863146
2.6080156402737047
2.5386119257087
2.464320625610948
2.386119257086999
2.3069403714565007
2.231671554252199
2.1622678396871944
2.0987292277614857
2.043010752688172
1.997067448680352
1.9608993157380252
1.9345063538611929
1.9149560117302051
1.8973607038123168
1.8807429130009776
1.865102639296188
1.8494623655913975
1.833822091886608
1.818181818181818
1.801564027370479
1.782991202346041
1.7634408602150538
1.7429130009775171
1.7223851417399805
1.704789833822092
1.6852394916911049
1.66177908113392
1.6373411534701858
1.6129032258064515
1.5865102639296187
1.5591397849462365
1.5327468230694037
1.5073313782991202
1.4848484848484849
1.4633431085043989
1.4408602150537635
1.4213098729227762
1.4056695992179864
1.3870967741935485
1.367546432062561
1.3479960899315735
1.3294232649071358
1.313782991202346
1.300097751710655
1.2873900293255132
1.273704789833822
1.2590420332355816
1.2434017595307918
1.227761485826002
1.217008797653959
1.2082111436950147
1.2003910068426198
1.1935483870967742
1.187683284457478
1.1808406647116323
1.1720430107526882
1.164222873900293
1.1573802541544478
1.1505376344086022
1.144672531769306
1.1397849462365592
1.1378299120234605
1.1378299120234605
1.1378299120234605
1.1378299120234605
1.1358748778103618
1.130987292277615
1.1241446725317692
1.1173020527859236
1.1094819159335287
1.1016617790811338
1.0948191593352885
1.086021505376344
1.0762463343108504
1.0703812316715542
1.0684261974584557
1.067448680351906
1.0694037145650048
1.0811339198435972
1.10752688172043
1.155425219941349
1.23069403714565
1.3333333333333333
1.4604105571847508
1.607038123167155
1.7702834799608993
1.9188660801564028
2.056695992179863
2.209188660801564
2.360703812316716
2.5024437927663734
2.625610948191593
2.730205278592375
2.8152492668621703
2.8807429130009776
2.929618768328446
2.963831867057673
2.986314760508309
2.9931573802541545
2.988269794721408
2.9765395894428157
2.956989247311828
2.927663734115347
2.889540566959922
2.8426197458455524
2.7869012707722387
2.724340175953079
2.6559139784946235
2.581622678396872
2.5034213098729228
2.423264907135875
2.350928641251222
2.2854349951124147
2.217986314760508
2.155425219941349
2.099706744868035
2.050830889540567
2.0097751710654936
1.9765395894428155
1.951124144672532
1.9305962854349952
1.9130009775171064
1.8963831867057677
1.8797653958944285
1.8631476050830889
1.844574780058651
1.826001955034213
1.8074291300097751
1.7878787878787878
1.7683284457478006
1.747800586510264
1.7272727272727273
1.7067448680351909
1.6842619745845553
1.6588465298142718
1.6334310850439884
1.611925708699902
1.5923753665689149
1.5698924731182795
1.5454545454545454
1.520039100684262
1.4946236559139785
1.4701857282502444
1.4467253176930597
1.423264907135875
1.401759530791789
1.380254154447703
1.359726295210166
1.343108504398827
1.3294232649071358
1.3147605083088951
1.300097751710655
1.284457478005865
1.2688172043010753
1.2541544477028348
1.238514173998045
1.224828934506354
1.2121212121212122
1.2013685239491692
1.1915933528836755
1.181818181818182
1.173998044965787
1.1681329423264908
1.1593352883675463
1.152492668621701
1.1456500488758554
1.1378299120234605
1.1319648093841643
1.126099706744868
1.1202346041055715
1.115347018572825
1.110459433040078
1.1065493646138806
1.1055718475073313
1.1036168132942326
1.0987292277614855
1.0928641251221896
1.0850439882697946
1.0772238514173995
1.0703812316715542
1.064516129032258
1.0586510263929618
1.0527859237536656
1.0469208211143697
1.0439882697947214
1.0449657869012707
1.0527859237536656
1.072336265884653
1.10752688172043
1.1652003910068427
1.249266862170088
1.3607038123167154
1.4965786901270772
1.6520039100684265
1.8211143695014664
1.994134897360704
