ppg
1.267839687194526
1.2688172043010753
1.270772238514174
1.2717497556207231
1.2727272727272727
1.2727272727272727
1.2727272727272727
1.2746823069403714
1.2795698924731185
1.2854349951124144
1.2883675464320623
1.289345063538612
1.2903225806451613
1.29227761485826
1.2942326490713587
1.295210166177908
1.2961876832844574
1.2961876832844574
1.2961876832844574
1.2961876832844574
1.295210166177908
1.2903225806451613
1.284457478005865
1.2834799608993157
1.2913000977517106
1.3176930596285434
1.3587487781036167
1.4203323558162269
1.5180840664711632
1.64613880742913
1.8005865102639296
1.9726295210166176
2.15347018572825
2.329423264907136
2.4887585532746823
2.622678396871945
2.7262952101661777
2.801564027370479
2.844574780058651
2.863147605083089
2.868035190615836
2.859237536656892
2.8406647116324537
2.8152492668621703
2.7839687194525906
2.7468230694037143
2.702834799608993
2.653958944281525
2.6041055718475072
2.550342130987292
2.493646138807429
2.4408602150537635
2.389051808406647
2.3313782991202348
2.271749755620724
2.209188660801564
2.1436950146627565
2.0762463343108504
2.007820136852395
1.9423264907135875
1.8826979472140764
1.8269794721407624
1.7781036168132942
1.7409579667644184
1.7116324535679377
1.6871945259042034
1.6686217008797657
1.6529814271749756
1.6422287390029326
1.6344086021505375
1.624633431085044
1.6138807429130009
1.603128054740958
1.5923753665689149
1.5806451612903225
1.56891495601173
1.5591397849462365
1.5493646138807429
1.5356793743890518
1.52297165200391
1.5112414467253177
1.4965786901270772
1.4809384164222874
1.4643206256109482
1.447702834799609
1.4301075268817205
1.4134897360703813
1.3978494623655917
1.3870967741935485
1.3792766373411536
1.367546432062561
1.3548387096774193
1.3411534701857282
1.3255131964809383
1.310850439882698
1.2981427174975562
1.2854349951124144
1.273704789833822
1.2619745845552297
1.2502443792766371
1.2434017595307918
1.241446725317693
1.2404692082111437
1.2394916911045943
1.2394916911045943
1.2375366568914956
1.2355816226783969
1.2346041055718475
1.2346041055718475
1.2346041055718475
1.2326490713587488
1.23069403714565
1.2267839687194526
1.2218963831867058
1.2189638318670577
1.2150537634408602
1.2101661779081134
1.209188660801564
1.2140762463343109
1.2326490713587488
1.2717497556207231
1.3362658846529814
1.4330400782013686
1.5620723362658846
1.718475073313783
1.868035190615836
2.01564027370479
2.1818181818181817
2.346041055718475
2.495601173020528
2.621700879765396
2.720430107526881
2.792766373411535
2.841642228739003
2.8699902248289346
2.8826979472140764
2.8836754643206257
2.8729227761485827
2.8514173998044967
2.8269794721407626
2.801564027370479
2.773216031280548
2.739980449657869
2.702834799608993
2.6608015640273703
2.6158357771261
2.5650048875855327
2.5083088954056696
2.44672531769306
2.3792766373411536
2.313782991202346
2.249266862170088
2.177908113391984
2.101661779081134
2.0234604105571847
1.9472140762463344
1.87683284457478
1.8142717497556209
1.761485826001955
1.7165200391006843
1.678396871945259
1.64613880742913
1.6217008797653958
1.6050830889540566
1.5933528836754642
1.581622678396872
1.5698924731182795
1.560117302052786
1.552297165200391
1.5454545454545454
1.5376344086021505
1.500488758553275
1.4486803519061584
1.414467253176931
1.3900293255131966
1.3724340175953078
1.3577712609970674
1.343108504398827
1.327468230694037
1.3118279569892473
1.2971652003910068
1.2854349951124144
1.273704789833822
1.2619745845552297
1.2473118279569892
1.2336265884652982
1.2218963831867058
1.2101661779081134
1.2023460410557183
1.195503421309873
1.1867057673509287
1.1788856304985338
1.1710654936461389
1.164222873900293
1.1593352883675463
1.1544477028347997
1.1495601173020529
1.1436950146627567
1.1397849462365592
1.1348973607038124
1.1319648093841643
1.1300097751710656
1.126099706744868
1.1231671554252198
1.1221896383186705
1.121212121212121
1.121212121212121
1.121212121212121
1.121212121212121
1.121212121212121
1.121212121212121
1.121212121212121
1.121212121212121
1.1221896383186705
1.1221896383186705
1.121212121212121
1.121212121212121
1.121212121212121
1.121212121212121
1.121212121212121
1.121212121212121
1.121212121212121
1.121212121212121
1.121212121212121
1.121212121212121
1.1221896383186705
1.1241446725317692
1.1251221896383188
1.1251221896383188
1.1251221896383188
1.1251221896383188
1.1251221896383188
1.1251221896383188
1.1251221896383188
1.1251221896383188
1.1251221896383188
1.1251221896383188
1.1251221896383188
1.1270772238514175
1.1290322580645162
1.1300097751710656
1.130987292277615
1.130987292277615
1.130987292277615
1.1280547409579669
1.1241446725317692
1.1231671554252198
1.1280547409579669
1.1466275659824048
1.1886608015640274
1.2453567937438903
1.321603128054741
1.4379276637341154
1.587487781036168
1.7634408602150538
1.95405669599218
2.1436950146627565
2.321603128054741
2.4789833822091887
2.6080156402737047
2.7067448680351904
2.777126099706745
2.820136852394917
2.8367546432062563
2.833822091886608
2.8211143695014664
2.7976539589442817
2.7673509286412514
2.732160312805474
2.69208211143695
2.650048875855328
2.6070381231671558
2.560117302052786
2.50733137829912
2.449657869012708
2.3929618768328447
2.3362658846529816
2.271749755620724
2.203323558162268
2.133919843597263
2.0635386119257086
1.994134897360704
1.927663734115347
1.8641251221896384
1.8064516129032255
1.7546432062561097
1.7096774193548387
1.6705767350928642
1.6422287390029326
1.6217008797653958
1.6041055718475072
1.590420332355816
1.5786901270772238
1.5669599217986314
1.5562072336265884
1.5454545454545454
1.5347018572825024
1.52297165200391
1.509286412512219
1.4936461388074291
1.47702834799609
1.4643206256109482
1.4516129032258065
1.436950146627566
1.4222873900293256
1.4066471163245358
1.391006842619746
1.375366568914956
1.3587487781036167
1.33822091886608
1.3157380254154447
1.2961876832844574
1.2825024437927663
1.2727272727272727
1.2619745845552297
1.2512218963831867
1.2404692082111437
1.2316715542521994
1.2228739002932552
1.2160312805474096
1.2101661779081134
1.2023460410557183
1.1925708699902249
1.1837732160312806
1.176930596285435
1.1720430107526882
1.1681329423264908
1.164222873900293
1.1612903225806452
1.1593352883675463
1.1573802541544478
1.1544477028347997
1.1515151515151516
1.1495601173020529
1.1456500488758554
1.1397849462365592
1.133919843597263
1.130987292277615
1.1300097751710656
1.1280547409579669
1.1270772238514175
1.126099706744868
1.1241446725317692
1.1221896383186705
1.1202346041055715
1.1192570869990224
1.1202346041055715
1.1202346041055715
1.1202346041055715
1.1202346041055715
1.121212121212121
1.1221896383186705
1.121212121212121
1.121212121212121
1.121212121212121
1.121212121212121
1.121212121212121
1.121212121212121
1.121212121212121
1.121212121212121
1.121212121212121
1.1192570869990224
1.118279569892473
1.1192570869990224
1.1221896383186705
1.1358748778103618
1.1691104594330402
1.2297165200391007
1.324535679374389
1.4535679374389052
1.6138807429130009
1.796676441837732
1.986314760508309
2.172043010752688
2.3440860215053765
2.4760508308895406
2.578690127077224
2.674486803519061
2.752688172043011
2.812316715542522
2.8533724340175954
2.877810361681329
2.886608015640274
2.881720430107527
2.866080156402737
2.8426197458455524
2.8152492668621703
2.78494623655914
2.752688172043011
2.718475073313783
2.6832844574780057
2.6451612903225805
2.6050830889540566
2.5620723362658846
2.5112414467253177
2.4545454545454546
2.3929618768328447
2.326490713587488
2.2551319648093844
2.179863147605083
2.1114369501466275
2.0449657869012707
1.9736070381231672
1.903225806451613
1.835777126099707
1.7761485826001957
1.7233626588465298
1.6793743890518085
1.6451612903225807
1.6217008797653958
1.606060606060606
1.5972629521016617
1.5923753665689149
1.587487781036168
1.5796676441837731
1.5708699902248289
1.5591397849462365
1.544477028347996
1.5268817204301075
1.5073313782991202
1.4868035190615836
1.4672531769305963
1.4506353861192571
1.434017595307918
1.418377321603128
1.404692082111437
1.392961876832845
1.3685239491691104
1.335288367546432
1.3069403714565004
1.281524926686217
1.2590420332355816
1.2394916911045943
1.2228739002932552
1.209188660801564
1.1964809384164223
1.18475073313783
1.1759530791788857
1.1691104594330402
1.1612903225806452
1.1544477028347997
1.1485826001955035
1.142717497556207
1.1368523949169111
1.1329423264907137
1.1280547409579669
1.121212121212121
1.115347018572825
1.1094819159335287
1.1036168132942326
1.1006842619745845
1.099706744868035
1.0977517106549364
1.096774193548387
1.096774193548387
1.096774193548387
1.096774193548387
1.096774193548387
1.096774193548387
1.096774193548387
1.096774193548387
1.096774193548387
1.0977517106549364
1.099706744868035
1.1006842619745845
1.1006842619745845
1.1006842619745845
1.099706744868035
1.0977517106549364
1.096774193548387
1.096774193548387
1.096774193548387
1.096774193548387
1.096774193548387
1.0948191593352885
1.093841642228739
1.093841642228739
1.0918866080156402
1.0909090909090908
1.088954056695992
1.0869990224828934
1.0840664711632453
1.0821114369501466
1.083088954056696
1.093841642228739
1.1192570869990224
1.1700879765395895
1.2346041055718475
1.3225806451612905
1.4506353861192571
1.6109481915933528
1.7956989247311828
1.9902248289345064
2.1788856304985336
2.3528836754643208
2.504398826979472
2.6265884652981426
2.717497556207233
2.782013685239492
2.823069403714565
2.8377321603128056
2.833822091886608
2.820136852394917
2.7966764418377323
2.766373411534702
2.729227761485826
2.686217008797654
2.641251221896383
2.5943304007820136
2.5425219941348973
2.490713587487781
2.436950146627566
2.3841642228739004
2.3304007820136854
2.269794721407625
2.2052785923753664
2.136852394916911
2.067448680351906
1.9951124144672527
1.919843597262952
1.8465298142717497
1.7781036168132942
1.715542521994135
1.6588465298142718
1.6158357771260996
1.5826001955034212
1.5542521994134897
1.5317693059628543
1.5141739980449658
1.500488758553275
1.4897360703812317
1.4809384164222874
1.4731182795698925
1.4643206256109482
1.456500488758553
1.4467253176930597
1.435972629521017
1.4271749755620724
1.4173998044965788
1.4037145650048877
1.3890518084066472
1.3734115347018572
1.3558162267839686
1.3372434017595307
1.3176930596285434
1.2961876832844574
1.2776148582600195
1.2609970674486803
1.24633431085044
1.2336265884652982
1.2228739002932552
1.2101661779081134
1.195503421309873
1.1788856304985338
1.1622678396871946
1.1485826001955035
1.1358748778103618
1.1241446725317692
1.1124144672531768
1.1016617790811338
1.0899315738025417
1.0801564027370478
1.0742913000977516
1.0694037145650048
1.0664711632453567
1.0654936461388074
1.0664711632453567
1.067448680351906
1.067448680351906
1.067448680351906
1.067448680351906
1.067448680351906
1.067448680351906
1.0664711632453567
1.0654936461388074
1.0664711632453567
1.0654936461388074
1.0654936461388074
1.0664711632453567
1.067448680351906
1.067448680351906
1.067448680351906
1.067448680351906
1.067448680351906
1.067448680351906
1.067448680351906
1.067448680351906
1.0694037145650048
1.0713587487781036
1.072336265884653
1.0733137829912025
1.0733137829912025
1.072336265884653
1.0684261974584557
1.064516129032258
1.0596285434995112
1.053763440860215
1.0498533724340176
1.050830889540567
1.0576735092864125
1.075268817204301
1.1143695014662756
1.1867057673509287
1.295210166177908
1.4418377321603129
1.6226783968719452
1.825024437927664
2.035190615835777
2.242424242424242
2.4349951124144678
2.601173020527859
2.73802541544477
2.832844574780059
2.895405669599218
2.9472140762463344
2.98435972629521
3.005865102639296
3.013685239491691
3.010752688172043
2.9980449657869013
2.9775171065493646
2.952101661779081
2.9227761485826003
2.889540566959922
2.850439882697948
2.8103616813294234
2.768328445747801
2.719452590420332
2.664711632453568
2.606060606060606
2.5405669599217986
2.469208211143695
2.3929618768328447
2.312805474095797
2.2277614858260018
2.139784946236559
2.0518084066471163
1.9765395894428155
1.9090909090909087
1.842619745845552
1.7820136852394917
1.729227761485826
1.686217008797654
1.653958944281525
1.629521016617791
1.608993157380254
1.595307917888563
1.585532746823069
1.5747800586510263
1.5650048875855327
1.5562072336265884
1.5464320625610948
1.5356793743890518
1.52297165200391
1.5073313782991202
1.4887585532746823
1.4682306940371457
1.4467253176930597
1.4271749755620724
1.4086021505376345
1.3900293255131966
1.3714565004887584
1.356793743890518
1.3421309872922775
1.3235581622678396
1.3020527859237536
1.278592375366569
1.2570869990224829
1.2375366568914956
1.2160312805474096
1.195503421309873
1.176930596285435
1.1612903225806452
1.147605083088954
1.13880742913001
1.130987292277615
1.121212121212121
1.1124144672531768
1.1036168132942326
1.096774193548387
1.0909090909090908
1.0840664711632453
1.0791788856304985
1.0791788856304985
1.0821114369501466
1.0821114369501466
1.0821114369501466
1.083088954056696
1.0821114369501466
1.0791788856304985
1.0762463343108504
1.075268817204301
1.0762463343108504
1.0791788856304985
1.0821114369501466
1.083088954056696
1.0840664711632453
1.0840664711632453
1.0840664711632453
1.0850439882697946
1.0869990224828934
1.0879765395894427
1.088954056695992
1.088954056695992
1.0879765395894427
1.086021505376344
1.0850439882697946
1.0850439882697946
1.0850439882697946
1.0850439882697946
1.0850439882697946
1.0850439882697946
1.086021505376344
1.0879765395894427
1.088954056695992
1.0879765395894427
1.086021505376344
1.0850439882697946
1.0850439882697946
1.0899315738025417
1.110459433040078
1.1544477028347997
1.23069403714565
1.3411534701857282
1.4594330400782014
1.5913978494623655
1.7595307917888563
1.9442815249266865
2.1309872922776147
2.304985337243402
2.458455522971652
2.5865102639296187
2.684261974584555
2.752688172043011
2.7947214076246336
2.814271749755621
2.8152492668621703
2.7996089931573804
2.7722385141739982
2.7390029325513194
2.701857282502444
2.659824046920821
2.6148582600195502
2.56891495601173
2.5210166177908118
2.4711632453567938
2.418377321603128
2.3626588465298144
2.303030303030303
2.24633431085044
1.2649071358748778
1.2473118279569892
1.2316715542521994
1.2150537634408602
1.1994134897360704
1.1837732160312806
1.1671554252199414
1.1515151515151516
1.1407624633431086
1.1329423264907137
1.1251221896383188
1.118279569892473
1.1124144672531768
1.1065493646138806
1.1016617790811338
1.096774193548387
1.0918866080156402
1.0869990224828934
1.0821114369501466
1.0772238514173995
1.0733137829912025
1.072336265884653
1.072336265884653
1.0694037145650048
1.0654936461388074
1.06158357771261
1.0449657869012707
1.0439882697947214
1.0410557184750733
1.0371456500488758
1.032258064516129
1.0273704789833822
1.0224828934506354
1.0195503421309873
1.018572825024438
1.0175953079178883
1.0234604105571847
1.043010752688172
1.083088954056696
1.1544477028347997
1.2619745845552297
1.4027370478983383
1.5708699902248289
1.758553274682307
1.95405669599218
2.142717497556207
2.2952101661779083
2.4173998044965788
2.530791788856305
2.6236559139784945
2.695014662756598
2.742913000977517
2.7722385141739982
2.7869012707722387
2.788856304985337
2.7810361681329425
2.7653958944281527
2.742913000977517
2.7155425219941347
2.684261974584555
2.650048875855328
2.611925708699902
2.570869990224829
2.5268817204301075
2.4789833822091887
2.4252199413489737
2.366568914956012
2.303030303030303
2.2355816226783967
2.1652003910068425
2.099706744868035
2.035190615835777
1.9618768328445748
1.8875855327468232
1.81524926686217
1.7468230694037146
1.6842619745845553
1.629521016617791
1.5826001955034212
1.544477028347996
1.5141739980449658
1.490713587487781
1.4731182795698925
1.4613880742913
1.4535679374389052
1.444770283479961
1.4349951124144673
1.4252199413489737
1.41544477028348
1.4056695992179864
1.3949169110459434
1.3822091886608017
1.367546432062561
1.3528836754643203
1.3372434017595307
1.3235581622678396
1.310850439882698
1.2942326490713587
1.2766373411534702
1.260019550342131
1.2424242424242424
1.2267839687194526
1.2111436950146628
1.195503421309873
1.181818181818182
1.1700879765395895
1.1593352883675463
1.1495601173020529
1.142717497556207
1.1397849462365592
1.1358748778103618
1.130987292277615
1.126099706744868
1.121212121212121
1.1163245356793745
1.1114369501466277
1.1065493646138806
1.1016617790811338
1.096774193548387
1.0918866080156402
1.088954056695992
1.0879765395894427
1.0850439882697946
1.0811339198435972
1.0762463343108504
1.0713587487781036
1.0488758553274682
1.0498533724340176
1.0498533724340176
1.0488758553274682
1.04594330400782
1.040078201368524
1.0332355816226784
1.0303030303030305
1.0371456500488758
1.0586510263929618
1.10752688172043
1.1906158357771262
1.310850439882698
1.466275659824047
1.6500488758553276
1.8533724340175952
2.059628543499511
2.2551319648093844
2.4330400782013686
2.56891495601173
2.670576735092864
2.760508308895406
2.8299120234604107
2.877810361681329
2.905180840664712
2.9120234604105573
2.9012707722385143
2.877810361681329
2.8475073313782997
2.809384164222874
2.7653958944281527
2.720430107526881
2.677419354838709
2.634408602150537
2.589442815249267
2.5425219941348973
2.4916911045943304
2.4359726295210167
2.3743890518084068
2.3059628543499517
2.231671554252199
2.150537634408602
2.064516129032258
1.9775171065493649
1.900293255131965
1.8299120234604105
1.7565982404692082
1.686217008797654
1.6217008797653958
1.5679374389051808
1.525904203323558
1.4936461388074291
1.469208211143695
1.4516129032258065
1.4389051808406648
1.4271749755620724
1.414467253176931
1.4037145650048877
1.3958944281524928
1.3851417399804498
1.3714565004887584
1.3558162267839686
1.3411534701857282
1.3284457478005864
1.316715542521994
1.3049853372434017
1.29227761485826
1.2776148582600195
1.2619745845552297
1.249266862170088
1.2365591397849462
1.2209188660801564
1.203323558162268
1.1857282502443791
1.1700879765395895
1.1573802541544478
1.1466275659824048
1.1358748778103618
1.1251221896383188
1.1163245356793745
1.1065493646138806
1.096774193548387
1.0918866080156402
1.088954056695992
1.0850439882697946
1.0801564027370478
1.075268817204301
1.0713587487781036
1.0703812316715542
1.0733137829912025
1.0762463343108504
1.0772238514173995
1.0791788856304985
1.0801564027370478
1.0801564027370478
1.0801564027370478
1.078201368523949
1.0742913000977516
1.0694037145650048
1.064516129032258
1.06158357771261
1.0606060606060606
1.0586510263929618
1.0576735092864125
1.056695992179863
1.056695992179863
1.0576735092864125
1.0625610948191593
1.0694037145650048
1.0742913000977516
1.0772238514173995
1.0801564027370478
1.0821114369501466
1.0840664711632453
1.0869990224828934
1.0879765395894427
1.0899315738025417
1.093841642228739
1.096774193548387
1.1006842619745845
1.10752688172043
1.1124144672531768
1.1143695014662756
1.1173020527859236
1.1202346041055715
1.121212121212121
1.1221896383186705
1.1221896383186705
1.1221896383186705
1.1231671554252198
1.1270772238514175
1.1358748778103618
1.1515151515151516
1.1798631476050832
1.2326490713587488
1.316715542521994
1.4389051808406648
1.5962854349951123
1.7820136852394917
1.9853372434017595
2.1945259042033234
2.3949169110459434
2.573802541544477
2.7253176930596283
2.831867057673509
2.903225806451613
2.9589442815249267
2.995112414467253
3.010752688172043
3.007820136852395
2.989247311827957
2.9579667644183774
2.917888563049853
2.8729227761485827
2.825024437927664
2.776148582600196
2.730205278592375
2.686217008797654
2.6392961876832843
2.589442815249267
2.536656891495601
2.47702834799609
2.410557184750733
2.337243401759531
2.259042033235582
2.176930596285435
2.09188660801564
2.005865102639296
1.924731182795699
1.8563049853372435
1.7947214076246334
1.732160312805474
1.675464320625611
1.6275659824046922
1.5884652981427174
1.5562072336265884
1.530791788856305
1.5112414467253177
1.4975562072336266
1.4858260019550342
1.474095796676442
1.4652981427174976
1.455522971652004
1.4418377321603129
1.4271749755620724
1.4115347018572826
1.3949169110459434
1.3773216031280548
1.3587487781036167
1.3411534701857282
1.324535679374389
1.3088954056695992
1.2961876832844574
1.2834799608993157
1.2746823069403714
1.2649071358748778
1.2512218963831867
1.2394916911045943
1.224828934506354
1.209188660801564
1.1935483870967742
1.176930596285435
1.1622678396871946
1.1495601173020529
1.1397849462365592
1.1319648093841643
1.1280547409579669
1.126099706744868
1.1231671554252198
1.118279569892473
1.1133919843597262
1.1085043988269794
1.1026392961876832
1.0987292277614855
1.0957966764418376
1.0909090909090908
1.086021505376344
1.0821114369501466
1.0801564027370478
1.086021505376344
1.0879765395894427
1.0909090909090908
1.0918866080156402
1.0909090909090908
1.0879765395894427
1.0840664711632453
1.0801564027370478
1.0811339198435972
1.0928641251221896
1.1221896383186705
1.1779081133919844
1.249266862170088
1.3440860215053765
1.4848484848484849
1.6656891495601174
1.870967741935484
2.0869990224828934
2.2981427174975564
2.4916911045943304
2.6578690127077222
2.7947214076246336
2.900293255131965
2.9765395894428157
3.0303030303030303
3.056695992179863
3.0635386119257086
3.060606060606061
3.0498533724340176
3.0332355816226784
3.0117302052785924
2.98435972629521
2.951124144672532
2.913000977517106
2.8719452590420333
2.827956989247312
2.7781036168132944
2.727272727272727
2.675464320625611
2.6177908113391983
2.555229716520039
2.486803519061584
2.4134897360703813
2.3362658846529816
2.2531769305962857
2.166177908113392
2.0772238514174
1.989247311827957
1.902248289345064
1.8201368523949168
1.7517106549364614
1.694037145650049
1.640273704789834
1.5943304007820136
1.555229716520039
1.521994134897361
1.495601173020528
1.474095796676442
1.456500488758553
1.4437927663734116
1.4330400782013686
1.4222873900293256
1.4134897360703813
1.4027370478983383
1.3900293255131966
1.3734115347018572
1.3548387096774193
1.3343108504398826
1.3157380254154447
1.2981427174975562
1.2805474095796676
1.2668621700879763
1.2531769305962854
1.2375366568914956
1.2228739002932552
1.2130987292277615
1.2023460410557183
1.1886608015640274
1.176930596285435
1.164222873900293
1.1505376344086022
1.1397849462365592
1.1319648093841643
1.1251221896383188
1.1192570869990224
1.1133919843597262
1.10752688172043
1.104594330400782
1.1036168132942326
1.096774193548387
1.0869990224828934
1.0762463343108504
1.067448680351906
1.0596285434995112
1.0527859237536656
1.0469208211143697
1.0439882697947214
1.0439882697947214
1.0439882697947214
1.0439882697947214
1.0449657869012707
1.0469208211143697
1.0478983382209188
1.0498533724340176
1.053763440860215
1.0586510263929618
1.0625610948191593
1.064516129032258
1.0664711632453567
1.067448680351906
1.0684261974584557
1.0703812316715542
1.0733137829912025
1.078201368523949
1.0821114369501466
1.086021505376344
1.0909090909090908
1.096774193548387
1.1016617790811338
1.10752688172043
1.1124144672531768
1.1163245356793745
1.1202346041055715
1.1221896383186705
1.1231671554252198
1.1231671554252198
1.1231671554252198
1.126099706744868
1.1290322580645162
1.130987292277615
1.1319648093841643
1.1319648093841643
1.1319648093841643
1.130987292277615
1.1270772238514175
1.1241446725317692
1.1251221896383188
1.1329423264907137
1.1505376344086022
1.187683284457478
1.2561094819159335
1.3616813294232648
1.5034213098729228
1.6764418377321604
1.870967741935484
2.074291300097752
2.271749755620724
2.4545454545454546
2.6148582600195502
2.7311827956989245
2.811339198435973
2.87683284457478
2.9237536656891496
2.9501466275659824
2.956011730205278
