ppg
2.9012707722385143
2.8563049853372435
2.8025415444770285
2.739980449657869
2.668621700879765
2.5884652981427174
2.5024437927663734
2.41544477028348
2.3362658846529816
2.2629521016617797
2.1867057673509285
2.112414467253177
2.0439882697947214
1.9833822091886608
1.9315738025415443
1.8875855327468232
1.8504398826979471
1.8172043010752688
1.7888563049853372
1.7634408602150538
1.739980449657869
1.718475073313783
1.6950146627565983
1.6715542521994136
1.6471163245356797
1.6217008797653958
1.595307917888563
1.5679374389051808
1.5376344086021505
1.5073313782991202
1.478005865102639
1.447702834799609
1.4164222873900294
1.3900293255131966
1.3655913978494625
1.33822091886608
1.3098729227761483
1.281524926686217
1.2551319648093842
1.23069403714565
1.2082111436950147
1.1867057673509287
1.166177908113392
1.1466275659824048
1.1280547409579669
1.1143695014662756
1.1055718475073313
1.0957966764418376
1.0850439882697946
1.0733137829912025
1.06158357771261
1.0498533724340176
1.0391006842619743
1.029325513196481
1.0195503421309873
1.010752688172043
1.0019550342130987
0.9931573802541545
0.9882697947214076
0.9863147605083088
0.9824046920821116
0.9794721407624634
0.9765395894428152
0.9736070381231672
0.9706744868035192
0.967741935483871
0.9648093841642228
0.9618768328445748
0.9589442815249268
0.9560117302052786
0.956989247311828
0.9589442815249268
0.9589442815249268
0.956989247311828
0.9550342130987292
0.9521016617790812
0.9491691104594332
0.946236559139785
0.9433040078201368
0.9413489736070382
0.9403714565004888
0.9403714565004888
0.9403714565004888
0.9423264907135877
0.9452590420332356
0.9481915933528836
0.956989247311828
0.978494623655914
1.0175953079178883
1.0791788856304985
1.166177908113392
1.2795698924731185
1.4271749755620724
1.5972629521016617
1.7732160312805474
1.927663734115347
2.0684261974584555
2.219941348973607
2.364613880742913
2.495601173020528
2.606060606060606
2.695014662756598
2.7624633431085046
2.809384164222874
2.838709677419355
2.852394916911046
2.854349951124145
2.84652981427175
2.8289345063538613
2.8054740957966766
2.776148582600196
2.740957966764418
2.696969696969697
2.6451612903225805
2.58455522971652
2.5161290322580645
2.441837732160313
2.363636363636364
2.2844574780058653
2.206256109481916
2.1378299120234603
2.0772238514174
2.0175953079178885
1.962854349951124
1.913978494623656
1.8729227761485825
1.8377321603128052
1.8084066471163245
1.7839687194525904
1.7624633431085044
1.7409579667644184
1.721407624633431
1.7018572825024438
1.683284457478006
1.664711632453568
1.6422287390029326
1.6177908113391983
1.5913978494623655
1.563049853372434
1.5347018572825024
1.5063538611925709
1.478983382209189
1.4516129032258065
1.4252199413489737
1.3998044965786902
1.3782991202346042
1.359726295210166
1.3391984359726294
1.3176930596285434
1.2961876832844574
1.2766373411534702
1.260019550342131
1.2443792766373412
1.2297165200391007
1.2150537634408602
1.2013685239491692
1.1896383186705768
1.1808406647116323
1.1759530791788857
1.173998044965787
1.1700879765395895
1.1652003910068427
1.1593352883675463
1.1544477028347997
1.1505376344086022
1.1456500488758554
1.1397849462365592
1.1348973607038124
1.1290322580645162
1.1231671554252198
1.1202346041055715
1.1192570869990224
1.115347018572825
1.1124144672531768
1.110459433040078
1.10752688172043
1.104594330400782
1.1016617790811338
1.0987292277614855
1.0957966764418376
1.093841642228739
1.0918866080156402
1.0909090909090908
1.0928641251221896
1.0957966764418376
1.096774193548387
1.0957966764418376
1.0928641251221896
1.0899315738025417
1.088954056695992
1.0879765395894427
1.0879765395894427
1.0879765395894427
1.0879765395894427
1.0879765395894427
1.0899315738025417
1.0957966764418376
1.10752688172043
1.1300097751710656
1.1691104594330402
1.23069403714565
1.3176930596285434
1.4301075268817205
1.565982404692082
1.7204301075268815
1.8866080156402736
2.056695992179863
2.2238514173998043
2.360703812316716
2.474095796676442
2.58455522971652
2.681329423264907
2.7614858260019552
2.822091886608016
2.86217008797654
2.8856304985337244
2.895405669599218
2.89345063538612
2.8807429130009776
2.860215053763441
2.83088954056696
2.7947214076246336
2.750733137829912
2.696969696969697
2.634408602150537
2.565982404692082
2.490713587487781
2.4115347018572826
2.332355816226784
2.254154447702835
2.1808406647116323
2.113391984359726
2.0527859237536656
2.004887585532747
1.9667644183773216
1.932551319648094
1.903225806451613
1.8797653958944285
1.8592375366568916
1.8406647116324533
1.823069403714565
1.8054740957966764
1.7878787878787878
1.76930596285435
1.7497556207233629
1.7311827956989247
1.7126099706744868
1.6911045943304008
1.6666666666666667
1.640273704789834
1.611925708699902
1.5826001955034212
1.552297165200391
1.52297165200391
1.4936461388074291
1.466275659824047
1.439882697947214
1.418377321603128
1.3988269794721409
1.3782991202346042
1.3587487781036167
1.3401759530791788
1.3206256109481915
1.3020527859237536
1.284457478005865
1.2688172043010753
1.2541544477028348
1.2394916911045943
1.2267839687194526
1.2160312805474096
1.209188660801564
1.2043010752688172
1.198435972629521
1.1906158357771262
1.1837732160312806
1.1779081133919844
1.1720430107526882
1.166177908113392
1.160312805474096
1.1544477028347997
1.1485826001955035
1.142717497556207
1.1397849462365592
1.13880742913001
1.1368523949169111
1.133919843597263
1.130987292277615
1.1270772238514175
1.1221896383186705
1.1173020527859236
1.1124144672531768
1.1065493646138806
1.1006842619745845
1.0948191593352885
1.0899315738025417
1.088954056695992
1.088954056695992
1.0869990224828934
1.0850439882697946
1.0821114369501466
1.0791788856304985
1.0762463343108504
1.0742913000977516
1.0742913000977516
1.0762463343108504
1.0821114369501466
1.096774193548387
1.1221896383186705
1.1622678396871946
1.2258064516129032
1.316715542521994
1.4330400782013686
1.5728250244379276
1.7302052785923754
1.8993157380254155
2.071358748778104
2.236559139784946
2.3900293255131966
2.525904203323558
2.641251221896383
2.7223851417399803
2.7781036168132944
2.8240469208211145
2.8582600195503423
2.8797653958944283
2.889540566959922
2.8885630498533725
2.877810361681329
2.8563049853372435
2.825024437927664
2.78494623655914
2.736070381231672
2.6823069403714563
2.6236559139784945
2.5562072336265884
2.482893450635386
2.404692082111437
2.32355816226784
2.243401759530792
2.1652003910068425
2.090909090909091
2.0234604105571847
1.963831867057673
1.9130009775171064
1.870967741935484
1.8377321603128052
1.812316715542522
1.7917888563049853
1.7712609970674489
1.750733137829912
1.7311827956989247
1.710654936461388
1.6901270772238517
1.6686217008797657
1.6441837732160314
1.6187683284457477
1.5923753665689149
1.5698924731182795
1.547409579667644
1.521016617790811
1.4926686217008798
1.4623655913978495
1.43108504398827
1.3998044965786902
1.367546432062561
1.335288367546432
1.3049853372434017
1.2766373411534702
1.2502443792766371
1.2258064516129032
1.2082111436950147
1.0694037145650048
1.0684261974584557
1.0664711632453567
1.0625610948191593
1.0576735092864125
1.053763440860215
1.050830889540567
1.0478983382209188
1.04594330400782
1.0449657869012707
1.0439882697947214
1.04594330400782
1.0488758553274682
1.050830889540567
1.050830889540567
1.0498533724340176
1.0478983382209188
1.04594330400782
1.0449657869012707
1.0449657869012707
1.0498533724340176
1.0664711632453567
1.0987292277614855
1.1534701857282503
1.2189638318670577
1.3010752688172045
1.418377321603128
1.5650048875855327
1.7341153470185728
1.9178885630498532
2.10752688172043
2.29227761485826
2.464320625610948
2.6177908113391983
2.7468230694037143
2.852394916911046
2.9257086999022484
2.9716520039100685
3.007820136852395
3.0303030303030303
3.0391006842619745
3.0361681329423265
3.022482893450636
2.99902248289345
2.964809384164223
2.920821114369501
2.866080156402737
2.803519061583578
2.7341153470185726
2.6637341153470184
2.589442815249267
2.504398826979472
2.4144672531769307
2.324535679374389
2.2385141739980448
2.157380254154448
2.083088954056696
2.016617790811339
1.959921798631476
1.9130009775171064
1.8758553274682308
1.847507331378299
1.825024437927664
1.804496578690127
1.7859237536656891
1.7683284457478006
1.7497556207233629
1.729227761485826
1.70772238514174
1.6842619745845553
1.6598240469208212
1.632453567937439
1.6021505376344083
1.5747800586510263
1.5493646138807429
1.520039100684262
1.490713587487781
1.4594330400782014
1.426197458455523
1.392961876832845
1.359726295210166
1.3284457478005864
1.300097751710655
1.273704789833822
1.2482893450635386
1.224828934506354
1.206256109481916
1.1915933528836755
1.1749755620723363
1.1583577712609971
1.1436950146627567
1.1300097751710656
1.118279569892473
1.1094819159335287
1.1026392961876832
1.0957966764418376
1.088954056695992
1.0811339198435972
1.0762463343108504
1.0733137829912025
1.0694037145650048
1.0635386119257086
1.0576735092864125
1.0518084066471165
1.04594330400782
1.040078201368524
1.0342130987292275
1.0283479960899315
1.0234604105571847
1.018572825024438
1.0156402737047898
1.0166177908113392
1.0175953079178883
1.0156402737047898
1.013685239491691
1.010752688172043
1.007820136852395
1.0039100684261977
1.0
0.9960899315738024
0.9931573802541545
0.9912023460410556
0.9902248289345064
0.9931573802541545
0.997067448680352
1.0
1.0019550342130987
1.0019550342130987
1.0019550342130987
0.7028347996089932
0.6823069403714564
0.6608015640273704
0.6324535679374389
0.592375366568915
0.5532746823069403
0.509286412512219
0.4457478005865102
0.3675464320625611
0.2795698924731182
0.187683284457478
0.1055718475073313
0.0527859237536656
0.0263929618768328
0.0127077223851417
0.0058651026392961
0.002932551319648
0.0009775171065493
0.0097751710654936
0.0684261974584555
0.1964809384164222
0.3499511241446725
0.5268817204301075
0.750733137829912
1.0048875855327468
1.273704789833822
1.543499511241447
1.8035190615835777
2.0449657869012707
2.260019550342131
2.443792766373412
2.595307917888563
2.716520039100684
2.798631476050831
2.852394916911046
2.895405669599218
2.924731182795699
2.9393939393939394
2.93841642228739
2.9257086999022484
2.900293255131965
2.8641251221896384
2.8181818181818183
2.763440860215054
2.7126099706744866
2.674486803519061
2.641251221896383
2.608993157380254
2.5777126099706744
2.547409579667644
2.520039100684262
2.495601173020528
2.474095796676442
2.455522971652004
2.4408602150537635
2.4281524926686218
2.4173998044965788
2.4086021505376345
2.40078201368524
2.3929618768328447
2.3851417399804498
2.376344086021505
2.367546432062561
2.357771260997068
2.347018572825025
2.335288367546432
2.3225806451612905
2.3088954056695994
2.294232649071359
2.278592375366569
2.2658846529814274
2.254154447702835
2.241446725317693
2.228739002932551
2.21505376344086
2.203323558162268
2.1925708699902247
2.1837732160312804
2.176930596285435
2.172043010752688
2.16911045943304
2.167155425219941
2.1652003910068425
2.164222873900293
2.163245356793744
2.161290322580645
2.158357771260997
2.155425219941349
2.1515151515151514
2.146627565982405
2.1417399804496577
2.136852394916911
2.132942326490713
2.129032258064516
2.126099706744868
2.1251221896383186
2.1251221896383186
2.1251221896383186
2.124144672531769
2.12316715542522
2.12316715542522
2.1221896383186705
2.121212121212121
2.121212121212121
2.121212121212121
2.1221896383186705
2.124144672531769
2.126099706744868
2.1270772238514173
2.1280547409579667
2.129032258064516
2.129032258064516
2.1280547409579667
2.1270772238514173
2.1270772238514173
2.1270772238514173
2.1270772238514173
2.1270772238514173
2.1270772238514173
2.1270772238514173
2.1270772238514173
2.1280547409579667
2.1280547409579667
2.1270772238514173
2.126099706744868
2.1251221896383186
2.124144672531769
2.1251221896383186
2.1300097751710654
2.1417399804496577
2.1622678396871944
2.1925708699902247
2.233626588465298
2.2766373411534704
2.32355816226784
2.3851417399804498
2.4545454545454546
2.527859237536657
2.6021505376344085
2.673509286412512
2.7390029325513194
2.7976539589442817
2.8484848484848486
2.8914956011730206
2.9266862170087977
2.949169110459433
2.961876832844575
2.972629521016618
2.979472140762464
2.981427174975562
2.978494623655914
2.9716520039100685
2.959921798631476
2.9442815249266863
2.9237536656891496
2.8993157380254155
2.870967741935484
2.8377321603128056
2.8044965786901277
2.7702834799608995
2.7331378299120237
2.695014662756598
2.656891495601173
2.6207233626588464
2.5884652981427174
2.560117302052786
2.535679374389052
2.515151515151515
2.4975562072336266
2.482893450635386
2.4701857282502444
2.458455522971652
2.44672531769306
2.4349951124144678
2.4222873900293256
2.409579667644184
2.3958944281524928
2.383186705767351
2.36950146627566
2.355816226783969
2.3411534701857284
2.3255131964809386
2.3098729227761488
2.2952101661779083
2.281524926686217
2.2668621700879767
2.251221896383187
2.2355816226783967
2.220918866080156
2.206256109481916
2.193548387096774
2.1808406647116323
2.16911045943304
2.158357771260997
2.147605083088954
2.139784946236559
2.132942326490713
2.126099706744868
2.118279569892473
2.1114369501466275
2.104594330400782
2.0977517106549364
2.09188660801564
2.0869990224828934
2.0821114369501466
2.078201368523949
2.074291300097752
2.070381231671554
2.0684261974584555
2.067448680351906
2.0664711632453567
2.064516129032258
2.0625610948191597
2.060606060606061
2.058651026392962
2.056695992179863
2.0547409579667644
2.053763440860215
2.053763440860215
2.053763440860215
2.053763440860215
2.0547409579667644
2.053763440860215
2.053763440860215
2.053763440860215
2.053763440860215
2.0527859237536656
2.050830889540567
2.048875855327468
2.046920821114369
2.0449657869012707
2.0439882697947214
2.0439882697947214
2.04594330400782
2.0498533724340176
2.056695992179863
2.0684261974584555
2.0879765395894427
2.117302052785924
2.156402737047898
2.207233626588465
2.267839687194526
2.337243401759531
2.4134897360703813
2.4916911045943304
2.558162267839687
2.6158357771261
2.677419354838709
2.736070381231672
2.787878787878788
2.832844574780059
2.870967741935484
2.9012707722385143
2.924731182795699
2.941348973607038
2.952101661779081
2.9579667644183774
2.9579667644183774
2.952101661779081
2.943304007820137
2.9315738025415445
2.9159335288367547
2.8944281524926687
2.8670576735092865
2.835777126099707
2.7996089931573804
2.760508308895406
2.720430107526881
2.6803519061583576
2.641251221896383
2.6070381231671558
2.576735092864125
2.547409579667644
2.520039100684262
2.495601173020528
2.474095796676442
2.455522971652004
2.439882697947214
2.426197458455523
2.4134897360703813
2.401759530791789
2.3900293255131966
2.3792766373411536
2.36950146627566
2.357771260997068
2.345063538611926
2.3313782991202348
2.3167155425219943
2.3010752688172045
2.2854349951124147
2.2688172043010755
2.2521994134897363
2.236559139784946
2.220918866080156
2.2052785923753664
2.1925708699902247
2.1808406647116323
2.1681329423264906
2.155425219941349
2.142717497556207
1.8885630498533723
1.5102639296187683
1.310850439882698
1.2013685239491692
1.13880742913001
1.099706744868035
1.0742913000977516
1.0576735092864125
1.04594330400782
1.0342130987292275
1.0234604105571847
1.0127077223851415
1.0019550342130987
0.9921798631476052
0.981427174975562
0.9726295210166178
0.9657869012707724
0.9589442815249268
0.9530791788856304
0.9481915933528836
0.9452590420332356
0.9442815249266864
0.9413489736070382
0.9374389051808406
0.9325513196480938
0.9286412512218964
0.9257086999022482
0.9227761485826002
0.919843597262952
0.916911045943304
0.9149560117302052
0.9110459433040078
0.9090909090909092
0.9090909090909092
0.906158357771261
0.9022482893450636
0.8993157380254154
0.8963831867057673
0.8934506353861192
0.8914956011730205
0.8885630498533724
0.8866080156402737
0.8856304985337243
0.8856304985337243
0.884652981427175
0.8856304985337243
0.8875855327468231
0.8866080156402737
0.8866080156402737
0.8885630498533724
0.8944281524926686
0.9090909090909092
0.9374389051808406
0.9833822091886608
1.0498533724340176
1.1407624633431086
1.2561094819159335
1.3714565004887584
1.4926686217008798
1.640273704789834
1.8025415444770283
1.9687194525904204
2.129032258064516
2.27761485826002
2.4115347018572826
2.527859237536657
2.6236559139784945
2.7008797653958942
2.7595307917888565
2.803519061583578
2.8269794721407626
2.835777126099707
2.8406647116324537
2.8396871945259043
2.831867057673509
2.8152492668621703
2.790811339198436
2.757575757575758
2.7145650048875853
2.66177908113392
2.5992179863147604
2.527859237536657
2.4574780058651027
2.3870967741935485
2.310850439882698
2.233626588465298
2.158357771260997
2.0879765395894427
2.0234604105571847
1.9657869012707725
1.9149560117302051
1.8699902248289344
1.83088954056696
1.796676441837732
1.7673509286412512
1.7419354838709675
1.7174975562072337
1.6911045943304008
1.664711632453568
1.6392961876832846
1.6129032258064515
1.58455522971652
1.5532746823069403
1.521994134897361
1.4897360703812317
1.457478005865103
1.4242424242424243
1.393939393939394
1.3665689149560116
1.3362658846529814
1.305962854349951
1.2766373411534702
1.2473118279569892
1.219941348973607
1.1945259042033236
1.1720430107526882
1.1495601173020529
1.1290322580645162
1.1094819159335287
1.0918866080156402
1.078201368523949
1.0664711632453567
1.0527859237536656
1.0381231671554252
1.024437927663734
1.0117302052785924
0.9990224828934506
0.9872922776148584
0.9765395894428152
0.9667644183773216
0.9589442815249268
0.9521016617790812
0.9481915933528836
0.9472140762463344
0.9452590420332356
0.9423264907135877
0.9403714565004888
0.93841642228739
0.935483870967742
0.9335288367546432
0.9305962854349952
0.927663734115347
0.9247311827956988
0.9217986314760508
0.9178885630498532
0.9178885630498532
0.9188660801564028
0.916911045943304
0.9130009775171064
0.9100684261974584
0.9071358748778104
0.9042033235581622
0.9012707722385142
0.8993157380254154
0.8983382209188661
0.9002932551319648
0.9071358748778104
0.919843597262952
0.9403714565004888
0.9736070381231672
1.0254154447702837
1.0987292277614855
1.1935483870967742
1.3098729227761483
1.4428152492668622
1.5894428152492668
1.7429130009775171
1.895405669599218
2.042033235581622
2.1788856304985336
2.2873900293255134
2.375366568914956
2.4613880742913
2.5386119257087
2.603128054740958
2.654936461388074
2.6930596285435
2.718475073313783
2.732160312805474
2.735092864125122
2.7282502443792764
2.7116324535679373
2.686217008797654
2.6510263929618767
2.6050830889540566
2.549364613880743
2.4838709677419355
2.410557184750733
2.3313782991202348
2.249266862170088
2.1681329423264906
2.089931573802541
2.0175953079178885
1.9521016617790807
1.8993157380254155
1.8563049853372435
1.8172043010752688
1.7839687194525904
1.7565982404692082
1.7341153470185728
1.7126099706744868
1.6920821114369502
1.6705767350928642
1.6471163245356797
1.6217008797653958
1.5943304007820136
1.565982404692082
1.5395894428152492
1.5161290322580645
1.4916911045943304
1.466275659824047
1.4408602150537635
1.4173998044965788
1.392961876832845
1.367546432062561
1.3421309872922775
1.316715542521994
1.2932551319648091
1.2717497556207231
1.2541544477028348
1.2375366568914956
1.2179863147605083
1.1964809384164223
1.1749755620723363
1.1544477028347997
1.1329423264907137
1.1133919843597262
1.096774193548387
1.0821114369501466
1.067448680351906
1.053763440860215
1.040078201368524
1.0303030303030305
1.0224828934506354
1.0146627565982405
1.0087976539589445
1.002932551319648
0.9990224828934506
0.997067448680352
0.9960899315738024
0.9980449657869012
1.0009775171065494
1.002932551319648
1.0039100684261977
1.0068426197458455
1.0097751710654936
1.0117302052785924
1.010752688172043
1.0087976539589445
1.0058651026392962
1.002932551319648
0.9990224828934506
0.9941348973607038
0.989247311827957
0.9833822091886608
0.975562072336266
0.9960899315738024
1.0342130987292275
1.0518084066471165
1.056695992179863
1.056695992179863
1.056695992179863
1.056695992179863
1.0586510263929618
1.0625610948191593
1.067448680351906
1.0733137829912025
1.0791788856304985
1.0850439882697946
1.0909090909090908
1.0957966764418376
1.0987292277614855
1.1006842619745845
1.104594330400782
1.1163245356793745
1.1407624633431086
1.1837732160312806
1.249266862170088
1.3411534701857282
1.457478005865103
1.5962854349951123
1.75366568914956
1.8973607038123168
2.0332355816226784
2.185728250244379
2.3382209188660803
2.4809384164222874
2.6080156402737047
2.7155425219941347
2.8044965786901277
2.873900293255132
2.9257086999022484
2.962854349951124
2.988269794721408
2.99902248289345
2.997067448680352
2.992179863147605
2.9804496578690127
2.959921798631476
2.929618768328446
2.8905180840664717
2.841642228739003
2.7859237536656893
2.7223851417399803
2.6529814271749754
2.579667644183773
2.5034213098729228
2.4330400782013686
2.366568914956012
2.2981427174975564
2.231671554252199
2.1710654936461387
2.117302052785924
2.070381231671554
2.0283479960899315
1.992179863147605
1.959921798631476
1.9305962854349952
1.902248289345064
1.8758553274682308
1.8514173998044965
1.8240469208211143
1.7947214076246334
1.7644183773216031
1.7360703812316716
1.7096774193548387
1.6852394916911049
1.66177908113392
1.6392961876832846
1.616813294232649
1.5943304007820136
1.5708699902248289
1.5513196480938416
1.533724340175953
1.512218963831867
1.487781036168133
1.4623655913978495
1.435972629521017
1.409579667644184
1.383186705767351
1.3577712609970674
1.3343108504398826
1.3098729227761483
1.2864125122189638
1.267839687194526
1.252199413489736
1.2355816226783969
1.2209188660801564
1.206256109481916
1.1935483870967742
1.1827956989247312
1.1730205278592376
1.164222873900293
1.155425219941349
1.147605083088954
1.141739980449658
1.1358748778103618
1.1329423264907137
1.1319648093841643
1.130987292277615
1.130987292277615
1.130987292277615
1.130987292277615
1.130987292277615
1.130987292277615
1.130987292277615
1.130987292277615
1.130987292277615
1.1290322580645162
1.1280547409579669
1.1280547409579669
1.1251221896383188
1.121212121212121
1.1173020527859236
1.1133919843597262
1.110459433040078
1.1085043988269794
1.10752688172043
1.1065493646138806
1.1065493646138806
1.10752688172043
1.1085043988269794
1.110459433040078
1.1143695014662756
1.118279569892473
1.1251221896383188
1.1397849462365592
1.1671554252199414
1.2111436950146628
1.2756598240469208
1.3607038123167154
1.4682306940371457
1.5962854349951123
1.739980449657869
1.871945259042033
1.9980449657869013
2.1417399804496577
2.2873900293255134
2.4252199413489737
2.549364613880743
2.6559139784946235
2.742913000977517
2.811339198435973
2.863147605083089
2.900293255131965
2.924731182795699
2.932551319648094
2.929618768328446
2.920821114369501
2.905180840664712
2.8826979472140764
2.8533724340175954
2.8152492668621703
2.76930596285435
2.7155425219941347
2.653958944281525
2.5865102639296187
2.5161290322580645
2.443792766373412
2.378299120234604
2.317693059628544
2.257086999022483
2.19941348973607
2.147605083088954
2.101661779081134
2.06158357771261
2.026392961876833
1.9980449657869013
1.9765395894428155
1.9608993157380252
1.949169110459433
1.9393939393939397
1.9315738025415443
1.924731182795699
1.9188660801564028
1.9130009775171064
1.90811339198436
1.9012707722385145
1.89247311827957
1.8826979472140764
1.871945259042033
1.858260019550342
1.8416422287390029
1.823069403714565
1.804496578690127
1.7839687194525904
1.7605083088954057
1.737047898338221
1.715542521994135
1.6959921798631477
