ppg
2.3440860215053765
2.264907135874878
2.1847507331378297
2.1065493646138806
2.0332355816226784
1.9667644183773216
1.90811339198436
1.855327468230694
1.8093841642228736
1.7702834799608993
1.7360703812316716
1.7096774193548387
1.6881720430107527
1.6656891495601174
1.6451612903225807
1.6265884652981428
1.608993157380254
1.5913978494623655
1.573802541544477
1.555229716520039
1.5366568914956011
1.5161290322580645
1.4946236559139785
1.4750733137829912
1.457478005865103
1.4281524926686218
1.393939393939394
1.3655913978494625
1.3401759530791788
1.316715542521994
1.2883675464320623
1.2639296187683284
1.24633431085044
1.2287390029325511
1.2101661779081134
1.1915933528836755
1.1749755620723363
1.1622678396871946
1.1515151515151516
1.13880742913001
1.1251221896383188
1.110459433040078
1.096774193548387
1.0840664711632453
1.072336265884653
1.0606060606060606
1.0478983382209188
1.0371456500488758
1.0312805474095796
1.0273704789833822
1.021505376344086
1.0146627565982405
1.0087976539589445
1.0039100684261977
0.9990224828934506
0.9941348973607038
0.989247311827957
0.9843597262952102
0.981427174975562
0.9804496578690128
0.9794721407624634
0.981427174975562
0.9853372434017597
0.9872922776148584
0.9882697947214076
0.9882697947214076
0.9863147605083088
0.9833822091886608
0.9804496578690128
0.9765395894428152
0.9716520039100685
0.9667644183773216
0.9618768328445748
0.959921798631476
0.9608993157380256
0.9618768328445748
0.9638318670576737
0.9716520039100685
0.989247311827957
1.021505376344086
1.072336265884653
1.144672531769306
1.2394916911045943
1.3949169110459434
1.5483870967741935
1.6656891495601174
1.7839687194525904
1.902248289345064
2.038123167155425
2.174975562072336
2.304007820136853
2.420332355816227
2.5219941348973607
2.6080156402737047
2.678396871945259
2.7331378299120237
2.773216031280548
2.7996089931573804
2.8103616813294234
2.811339198435973
2.8084066471163247
2.7966764418377323
2.768328445747801
2.7253176930596283
2.678396871945259
2.6402737047898337
2.5865102639296187
2.5249266862170088
2.4750733137829912
2.409579667644184
2.32355816226784
2.247311827956989
2.189638318670577
2.1055718475073317
2.013685239491691
1.9530791788856303
1.8983382209188664
1.847507331378299
1.8054740957966764
1.7683284457478006
1.7380254154447703
1.704789833822092
1.6813294232649072
1.6627565982404693
1.643206256109482
1.6236559139784943
1.6041055718475072
1.58455522971652
1.565982404692082
1.5464320625610948
1.525904203323558
1.5063538611925709
1.4848484848484849
1.469208211143695
1.4545454545454546
1.434017595307918
1.4115347018572826
1.388074291300098
1.3655913978494625
1.343108504398827
1.3206256109481915
1.2991202346041055
1.2776148582600195
1.2580645161290325
1.238514173998045
1.2189638318670577
1.2013685239491692
1.1886608015640274
1.1788856304985338
1.166177908113392
1.1534701857282503
1.13880742913001
1.1251221896383188
1.1124144672531768
1.1006842619745845
1.0909090909090908
1.0811339198435972
1.072336265884653
1.064516129032258
1.0596285434995112
1.0557184750733135
1.0478983382209188
1.0361681329423265
1.0224828934506354
1.0068426197458455
0.9912023460410556
0.975562072336266
0.9608993157380256
0.946236559139785
0.9335288367546432
0.9217986314760508
0.9110459433040078
0.9042033235581622
0.8993157380254154
0.8905180840664711
0.8807429130009775
0.8719452590420332
0.8641251221896383
0.8592375366568915
0.8572825024437928
0.8572825024437928
0.8602150537634409
0.8641251221896383
0.8680351906158358
0.873900293255132
0.8817204301075269
0.8905180840664711
0.9022482893450636
0.9217986314760508
0.9521016617790812
1.0009775171065494
1.072336265884653
1.1671554252199414
1.2854349951124144
1.4242424242424243
1.576735092864125
1.7350928641251222
1.873900293255132
1.9990224828934504
2.132942326490713
2.2629521016617797
2.3822091886608017
2.487781036168133
2.578690127077224
2.6559139784946235
2.718475073313783
2.7673509286412514
2.8044965786901277
2.831867057673509
2.844574780058651
2.84652981427175
2.843597262952102
2.831867057673509
2.811339198435973
2.7810361681329425
2.742913000977517
2.695014662756598
2.638318670576735
2.5747800586510263
2.505376344086021
2.4301075268817205
2.3528836754643208
2.2825024437927666
2.2160312805474094
2.146627565982405
2.080156402737048
2.018572825024438
1.962854349951124
1.913978494623656
1.870967741935484
1.833822091886608
1.8035190615835777
1.7781036168132942
1.7556207233626588
1.737047898338221
1.7204301075268815
1.7028347996089932
1.6852394916911049
1.6666666666666667
1.6451612903225807
1.6207233626588464
1.5943304007820136
1.5650048875855327
1.533724340175953
1.501466275659824
1.4682306940371457
1.435972629521017
1.409579667644184
1.3861192570869991
1.3616813294232648
1.33822091886608
1.3157380254154447
1.295210166177908
1.2776148582600195
1.2619745845552297
1.2502443792766371
1.2394916911045943
1.23069403714565
1.2209188660801564
1.2121212121212122
1.2043010752688172
1.1935483870967742
1.1808406647116323
1.166177908113392
1.1505376344086022
1.1348973607038124
1.1202346041055715
1.1065493646138806
1.093841642228739
1.0821114369501466
1.0713587487781036
1.06158357771261
1.0557184750733135
1.050830889540567
1.0439882697947214
1.0361681329423265
1.0283479960899315
1.021505376344086
1.0156402737047898
1.0117302052785924
1.0469208211143697
1.1006842619745845
1.1280547409579669
1.141739980449658
1.1505376344086022
1.1583577712609971
1.1612903225806452
1.1612903225806452
1.1593352883675463
1.1573802541544478
1.1564027370478984
1.155425219941349
1.155425219941349
1.155425219941349
1.155425219941349
1.155425219941349
1.155425219941349
1.1593352883675463
1.1700879765395895
1.1915933528836755
1.227761485826002
1.2825024437927663
1.359726295210166
1.4623655913978495
1.585532746823069
1.726295210166178
1.8797653958944285
2.0391006842619745
2.1955034213098727
2.3255131964809386
2.4379276637341154
2.5542521994134897
2.6637341153470184
2.7614858260019552
2.844574780058651
2.9120234604105573
2.964809384164223
3.005865102639296
3.037145650048876
3.0576735092864125
3.067448680351906
3.0664711632453567
3.0547409579667644
3.035190615835777
3.007820136852395
2.9716520039100685
2.9257086999022484
2.8729227761485827
2.8132942326490715
2.745845552297165
2.6725317693059627
2.595307917888563
2.517106549364614
2.439882697947214
2.3704789833822093
2.30791788856305
2.244379276637341
2.182795698924731
2.126099706744868
2.0762463343108504
2.0332355816226784
1.997067448680352
1.964809384164223
1.9374389051808407
1.913978494623656
1.8934506353861196
1.8748778103616808
1.858260019550342
1.8387096774193548
1.818181818181818
1.7976539589442817
1.7781036168132942
1.7595307917888563
1.7409579667644184
1.7223851417399805
1.7028347996089932
1.6823069403714566
1.6598240469208212
1.635386119257087
1.6129032258064515
1.5933528836754642
1.5708699902248289
1.5483870967741935
1.5249266862170088
1.5024437927663734
1.4838709677419355
1.466275659824047
1.4496578690127078
1.4330400782013686
1.4173998044965788
1.4027370478983383
1.3919843597262953
1.383186705767351
1.3724340175953078
1.359726295210166
1.3470185728250244
1.3343108504398826
1.3225806451612905
1.310850439882698
1.3010752688172045
1.29227761485826
1.2854349951124144
1.2795698924731185
1.273704789833822
1.270772238514174
1.2688172043010753
1.2639296187683284
1.2580645161290325
1.252199413489736
1.24633431085044
1.241446725317693
1.2375366568914956
1.2346041055718475
1.2326490713587488
1.23069403714565
1.2297165200391007
1.2316715542521994
1.2336265884652982
1.2346041055718475
1.2365591397849462
1.2375366568914956
1.2375366568914956
1.2365591397849462
1.2355816226783969
1.2336265884652982
1.2316715542521994
1.2316715542521994
1.2365591397849462
1.249266862170088
1.2697947214076246
1.303030303030303
1.3577712609970674
1.435972629521017
1.5386119257087
1.6627565982404693
1.8035190615835777
1.9550342130987293
2.1114369501466275
2.264907135874878
2.410557184750733
2.544477028347996
2.6480938416422286
2.732160312805474
2.8152492668621703
2.8905180840664717
2.9550342130987293
3.0087976539589443
3.050830889540567
3.083088954056696
3.104594330400782
3.117302052785924
3.1192570869990224
3.110459433040078
3.09188660801564
3.064516129032258
3.029325513196481
2.986314760508309
2.9345063538611926
2.874877810361681
2.8084066471163247
2.73802541544477
2.6637341153470184
2.5884652981427174
2.5131964809384164
2.439882697947214
2.367546432062561
2.304985337243402
2.2502443792766376
2.1974584555229715
2.1495601173020527
2.1065493646138806
2.069403714565005
2.038123167155425
2.0117302052785924
1.9902248289345064
1.9696969696969695
1.9501466275659824
1.9315738025415443
1.9130009775171064
1.8963831867057677
1.8807429130009776
1.8631476050830889
1.844574780058651
1.825024437927664
1.804496578690127
1.7839687194525904
1.7634408602150538
1.7438905180840665
1.7253176930596286
1.7057673509286413
1.6871945259042034
1.6705767350928642
1.6549364613880744
1.6373411534701858
1.6187683284457477
1.5992179863147604
1.5806451612903225
1.563049853372434
1.5464320625610948
1.5288367546432062
1.5112414467253177
1.495601173020528
1.4809384164222874
1.466275659824047
1.4545454545454546
1.4457478005865103
1.435972629521017
1.426197458455523
1.4164222873900294
1.4076246334310851
1.3988269794721409
1.391006842619746
1.3822091886608017
1.3743890518084063
1.3665689149560116
1.3587487781036167
1.35386119257087
1.3509286412512218
1.3479960899315735
1.3440860215053765
1.3391984359726294
1.3343108504398826
1.3294232649071358
1.324535679374389
1.3206256109481915
1.3176930596285434
1.3147605083088951
1.3118279569892473
1.3088954056695992
1.3079178885630498
1.3088954056695992
1.3069403714565004
1.303030303030303
1.2991202346041055
1.2942326490713587
1.289345063538612
1.2854349951124144
1.2854349951124144
1.295210166177908
1.3196480938416422
1.3616813294232648
1.4134897360703813
1.479960899315738
1.5757575757575757
1.694037145650049
1.83088954056696
1.9794721407624636
2.131964809384164
2.2825024437927666
2.426197458455523
2.558162267839687
2.675464320625611
2.777126099706745
2.863147605083089
2.9237536656891496
2.9237536656891496
2.9237536656891496
2.9237536656891496
2.9237536656891496
2.9237536656891496
2.9237536656891496
2.9696969696969697
2.959921798631476
2.941348973607038
2.913000977517106
2.875855327468231
2.832844574780059
2.782991202346041
2.7233626588465296
2.654936461388074
2.578690127077224
2.498533724340176
2.4164222873900294
2.333333333333333
2.2521994134897363
2.174975562072336
2.102639296187683
2.0361681329423265
1.981427174975562
1.9345063538611929
1.8905180840664717
1.8504398826979471
1.81524926686217
1.7849462365591398
1.758553274682307
1.7341153470185728
1.710654936461388
1.6881720430107527
1.6656891495601174
1.6441837732160314
1.6226783968719452
1.6050830889540566
1.587487781036168
1.565982404692082
1.543499511241447
1.5190615835777126
1.4936461388074291
1.469208211143695
1.444770283479961
1.4203323558162269
1.3949169110459434
1.370478983382209
1.346041055718475
1.3255131964809383
1.3079178885630498
1.2883675464320623
1.267839687194526
1.2482893450635386
1.2297165200391007
1.2111436950146628
1.1935483870967742
1.1759530791788857
1.1593352883675463
1.142717497556207
1.1270772238514175
1.1124144672531768
1.1016617790811338
1.0957966764418376
1.0879765395894427
1.0801564027370478
1.072336265884653
1.064516129032258
1.056695992179863
1.0488758553274682
1.040078201368524
1.032258064516129
1.0234604105571847
1.0156402737047898
1.010752688172043
1.007820136852395
1.0039100684261977
1.0019550342130987
1.0009775171065494
0.9990224828934506
0.997067448680352
0.9951124144672532
0.9931573802541545
0.9902248289345064
0.9872922776148584
0.9853372434017597
0.9833822091886608
0.9833822091886608
0.9853372434017597
0.9843597262952102
0.981427174975562
0.9775171065493646
0.975562072336266
0.9765395894428152
0.9833822091886608
1.0009775171065494
1.035190615835777
1.0879765395894427
1.163245356793744
1.2473118279569892
1.343108504398827
1.4672531769305963
1.6099706744868034
1.7634408602150538
1.919843597262952
2.070381231671554
2.212121212121212
2.3411534701857284
2.4545454545454546
2.5513196480938416
2.633431085043988
2.6989247311827955
2.7419354838709675
2.768328445747801
2.791788856304985
2.8084066471163247
2.8181818181818183
2.819159335288368
2.809384164222874
2.790811339198436
2.7624633431085046
2.7253176930596283
2.679374389051808
2.625610948191593
2.570869990224829
2.5112414467253177
2.441837732160313
2.3655913978494625
2.286412512218964
2.206256109481916
2.1280547409579667
2.053763440860215
1.9843597262952104
1.920821114369501
1.866080156402737
1.818181818181818
1.7771260997067448
1.7458455522971652
1.7204301075268815
1.6959921798631477
1.6735092864125125
1.6529814271749756
1.6334310850439884
1.6138807429130009
1.5943304007820136
1.5757575757575757
1.5562072336265884
1.5366568914956011
1.517106549364614
1.499511241446725
1.4838709677419355
1.4633431085043989
1.439882697947214
1.4164222873900294
1.3919843597262953
1.3665689149560116
1.343108504398827
1.3206256109481915
1.2981427174975562
1.2766373411534702
1.2561094819159335
1.2346041055718475
1.2179863147605083
1.2043010752688172
1.1886608015640274
1.1720430107526882
1.155425219941349
1.1397849462365592
1.126099706744868
1.1133919843597262
1.1006842619745845
1.088954056695992
1.0772238514173995
1.0664711632453567
1.0606060606060606
1.0576735092864125
1.0518084066471165
1.0449657869012707
0.9951124144672532
0.997067448680352
1.0058651026392962
1.029325513196481
1.0713587487781036
1.1358748778103618
1.224828934506354
1.3372434017595307
1.4682306940371457
1.5933528836754642
1.7174975562072337
1.86119257086999
2.010752688172043
2.155425219941349
2.289345063538612
2.410557184750733
2.5161290322580645
2.6050830889540566
2.677419354838709
2.736070381231672
2.782991202346041
2.812316715542522
2.8289345063538613
2.8406647116324537
2.8455522971652005
2.843597262952102
2.832844574780059
2.811339198435973
2.7810361681329425
2.7419354838709675
2.6930596285435
2.635386119257087
2.570869990224829
2.4995112414467253
2.43108504398827
2.363636363636364
2.289345063538612
2.2140762463343107
2.1388074291300097
2.0664711632453567
1.9990224828934504
1.9393939393939397
1.8866080156402736
1.8406647116324533
1.801564027370479
1.7683284457478006
1.7409579667644184
1.7174975562072337
1.694037145650049
1.672531769305963
1.6529814271749756
1.6334310850439884
1.6148582600195502
1.598240469208211
1.5796676441837731
1.5669599217986314
1.555229716520039
1.5386119257087
1.52297165200391
1.5073313782991202
1.4887585532746823
1.4672531769305963
1.444770283479961
1.4213098729227762
1.396871945259042
1.3734115347018572
1.3509286412512218
1.3284457478005864
1.3069403714565004
1.2873900293255132
1.2688172043010753
1.2541544477028348
1.241446725317693
1.224828934506354
1.2082111436950147
1.1915933528836755
1.1759530791788857
1.1622678396871946
1.1485826001955035
1.1348973607038124
1.1231671554252198
1.1133919843597262
1.1036168132942326
1.0987292277614855
1.0948191593352885
1.0899315738025417
1.0850439882697946
1.0801564027370478
1.0762463343108504
1.0713587487781036
1.0664711632453567
1.06158357771261
1.0557184750733135
1.050830889540567
1.0449657869012707
1.0410557184750733
1.040078201368524
1.0410557184750733
1.040078201368524
1.0381231671554252
1.0361681329423265
1.0342130987292275
1.0312805474095796
1.029325513196481
1.0273704789833822
1.024437927663734
1.021505376344086
1.0195503421309873
1.0205278592375366
1.0234604105571847
1.024437927663734
1.0254154447702837
1.029325513196481
1.040078201368524
1.0635386119257086
1.1055718475073313
1.1691104594330402
1.2561094819159335
1.3655913978494625
1.4946236559139785
1.640273704789834
1.7741935483870968
1.9012707722385145
2.0439882697947214
2.1867057673509285
2.3225806451612905
2.44672531769306
2.5562072336265884
2.6510263929618767
2.7282502443792764
2.790811339198436
2.8396871945259043
2.87683284457478
2.897360703812317
2.906158357771261
2.9100684261974585
2.906158357771261
2.895405669599218
2.877810361681329
2.850439882697948
2.8132942326490715
2.7673509286412514
2.713587487781036
2.652003910068426
2.5806451612903225
2.5024437927663734
2.429130009775171
2.358748778103617
2.2825024437927666
2.206256109481916
2.132942326490713
2.0635386119257086
2.0009775171065494
1.946236559139785
1.8983382209188664
1.8563049853372435
1.8211143695014664
1.7917888563049853
1.7673509286412512
1.7448680351906158
1.7233626588465298
1.7028347996089932
1.6823069403714566
1.66177908113392
1.6412512218963833
1.6217008797653958
1.6021505376344083
1.581622678396872
1.560117302052786
1.5376344086021505
1.5151515151515151
1.4946236559139785
1.4760508308895406
1.4545454545454546
1.43108504398827
1.4076246334310851
1.3841642228739004
1.3616813294232648
1.3391984359726294
1.316715542521994
1.295210166177908
1.2756598240469208
1.2561094819159335
1.2404692082111437
1.2287390029325511
1.2150537634408602
1.2013685239491692
1.187683284457478
1.1730205278592376
1.1593352883675463
1.1466275659824048
1.1348973607038124
1.1241446725317692
1.1143695014662756
1.1055718475073313
1.0987292277614855
1.0957966764418376
1.0948191593352885
1.0909090909090908
1.0869990224828934
1.0821114369501466
1.078201368523949
1.075268817204301
1.072336265884653
1.0694037145650048
1.0664711632453567
1.0625610948191593
1.056695992179863
1.053763440860215
1.053763440860215
1.0518084066471165
1.0498533724340176
1.0478983382209188
1.04594330400782
1.0439882697947214
1.0420332355816226
1.0391006842619743
1.0371456500488758
1.0342130987292275
1.0312805474095796
1.029325513196481
1.0303030303030305
1.0342130987292275
1.0439882697947214
1.0654936461388074
1.104594330400782
1.166177908113392
1.252199413489736
1.3616813294232648
1.4926686217008798
1.6392961876832846
1.7956989247311828
1.95405669599218
2.088954056695992
2.207233626588465
2.3304007820136854
2.4486803519061584
2.5562072336265884
2.649071358748778
2.727272727272727
2.791788856304985
2.841642228739003
2.8807429130009776
2.90811339198436
2.9257086999022484
2.9345063538611926
2.9315738025415445
2.916911045943304
2.897360703812317
2.8699902248289346
2.833822091886608
2.788856304985337
2.735092864125122
2.674486803519061
2.6070381231671558
2.5317693059628543
2.452590420332356
2.3714565004887587
2.2981427174975564
2.23069403714565
2.161290322580645
2.0948191593352883
2.032258064516129
1.975562072336266
1.924731182795699
1.878787878787879
1.839687194525904
1.8064516129032255
1.7781036168132942
1.75366568914956
1.732160312805474
1.715542521994135
1.7008797653958945
1.6852394916911049
1.6686217008797657
1.6490713587487782
1.629521016617791
1.6099706744868034
1.5884652981427174
1.565982404692082
1.543499511241447
1.521994134897361
1.498533724340176
1.47702834799609
1.457478005865103
1.4349951124144673
1.4115347018572826
1.3890518084066472
1.3685239491691104
1.348973607038123
1.3294232649071358
1.3098729227761483
1.2913000977517106
1.273704789833822
1.2561094819159335
1.2434017595307918
1.2316715542521994
1.2179863147605083
1.2043010752688172
1.1925708699902249
1.1808406647116323
1.1700879765395895
1.1612903225806452
1.1515151515151516
1.141739980449658
1.1329423264907137
1.1251221896383188
1.1192570869990224
1.1173020527859236
1.1163245356793745
1.1133919843597262
1.10752688172043
1.099706744868035
1.0957966764418376
1.0928641251221896
1.0909090909090908
1.0918866080156402
1.093841642228739
1.0957966764418376
1.0977517106549364
1.099706744868035
1.1016617790811338
1.1006842619745845
1.099706744868035
1.099706744868035
1.0987292277614855
1.096774193548387
1.0948191593352885
1.0918866080156402
1.0899315738025417
1.0899315738025417
1.0928641251221896
1.1006842619745845
1.1143695014662756
1.1378299120234605
1.1788856304985338
1.2434017595307918
1.3304007820136852
1.4408602150537635
1.573802541544477
1.7243401759530792
1.8856304985337244
2.050830889540567
2.2140762463343107
2.367546432062561
2.489736070381232
2.591397849462365
2.695014662756598
2.790811339198436
2.875855327468231
2.946236559139785
3.003910068426197
3.0498533724340176
3.085043988269794
3.10850439882698
3.120234604105572
3.12316715542522
3.1163245356793743
3.099706744868035
3.075268817204301
3.0449657869012707
3.005865102639296
2.9579667644183774
2.900293255131965
2.833822091886608
2.760508308895406
2.681329423264907
2.5972629521016617
2.512218963831867
2.429130009775171
2.355816226783969
2.289345063538612
2.222873900293255
2.160312805474096
2.103616813294233
2.053763440860215
2.010752688172043
1.9736070381231672
1.9413489736070384
1.9130009775171064
1.8875855327468232
1.8631476050830889
1.839687194525904
1.8201368523949168
1.8025415444770283
1.782991202346041
1.761485826001955
1.739980449657869
1.7174975562072337
1.694037145650049
1.6686217008797657
1.643206256109482
1.6177908113391983
1.5913978494623655
1.565982404692082
1.5454545454545454
1.5268817204301075
1.5063538611925709
1.4848484848484849
1.4613880742913
1.4379276637341154
1.41544477028348
1.393939393939394
1.3734115347018572
1.3548387096774193
1.3372434017595307
1.3196480938416422
1.3020527859237536
1.2873900293255132
1.2746823069403714
1.2590420332355816
1.2434017595307918
1.2287390029325511
1.2140762463343109
1.2013685239491692
1.1915933528836755
1.1837732160312806
1.176930596285435
1.1710654936461389
1.1652003910068427
1.1622678396871946
1.160312805474096
1.1564027370478984
1.152492668621701
1.147605083088954
1.1407624633431086
1.1329423264907137
1.1251221896383188
1.1163245356793745
1.1094819159335287
1.1036168132942326
1.099706744868035
1.0957966764418376
1.0957966764418376
1.096774193548387
1.0957966764418376
1.093841642228739
1.0918866080156402
1.0879765395894427
1.0821114369501466
1.0742913000977516
1.0684261974584557
1.067448680351906
1.0762463343108504
1.0977517106549364
1.1300097751710656
1.1759530791788857
1.24633431085044
1.3411534701857282
1.458455522971652
1.5943304007820136
1.7438905180840665
1.902248289345064
2.0635386119257086
2.218963831867057
2.363636363636364
2.493646138807429
2.6070381231671558
2.6901270772238512
2.752688172043011
2.812316715542522
2.8641251221896384
2.905180840664712
2.936461388074292
2.9579667644183774
2.9687194525904204
2.970674486803519
2.962854349951124
2.946236559139785
2.919843597262952
2.884652981427175
2.8426197458455524
2.790811339198436
2.730205278592375
2.66177908113392
2.5855327468230693
2.505376344086021
2.4222873900293256
2.337243401759531
2.2531769305962857
2.172043010752688
2.0957966764418376
2.024437927663734
1.964809384164223
1.913978494623656
1.8670576735092863
1.826001955034213
1.7898338220918866
1.758553274682307
1.7311827956989247
1.7057673509286413
1.6823069403714566
1.6588465298142718
1.6373411534701858
1.616813294232649
1.5992179863147604
1.5835777126099706
1.5650048875855327
1.544477028347996
1.521994134897361
1.4975562072336266
1.4721407624633431
1.4467253176930597
1.4213098729227762
1.3958944281524928
1.370478983382209
1.3470185728250244
1.327468230694037
1.310850439882698
1.29227761485826
1.2727272727272727
1.2531769305962854
1.2336265884652982
1.2150537634408602
1.1964809384164223
1.1788856304985338
1.1593352883675463
1.1407624633431086
1.1231671554252198
1.10752688172043
1.096774193548387
1.088954056695992
1.078201368523949
1.0664711632453567
1.0557184750733135
1.04594330400782
1.0361681329423265
1.0273704789833822
1.0195503421309873
1.0127077223851415
1.0068426197458455
1.0009775171065494
0.9990224828934506
0.9980449657869012
0.9960899315738024
0.9931573802541545
0.9902248289345064
0.9882697947214076
