ppg
3.280547409579668
3.278592375366569
3.2658846529814274
3.244379276637341
3.2160312805474094
3.1818181818181817
3.142717497556207
3.101661779081134
3.0576735092864125
3.010752688172043
2.9579667644183774
2.9012707722385143
2.8377321603128056
2.766373411534702
2.689149560117302
2.6041055718475072
2.5112414467253177
2.4134897360703813
2.313782991202346
2.2248289345063537
2.1417399804496577
2.0557184750733137
1.975562072336266
1.9042033235581624
1.842619745845552
1.7888563049853372
1.7429130009775171
1.704789833822092
1.675464320625611
1.6520039100684265
1.629521016617791
1.6109481915933528
1.5962854349951123
1.5777126099706744
1.5581622678396871
1.5405669599217986
1.52297165200391
1.5073313782991202
1.4946236559139785
1.482893450635386
1.4711632453567938
1.458455522971652
1.4437927663734116
1.4271749755620724
1.4134897360703813
1.401759530791789
1.3870967741935485
1.3724340175953078
1.356793743890518
1.343108504398827
1.3294232649071358
1.3176930596285434
1.3088954056695992
1.3020527859237536
1.2961876832844574
1.2903225806451613
1.2873900293255132
1.2854349951124144
1.2825024437927663
1.2776148582600195
1.2727272727272727
1.2688172043010753
1.2668621700879763
1.267839687194526
1.2697947214076246
1.2717497556207231
1.2756598240469208
1.2795698924731185
1.284457478005865
1.2913000977517106
1.2981427174975562
1.303030303030303
1.3069403714565004
1.3118279569892473
1.3157380254154447
1.3176930596285434
1.3206256109481915
1.327468230694037
1.3372434017595307
1.3450635386119256
1.348973607038123
1.3519061583577712
1.3548387096774193
1.3528836754643203
1.3479960899315735
1.3440860215053765
1.346041055718475
1.3626588465298142
1.4027370478983383
1.478983382209189
1.595307917888563
1.7487781036168133
1.932551319648094
2.133919843597263
2.310850439882698
2.4652981427174976
2.6236559139784945
2.7673509286412514
2.8885630498533725
2.981427174975562
3.046920821114369
3.089931573802541
3.114369501466276
3.121212121212121
3.113391984359726
3.0948191593352883
3.0664711632453567
3.032258064516129
2.995112414467253
2.9530791788856305
2.906158357771261
2.854349951124145
2.7976539589442817
2.7341153470185726
2.662756598240469
2.5855327468230693
2.501466275659824
2.410557184750733
2.314760508308896
2.2277614858260018
2.146627565982405
2.059628543499511
1.9745845552297163
1.895405669599218
1.8240469208211143
1.761485826001955
1.710654936461388
1.6705767350928642
1.6373411534701858
1.6080156402737047
1.5835777126099706
1.565982404692082
1.552297165200391
1.5376344086021505
1.5190615835777126
1.498533724340176
1.478983382209189
1.458455522971652
1.4379276637341154
1.4164222873900294
1.3949169110459434
1.3734115347018572
1.3519061583577712
1.335288367546432
1.3235581622678396
1.3088954056695992
1.2942326490713587
1.278592375366569
1.2619745845552297
1.24633431085044
1.2297165200391007
1.2130987292277615
1.1974584555229717
1.1808406647116323
1.166177908113392
1.152492668621701
1.142717497556207
1.1358748778103618
1.1270772238514175
1.1173020527859236
1.10752688172043
1.099706744868035
1.0928641251221896
1.0869990224828934
1.0840664711632453
1.083088954056696
1.0821114369501466
1.0821114369501466
1.083088954056696
1.083088954056696
1.0811339198435972
1.0772238514173995
1.072336265884653
1.067448680351906
1.0635386119257086
1.06158357771261
1.0606060606060606
1.0606060606060606
1.0606060606060606
1.0606060606060606
1.0576735092864125
1.0557184750733135
1.0576735092864125
1.0625610948191593
1.0801564027370478
1.1202346041055715
1.1915933528836755
1.300097751710655
1.4457478005865103
1.6236559139784943
1.823069403714565
2.026392961876833
2.219941348973607
2.3734115347018574
2.496578690127077
2.613880742913001
2.7155425219941347
2.798631476050831
2.86217008797654
2.9071358748778104
2.936461388074292
2.952101661779081
2.956989247311828
2.9530791788856305
2.9423264907135875
2.924731182795699
2.900293255131965
2.873900293255132
2.84652981427175
2.8181818181818183
2.787878787878788
2.7536656891495603
2.713587487781036
2.6666666666666665
2.610948191593353
2.5464320625610948
2.4731182795698925
2.350928641251222
2.2130987292277613
2.112414467253177
2.0234604105571847
1.9403714565004888
1.8621700879765395
1.7898338220918866
1.7253176930596286
1.6695992179863148
1.6236559139784943
1.5884652981427174
1.560117302052786
1.5376344086021505
1.5190615835777126
1.5053763440860215
1.4936461388074291
1.4819159335288368
1.4701857282502444
1.456500488758553
1.4418377321603129
1.426197458455523
1.4115347018572826
1.3978494623655917
1.3861192570869991
1.3763440860215057
1.3665689149560116
1.3587487781036167
1.3528836754643203
1.3450635386119256
1.3362658846529814
1.327468230694037
1.3176930596285434
1.305962854349951
1.2932551319648091
1.2834799608993157
1.2756598240469208
1.2697947214076246
1.2658846529814272
1.2639296187683284
1.2649071358748778
1.2668621700879763
1.267839687194526
1.267839687194526
1.267839687194526
1.2697947214076246
1.270772238514174
1.270772238514174
1.270772238514174
1.270772238514174
1.270772238514174
1.270772238514174
1.2717497556207231
1.273704789833822
1.2746823069403714
1.2746823069403714
1.2746823069403714
1.2746823069403714
1.2746823069403714
1.2746823069403714
1.2746823069403714
1.2746823069403714
1.2746823069403714
1.273704789833822
1.2727272727272727
1.2727272727272727
1.273704789833822
1.273704789833822
1.2727272727272727
1.270772238514174
1.2688172043010753
1.2688172043010753
1.273704789833822
1.2883675464320623
1.3235581622678396
1.3861192570869991
1.479960899315738
1.581622678396872
1.6950146627565983
1.8416422287390029
2.004887585532747
2.1710654936461387
2.3274682306940373
2.4652981427174976
2.578690127077224
2.667644183773216
2.7341153470185726
2.779081133919844
2.803519061583578
2.811339198435973
2.8044965786901277
2.788856304985337
2.7702834799608995
2.747800586510264
2.721407624633431
2.69208211143695
2.658846529814272
2.6236559139784945
2.58455522971652
2.539589442815249
2.487781036168133
2.43108504398827
2.375366568914956
2.3196480938416424
2.2551319648093844
2.1837732160312804
2.1065493646138806
2.024437927663734
1.943304007820137
1.866080156402737
1.793743890518084
1.726295210166178
1.6666666666666667
1.616813294232649
1.576735092864125
1.547409579667644
1.5239491691104594
1.501466275659824
1.479960899315738
1.457478005865103
1.435972629521017
1.4173998044965788
1.3998044965786902
1.3822091886608017
1.364613880742913
1.3470185728250244
1.3304007820136852
1.3157380254154447
1.303030303030303
1.2883675464320623
1.273704789833822
1.2590420332355816
1.2443792766373412
1.23069403714565
1.2160312805474096
1.2003910068426198
1.1837732160312806
1.1671554252199414
1.1515151515151516
1.13880742913001
1.1290322580645162
1.1192570869990224
1.1094819159335287
1.099706744868035
1.0899315738025417
1.0811339198435972
1.0713587487781036
1.0625610948191593
1.0547409579667644
1.0469208211143697
1.0381231671554252
1.029325513196481
1.0263929618768328
1.0273704789833822
1.0283479960899315
1.0283479960899315
1.0283479960899315
1.0263929618768328
1.021505376344086
1.0166177908113392
1.013685239491691
1.0117302052785924
1.010752688172043
1.010752688172043
1.0127077223851415
1.0166177908113392
1.0224828934506354
1.0283479960899315
1.0312805474095796
1.0312805474095796
1.0273704789833822
1.0234604105571847
1.024437927663734
1.0381231671554252
1.072336265884653
1.1348973607038124
1.2297165200391007
1.335288367546432
1.455522971652004
1.6080156402737047
1.7741935483870968
1.943304007820137
2.103616813294233
2.24633431085044
2.3685239491691106
2.469208211143695
2.547409579667644
2.606060606060606
2.64613880742913
2.665689149560117
2.673509286412512
2.677419354838709
2.675464320625611
2.668621700879765
2.656891495601173
2.6402737047898337
2.621700879765396
2.60019550342131
2.5747800586510263
2.548387096774193
2.5180840664711632
2.482893450635386
2.44672531769306
2.407624633431085
2.360703812316716
2.3059628543499517
2.244379276637341
2.175953079178885
2.102639296187683
2.027370478983382
1.9530791788856303
1.8807429130009776
1.8113391984359728
1.747800586510264
1.696969696969697
1.6549364613880744
1.616813294232649
1.58455522971652
1.5591397849462365
1.5405669599217986
1.5278592375366569
1.517106549364614
1.504398826979472
1.490713587487781
1.47702834799609
1.4623655913978495
1.4486803519061584
1.436950146627566
1.426197458455523
1.414467253176931
1.404692082111437
1.3949169110459434
1.3851417399804498
1.375366568914956
1.3655913978494625
1.3558162267839686
1.346041055718475
1.33822091886608
1.3304007820136852
1.324535679374389
1.3186705767350928
1.310850439882698
1.303030303030303
1.2942326490713587
1.284457478005865
1.2766373411534702
1.2697947214076246
1.2639296187683284
1.2590420332355816
1.2551319648093842
1.2541544477028348
1.2561094819159335
1.2609970674486803
1.2658846529814272
1.2688172043010753
1.2697947214076246
1.270772238514174
1.2746823069403714
1.281524926686217
1.284457478005865
1.2864125122189638
1.2873900293255132
1.2873900293255132
1.2873900293255132
1.2883675464320623
1.2903225806451613
1.2913000977517106
1.29227761485826
1.29227761485826
1.29227761485826
1.29227761485826
1.29227761485826
1.2913000977517106
1.289345063538612
1.289345063538612
1.2991202346041055
1.327468230694037
1.370478983382209
1.4349951124144673
1.5356793743890518
1.6715542521994136
1.835777126099707
2.0175953079178885
2.2023460410557183
2.376344086021505
2.532746823069404
2.665689149560117
2.771260997067449
2.8484848484848486
2.89345063538612
2.917888563049853
2.9335288367546437
2.93841642228739
2.932551319648094
2.9159335288367547
2.89345063538612
2.865102639296188
2.831867057673509
2.793743890518084
2.7546432062561097
2.7116324535679373
2.6637341153470184
2.6158357771261
2.565982404692082
2.5083088954056696
2.443792766373412
2.3704789833822093
2.291300097751711
2.206256109481916
2.1163245356793743
2.0254154447702835
1.93841642228739
1.857282502443793
1.782991202346041
1.7223851417399805
1.672531769305963
1.6275659824046922
1.5865102639296187
1.5503421309872922
1.5190615835777126
1.490713587487781
1.4643206256109482
1.4408602150537635
1.4203323558162269
1.4027370478983383
1.3841642228739004
1.364613880742913
1.3479960899315735
1.3333333333333333
1.3157380254154447
1.2981427174975562
1.281524926686217
1.2649071358748778
1.249266862170088
1.2336265884652982
1.2160312805474096
1.1974584555229717
1.176930596285435
1.1564027370478984
1.141739980449658
1.130987292277615
1.1202346041055715
1.110459433040078
1.099706744868035
1.088954056695992
1.0772238514173995
1.0635386119257086
1.050830889540567
1.0381231671554252
1.024437927663734
1.0127077223851415
1.0019550342130987
0.9951124144672532
0.9902248289345064
0.9824046920821116
0.9745845552297164
0.9696969696969696
0.9667644183773216
0.9657869012707724
0.9648093841642228
0.9648093841642228
0.9648093841642228
0.9648093841642228
0.9648093841642228
0.9667644183773216
0.9706744868035192
0.9726295210166178
0.9736070381231672
0.9745845552297164
0.9745845552297164
0.9745845552297164
0.9745845552297164
0.9736070381231672
0.9716520039100685
0.9716520039100685
0.981427174975562
1.002932551319648
1.0439882697947214
1.1173020527859236
1.2287390029325511
1.375366568914956
1.5493646138807429
1.7419354838709675
1.9413489736070384
2.133919843597263
2.3088954056695994
2.458455522971652
2.581622678396872
2.679374389051808
2.744868035190616
2.788856304985337
2.825024437927664
2.850439882697948
2.866080156402737
2.8729227761485827
2.870967741935484
2.86217008797654
2.8484848484848486
2.8299120234604107
2.807429130009776
2.782013685239492
2.7536656891495603
2.721407624633431
2.6832844574780057
2.6392961876832843
2.589442815249267
2.533724340175953
2.4701857282502444
2.39980449657869
2.321603128054741
2.2355816226783967
2.144672531769306
2.0527859237536656
1.963831867057673
1.8885630498533723
1.822091886608016
1.7546432062561097
1.6930596285434996
1.6392961876832846
1.5943304007820136
1.5571847507331378
1.5268817204301075
1.5024437927663734
1.482893450635386
1.466275659824047
1.452590420332356
1.4428152492668622
1.435972629521017
1.4271749755620724
1.414467253176931
1.3998044965786902
1.3841642228739004
1.367546432062561
1.3509286412512218
1.3372434017595307
1.3255131964809383
1.3147605083088951
1.303030303030303
1.2913000977517106
1.284457478005865
1.278592375366569
1.2717497556207231
1.262952101661779
1.2531769305962854
1.2453567937438903
1.2394916911045943
1.2326490713587488
1.2238514173998043
1.2150537634408602
1.2082111436950147
1.2023460410557183
1.1994134897360704
1.1974584555229717
1.195503421309873
1.1945259042033236
1.195503421309873
1.198435972629521
1.2023460410557183
1.206256109481916
1.209188660801564
1.2101661779081134
1.2111436950146628
1.2111436950146628
1.2101661779081134
1.2121212121212122
1.2160312805474096
1.2189638318670577
1.2228739002932552
1.227761485826002
1.2346041055718475
1.241446725317693
1.249266862170088
1.2570869990224829
1.262952101661779
1.2688172043010753
1.2746823069403714
1.2795698924731185
1.2834799608993157
1.2864125122189638
1.295210166177908
1.3176930596285434
1.3636363636363635
1.4418377321603129
1.5562072336265884
1.7038123167155426
1.8778103616813293
2.069403714565005
2.264907135874878
2.4486803519061584
2.591397849462365
2.701857282502444
2.803519061583578
2.8885630498533725
2.95405669599218
3.0
3.0283479960899315
3.0410557184750733
3.0391006842619745
3.026392961876833
3.004887585532747
2.9745845552297165
2.9393939393939394
2.9042033235581624
2.866080156402737
2.823069403714565
2.777126099706745
2.7262952101661777
2.6695992179863146
2.606060606060606
2.535679374389052
2.4574780058651027
2.3734115347018574
2.2844574780058653
2.188660801564027
2.101661779081134
2.024437927663734
1.945259042033236
1.868035190615836
1.796676441837732
1.7341153470185728
1.6803519061583578
1.6363636363636365
1.6011730205278591
1.5708699902248289
1.544477028347996
1.521016617790811
1.5024437927663734
1.4868035190615836
1.4701857282502444
1.452590420332356
1.435972629521017
1.4173998044965788
1.3978494623655917
1.3782991202346042
1.356793743890518
1.335288367546432
1.3157380254154447
1.2981427174975562
1.2825024437927663
1.270772238514174
1.262952101661779
1.252199413489736
1.2394916911045943
1.2258064516129032
1.2111436950146628
1.1964809384164223
1.181818181818182
1.1681329423264908
1.1564027370478984
1.1456500488758554
1.1348973607038124
1.1270772238514175
1.121212121212121
1.1133919843597262
1.1036168132942326
1.093841642228739
1.0840664711632453
1.0772238514173995
1.0733137829912025
1.0713587487781036
1.0703812316715542
1.067448680351906
1.0635386119257086
1.0596285434995112
1.0557184750733135
1.053763440860215
1.0498533724340176
1.0449657869012707
1.043010752688172
1.0420332355816226
1.0410557184750733
1.0410557184750733
1.0410557184750733
1.0420332355816226
1.0439882697947214
1.0449657869012707
1.0478983382209188
1.0488758553274682
1.04594330400782
1.0439882697947214
1.050830889540567
1.072336265884653
1.1192570869990224
1.1994134897360704
1.313782991202346
1.4613880742913
1.6344086021505375
1.8201368523949168
2.003910068426197
2.156402737047898
2.2825024437927666
2.403714565004888
2.5102639296187683
2.5972629521016617
2.664711632453568
2.7145650048875853
2.7497556207233624
2.771260997067449
2.780058651026393
2.7810361681329425
2.7751710654936463
2.7614858260019552
2.740957966764418
2.719452590420332
2.697947214076246
2.675464320625611
2.6480938416422286
2.6148582600195502
2.578690127077224
2.539589442815249
2.495601173020528
2.4457478005865103
2.391006842619746
2.3362658846529816
2.280547409579668
2.2160312805474094
2.145650048875855
2.070381231671554
1.994134897360704
1.9188660801564028
1.8465298142717497
1.7790811339198436
1.7174975562072337
1.664711632453568
1.619745845552297
1.5826001955034212
1.555229716520039
1.533724340175953
1.5141739980449658
1.4975562072336266
1.482893450635386
1.4701857282502444
1.4594330400782014
1.4486803519061584
1.4389051808406648
1.4291300097751711
1.418377321603128
1.4086021505376345
1.4007820136852396
1.3949169110459434
1.3870967741935485
1.3782991202346042
1.367546432062561
1.35386119257087
1.3411534701857282
1.3304007820136852
1.3206256109481915
1.313782991202346
1.3079178885630498
1.3020527859237536
1.2961876832844574
1.2932551319648091
1.29227761485826
1.289345063538612
1.2854349951124144
1.2805474095796676
1.2776148582600195
1.2746823069403714
1.270772238514174
1.267839687194526
1.2658846529814272
1.2649071358748778
1.2649071358748778
1.2668621700879763
1.2717497556207231
1.2766373411534702
1.281524926686217
1.2864125122189638
1.2913000977517106
1.2961876832844574
1.3010752688172045
1.3049853372434017
1.3079178885630498
1.3118279569892473
1.3157380254154447
1.3176930596285434
1.3196480938416422
1.3206256109481915
1.3176930596285434
1.3118279569892473
1.3079178885630498
1.3098729227761483
1.324535679374389
1.3626588465298142
1.434017595307918
1.5395894428152492
1.6764418377321604
1.8387096774193548
1.989247311827957
2.132942326490713
2.2932551319648096
2.449657869012708
2.587487781036168
2.7008797653958942
2.787878787878788
2.8484848484848486
2.887585532746823
2.90811339198436
2.913000977517106
2.906158357771261
2.8885630498533725
2.8641251221896384
2.833822091886608
2.801564027370479
2.766373411534702
2.729227761485826
2.6911045943304006
2.6510263929618767
2.606060606060606
2.5542521994134897
2.4946236559139785
2.4281524926686218
2.35386119257087
2.281524926686217
2.210166177908113
2.1300097751710654
2.047898338220919
1.9667644183773216
1.8875855327468232
1.8113391984359728
1.7409579667644184
1.6793743890518085
1.6256109481915937
1.5806451612903225
1.543499511241447
1.512218963831867
1.4887585532746823
1.4721407624633431
1.456500488758553
1.4408602150537635
1.4242424242424243
1.4076246334310851
1.3919843597262953
1.375366568914956
1.3577712609970674
1.3411534701857282
1.3235581622678396
1.3069403714565004
1.295210166177908
1.2854349951124144
1.273704789833822
1.260019550342131
1.2453567937438903
1.23069403714565
1.2160312805474096
1.2013685239491692
1.1867057673509287
1.1730205278592376
1.1612903225806452
1.1495601173020529
1.1368523949169111
1.1290322580645162
1.1231671554252198
1.1143695014662756
1.104594330400782
1.0948191593352885
1.083088954056696
1.0713587487781036
1.0606060606060606
1.053763440860215
1.0576735092864125
1.0811339198435972
1.130987292277615
1.1974584555229717
1.2854349951124144
1.4086021505376345
1.5571847507331378
1.721407624633431
1.8875855327468232
2.0527859237536656
2.207233626588465
2.337243401759531
2.439882697947214
2.5161290322580645
2.56891495601173
2.6021505376344085
2.6158357771261
2.6177908113391983
2.6148582600195502
2.6070381231671558
2.595307917888563
2.581622678396872
2.5640273704789838
2.5405669599217986
1.3822091886608017
1.375366568914956
1.3626588465298142
1.3509286412512218
1.3401759530791788
1.3294232649071358
1.3186705767350928
1.3079178885630498
1.2971652003910068
1.2873900293255132
1.2766373411534702
1.2658846529814272
1.2561094819159335
1.2473118279569892
1.2375366568914956
1.224828934506354
1.209188660801564
1.1925708699902249
1.1759530791788857
1.160312805474096
1.144672531769306
1.1290322580645162
1.1143695014662756
1.1016617790811338
1.088954056695992
1.0801564027370478
1.0742913000977516
1.0664711632453567
1.0586510263929618
1.0518084066471165
1.043010752688172
1.0332355816226784
1.024437927663734
1.0146627565982405
1.0048875855327468
0.9951124144672532
0.9863147605083088
0.9804496578690128
0.9804496578690128
0.9824046920821116
0.9833822091886608
0.9843597262952102
0.9843597262952102
0.9833822091886608
0.9804496578690128
0.9765395894428152
0.9716520039100685
0.967741935483871
0.9657869012707724
0.9648093841642228
0.9667644183773216
0.9706744868035192
0.9726295210166178
0.9736070381231672
0.9745845552297164
0.9745845552297164
0.9745845552297164
0.9745845552297164
0.9745845552297164
0.975562072336266
0.9804496578690128
0.9863147605083088
0.9921798631476052
0.9990224828934506
1.0048875855327468
1.0068426197458455
1.0068426197458455
1.007820136852395
1.0175953079178883
1.0469208211143697
1.10752688172043
1.2082111436950147
1.3519061583577712
1.533724340175953
1.7438905180840665
1.9364613880742916
2.114369501466276
2.3059628543499517
2.490713587487781
2.654936461388074
2.789833822091887
2.895405669599218
2.9745845552297165
3.029325513196481
3.0635386119257086
3.0791788856304985
3.0791788856304985
3.0664711632453567
3.042033235581622
3.007820136852395
2.9657869012707723
2.9159335288367547
2.8582600195503423
2.792766373411535
2.721407624633431
2.6451612903225805
2.5640273704789838
2.4760508308895406
2.3841642228739004
2.291300097751711
2.2082111436950145
2.131964809384164
2.0527859237536656
1.9765395894428155
1.906158357771261
1.8455522971652003
1.793743890518084
1.750733137829912
1.715542521994135
1.6881720430107527
1.6695992179863148
1.6549364613880744
1.6422287390029326
1.632453567937439
1.6236559139784943
1.6129032258064515
1.598240469208211
1.5806451612903225
1.5620723362658846
1.5454545454545454
1.5288367546432062
1.5151515151515151
1.5024437927663734
1.4897360703812317
1.4760508308895406
1.4633431085043989
1.452590420332356
1.4389051808406648
1.4242424242424243
1.409579667644184
1.393939393939394
1.3782991202346042
1.3636363636363635
1.3519061583577712
1.3401759530791788
1.3294232649071358
1.3196480938416422
1.3128054740957966
1.3088954056695992
1.3088954056695992
1.3069403714565004
1.3049853372434017
1.303030303030303
1.2991202346041055
1.2961876832844574
1.2942326490713587
1.2932551319648091
1.2932551319648091
1.2932551319648091
1.2932551319648091
1.2942326490713587
1.2961876832844574
1.2971652003910068
1.2971652003910068
1.2971652003910068
1.2971652003910068
1.2971652003910068
1.2971652003910068
1.2971652003910068
1.2971652003910068
1.2971652003910068
1.2971652003910068
1.2971652003910068
1.2991202346041055
1.3010752688172045
1.3020527859237536
1.303030303030303
1.3040078201368523
1.310850439882698
1.3313782991202343
1.3734115347018572
1.4418377321603129
1.541544477028348
1.6705767350928642
1.822091886608016
1.962854349951124
2.0957966764418376
2.242424242424242
2.3851417399804498
2.5112414467253177
2.613880742913001
2.6930596285435
2.7438905180840663
2.76930596285435
2.776148582600196
2.763440860215054
2.735092864125122
2.697947214076246
2.652003910068426
2.5962854349951123
2.5317693059628543
2.458455522971652
2.3792766373411536
2.294232649071359
2.204301075268817
2.114369501466276
2.024437927663734
1.9364613880742916
1.8523949169110456
1.772238514173998
1.7067448680351909
1.6500488758553276
1.5933528836754642
1.543499511241447
1.5024437927663734
1.4721407624633431
1.4486803519061584
1.4320625610948192
1.4213098729227762
1.412512218963832
1.4056695992179864
1.3998044965786902
1.3958944281524928
1.391006842619746
1.3822091886608017
1.370478983382209
1.3577712609970674
1.346041055718475
1.335288367546432
1.324535679374389
1.313782991202346
1.3020527859237536
1.2864125122189638
1.2688172043010753
1.249266862170088
1.2326490713587488
1.2179863147605083
1.2023460410557183
1.187683284457478
1.173998044965787
1.160312805474096
1.1485826001955035
1.1358748778103618
1.1231671554252198
1.1114369501466277
1.1016617790811338
1.0918866080156402
1.0840664711632453
1.0791788856304985
1.0713587487781036
1.0606060606060606
1.0498533724340176
1.040078201368524
1.0312805474095796
1.0263929618768328
1.024437927663734
1.0234604105571847
1.0224828934506354
1.0224828934506354
1.0224828934506354
