ppg
2.8396871945259043
2.889540566959922
2.906158357771261
2.902248289345064
2.877810361681329
2.835777126099707
2.782013685239492
2.719452590420332
2.649071358748778
2.573802541544477
2.4975562072336266
2.419354838709677
2.340175953079179
2.260997067448681
2.190615835777126
2.124144672531769
2.0518084066471163
1.9765395894428155
1.903225806451613
1.83088954056696
1.7595307917888563
1.6911045943304008
1.6256109481915937
1.5610948191593352
1.498533724340176
1.4379276637341154
1.3890518084066472
1.348973607038123
1.3079178885630498
1.273704789833822
1.2482893450635386
1.2326490713587488
1.2287390029325511
1.2355816226783969
1.2502443792766371
1.2697947214076246
1.29227761485826
1.313782991202346
1.3333333333333333
1.3499511241446724
1.3626588465298142
1.370478983382209
1.3734115347018572
1.3724340175953078
1.3665689149560116
1.3577712609970674
1.346041055718475
1.3313782991202343
1.313782991202346
1.2942326490713587
1.2746823069403714
1.260019550342131
1.2473118279569892
1.2297165200391007
1.206256109481916
1.1788856304985338
1.1495601173020529
1.1241446725317692
1.1094819159335287
1.118279569892473
1.164222873900293
1.2580645161290325
1.4037145650048877
1.5620723362658846
1.737047898338221
1.9501466275659824
2.174975562072336
2.388074291300098
2.572825024437928
2.719452590420332
2.825024437927664
2.889540566959922
2.918866080156403
2.917888563049853
2.8944281524926687
2.8533724340175954
2.803519061583578
2.7468230694037143
2.6823069403714563
2.610948191593353
2.535679374389052
2.4574780058651027
2.377321603128055
2.297165200391007
2.218963831867057
2.1436950146627565
2.070381231671554
1.9990224828934504
1.9374389051808407
1.881720430107527
1.822091886608016
1.7605083088954057
1.6979472140762464
1.635386119257087
1.5747800586510263
1.5161290322580645
1.4604105571847508
1.409579667644184
1.3655913978494625
1.3304007820136852
1.3049853372434017
1.2913000977517106
1.289345063538612
1.295210166177908
1.3079178885630498
1.3304007820136852
1.3528836754643203
1.3685239491691104
1.383186705767351
1.3958944281524928
1.4056695992179864
1.4115347018572826
1.4134897360703813
1.4134897360703813
1.4105571847507332
1.4027370478983383
1.3919843597262953
1.3782991202346042
1.3607038123167154
1.3411534701857282
1.3206256109481915
1.2981427174975562
1.2746823069403714
1.2502443792766371
1.224828934506354
1.1974584555229717
1.173998044965787
1.152492668621701
1.1300097751710656
1.121212121212121
1.1397849462365592
1.198435972629521
1.3049853372434017
1.4604105571847508
1.6578690127077225
1.8826979472140764
2.114369501466276
2.332355816226784
2.501466275659824
2.627565982404692
2.7331378299120237
2.807429130009776
2.849462365591398
2.860215053763441
2.84652981427175
2.812316715542522
2.763440860215054
2.702834799608993
2.634408602150537
2.5610948191593352
2.4858260019550342
2.41544477028348
2.3489736070381237
2.2766373411534704
2.201368523949169
2.1270772238514173
2.0547409579667644
1.9833822091886608
1.9149560117302051
1.8484848484848484
1.7839687194525904
1.718475073313783
1.6529814271749756
1.5972629521016617
1.547409579667644
1.4916911045943304
1.435972629521017
1.3841642228739004
1.3372434017595307
1.2991202346041055
1.2717497556207231
1.2561094819159335
1.2531769305962854
1.2590420332355816
1.2717497556207231
1.289345063538612
1.3079178885630498
1.3264907135874875
1.3450635386119256
1.359726295210166
1.3695014662756595
1.3743890518084063
1.3743890518084063
1.370478983382209
1.3636363636363635
1.3528836754643203
1.3391984359726294
1.3225806451612905
1.3079178885630498
1.295210166177908
1.278592375366569
1.2609970674486803
1.2424242424242424
1.2218963831867058
1.198435972629521
1.1720430107526882
1.142717497556207
1.1124144672531768
1.0869990224828934
1.0762463343108504
1.093841642228739
1.1358748778103618
1.2111436950146628
1.33822091886608
1.5073313782991202
1.7086999022482894
1.9315738025415443
2.155425219941349
2.360703812316716
2.530791788856305
2.6608015640273703
2.7497556207233624
2.798631476050831
2.814271749755621
2.803519061583578
2.773216031280548
2.729227761485826
2.674486803519061
2.611925708699902
2.544477028347996
2.472140762463343
2.396871945259042
2.3196480938416424
2.239491691104594
2.158357771260997
2.0772238514174
2.006842619745845
1.9423264907135875
1.873900293255132
1.8035190615835777
1.7341153470185728
1.6666666666666667
1.5992179863147604
1.517106549364614
1.4437927663734116
1.392961876832845
1.3411534701857282
1.2903225806451613
1.2512218963831867
1.2209188660801564
1.1935483870967742
1.173998044965787
1.164222873900293
1.164222873900293
1.173998044965787
1.1906158357771262
1.2111436950146628
1.2316715542521994
1.2502443792766371
1.2658846529814272
1.2776148582600195
1.2864125122189638
1.2932551319648091
1.2961876832844574
1.2971652003910068
1.2942326490713587
1.2873900293255132
1.2746823069403714
1.2561094819159335
1.2336265884652982
1.209188660801564
1.1837732160312806
1.1583577712609971
1.1378299120234605
1.121212121212121
1.1006842619745845
1.075268817204301
1.0469208211143697
1.021505376344086
1.007820136852395
1.018572825024438
1.0694037145650048
1.1691104594330402
1.3186705767350928
1.512218963831867
1.7018572825024438
1.8885630498533723
2.139784946236559
2.3626588465298144
2.505376344086021
2.6265884652981426
2.716520039100684
2.7722385141739982
2.795698924731183
2.791788856304985
2.764418377321604
2.719452590420332
2.66177908113392
2.601173020527859
2.539589442815249
2.4701857282502444
2.3958944281524928
2.302052785923754
2.1974584555229715
2.10752688172043
2.0439882697947214
1.975562072336266
1.905180840664712
1.8523949169110456
1.7927663734115349
1.7223851417399805
1.664711632453568
1.619745845552297
1.5493646138807429
1.4682306940371457
1.4134897360703813
1.3607038123167154
1.300097751710655
1.2541544477028348
1.2209188660801564
1.2003910068426198
1.1915933528836755
1.1945259042033236
1.2052785923753666
1.2209188660801564
1.2394916911045943
1.260019550342131
1.281524926686217
1.3020527859237536
1.3176930596285434
1.327468230694037
1.332355816226784
1.3333333333333333
1.3294232649071358
1.3255131964809383
1.3196480938416422
1.3098729227761483
1.2971652003910068
1.281524926686217
1.2619745845552297
1.2424242424242424
1.2228739002932552
1.2043010752688172
1.1837732160312806
1.1593352883675463
1.1319648093841643
1.104594330400782
1.0850439882697946
1.078201368523949
1.0879765395894427
1.1300097751710656
1.2189638318670577
1.3587487781036167
1.5454545454545454
1.7673509286412512
2.007820136852395
2.24633431085044
2.463343108504399
2.643206256109482
2.7673509286412514
2.8475073313782997
2.902248289345064
2.9257086999022484
2.921798631476051
2.8963831867057674
2.8533724340175954
2.7976539589442817
2.732160312805474
2.659824046920821
2.5835777126099706
2.504398826979472
2.4242424242424243
2.35386119257087
2.2873900293255134
2.2160312805474094
2.142717497556207
2.069403714565005
1.9980449657869013
1.927663734115347
1.8592375366568916
1.7927663734115349
1.7282502443792769
1.664711632453568
1.6021505376344083
1.5503421309872922
1.5063538611925709
1.4604105571847508
1.4134897360703813
1.3714565004887584
1.33822091886608
1.3157380254154447
1.3049853372434017
1.3049853372434017
1.3157380254154447
1.3333333333333333
1.3548387096774193
1.3763440860215057
1.3958944281524928
1.412512218963832
1.4242424242424243
1.43108504398827
1.434017595307918
1.43108504398827
1.4242424242424243
1.414467253176931
1.4007820136852396
1.383186705767351
1.3616813294232648
1.3401759530791788
1.3225806451612905
1.3069403714565004
1.2883675464320623
1.267839687194526
1.24633431085044
1.2228739002932552
1.1974584555229717
1.1691104594330402
1.13880742913001
1.1143695014662756
1.1055718475073313
1.1270772238514175
1.1925708699902249
1.2854349951124144
1.412512218963832
1.595307917888563
1.81524926686217
2.0518084066471163
2.2825024437927666
2.4887585532746823
2.6578690127077222
2.78494623655914
2.8699902248289346
2.916911045943304
2.930596285434995
2.919843597262952
2.8914956011730206
2.8475073313782997
2.790811339198436
2.7253176930596283
2.654936461388074
2.5806451612903225
2.5024437927663734
2.421309872922776
2.3391984359726297
2.2580645161290325
2.177908113391984
2.099706744868035
2.03128054740958
1.9687194525904204
1.902248289345064
1.833822091886608
1.7673509286412512
1.7018572825024438
1.635386119257087
1.5679374389051808
1.5024437927663734
1.4408602150537635
1.3851417399804498
1.3372434017595307
1.303030303030303
1.2795698924731185
1.262952101661779
1.2561094819159335
1.260019550342131
1.2717497556207231
1.289345063538612
1.3088954056695992
1.3264907135874875
1.3421309872922775
1.359726295210166
1.3773216031280548
1.3890518084066472
1.396871945259042
1.3998044965786902
1.3958944281524928
1.3861192570869991
1.3724340175953078
1.3548387096774193
1.3343108504398826
1.3128054740957966
1.2913000977517106
1.2688172043010753
1.2473118279569892
1.2258064516129032
1.209188660801564
1.1906158357771262
1.163245356793744
1.1319648093841643
1.1036168132942326
1.086021505376344
1.0918866080156402
1.133919843597263
1.224828934506354
1.3665689149560116
1.555229716520039
1.7790811339198436
1.9872922776148585
2.1808406647116323
2.3851417399804498
2.572825024437928
2.727272727272727
2.841642228739003
2.9149560117302054
2.951124144672532
2.9550342130987293
2.9315738025415445
2.8885630498533725
2.831867057673509
2.764418377321604
2.697947214076246
2.63049853372434
2.555229716520039
2.4750733137829912
2.3919843597262958
2.3088954056695994
2.2267839687194524
2.146627565982405
2.0684261974584555
1.9931573802541545
1.9188660801564028
1.847507331378299
1.7849462365591398
1.726295210166178
1.6627565982404693
1.598240469208211
1.5366568914956011
1.478005865102639
1.423264907135875
1.3724340175953078
1.327468230694037
1.2903225806451613
1.2649071358748778
1.2502443792766371
1.2453567937438903
1.2502443792766371
1.2619745845552297
1.278592375366569
1.2981427174975562
1.3186705767350928
1.3362658846529814
1.3499511241446724
1.359726295210166
1.364613880742913
1.364613880742913
1.3607038123167154
1.35386119257087
1.3479960899315735
1.3411534701857282
1.327468230694037
1.3098729227761483
1.289345063538612
1.267839687194526
1.2443792766373412
1.219941348973607
1.1945259042033236
1.1652003910068427
1.1319648093841643
1.0977517106549364
1.0664711632453567
1.0478983382209188
1.050830889540567
1.0850439882697946
1.1671554252199414
1.303030303030303
1.490713587487781
1.715542521994135
1.9589442815249267
2.2023460410557183
2.4271749755620724
2.6177908113391983
2.7653958944281527
2.8611925708699903
2.9159335288367547
2.9472140762463344
2.952101661779081
2.932551319648094
2.89345063538612
2.841642228739003
2.780058651026393
2.710654936461388
2.6373411534701856
2.560117302052786
2.4809384164222874
2.4027370478983383
2.332355816226784
2.264907135874878
2.1915933528836757
2.1163245356793743
2.0410557184750733
1.967741935483871
1.895405669599218
1.823069403714565
1.7517106549364614
1.683284457478006
1.616813294232649
1.5513196480938416
1.4975562072336266
1.4506353861192571
1.401759530791789
1.356793743890518
1.3196480938416422
1.2913000977517106
1.2756598240469208
1.2727272727272727
1.2805474095796676
1.2971652003910068
1.3196480938416422
1.3440860215053765
1.3665689149560116
1.3861192570869991
1.4027370478983383
1.414467253176931
1.4213098729227762
1.4242424242424243
1.4213098729227762
1.414467253176931
1.4037145650048877
1.388074291300098
1.3714565004887584
1.3528836754643203
1.3313782991202343
1.3147605083088951
1.2991202346041055
1.2805474095796676
1.260019550342131
1.2375366568914956
1.2111436950146628
1.1808406647116323
1.152492668621701
1.133919843597263
1.13880742913001
1.1837732160312806
1.278592375366569
1.4271749755620724
1.590420332355816
1.7702834799608993
1.992179863147605
2.2297165200391005
2.4545454545454546
2.649071358748778
2.8044965786901277
2.9159335288367547
2.98435972629521
3.013685239491691
3.0127077223851417
2.9872922776148583
2.9472140762463344
2.8944281524926687
2.8299120234604107
2.7565982404692084
2.678396871945259
2.5972629521016617
2.5161290322580645
2.4349951124144678
2.35386119257087
2.274682306940372
2.1974584555229715
2.1221896383186705
2.047898338220919
1.9843597262952104
1.9266862170087975
1.8631476050830889
1.7996089931573802
1.7360703812316716
1.6735092864125125
1.611925708699902
1.5513196480938416
1.4936461388074291
1.439882697947214
1.392961876832845
1.3558162267839686
1.3313782991202343
1.3186705767350928
1.3118279569892473
1.313782991202346
1.3255131964809383
1.3440860215053765
1.3655913978494625
1.3861192570869991
1.4056695992179864
1.4213098729227762
1.43108504398827
1.434017595307918
1.4301075268817205
1.4252199413489737
1.418377321603128
1.4056695992179864
1.3890518084066472
1.370478983382209
1.3499511241446724
1.3284457478005864
1.305962854349951
1.2834799608993157
1.2609970674486803
1.2375366568914956
1.2130987292277615
1.1925708699902249
1.1700879765395895
1.141739980449658
1.1163245356793745
1.104594330400782
1.1202346041055715
1.1749755620723363
1.2795698924731185
1.435972629521017
1.635386119257087
1.8621700879765395
2.0977517106549364
2.320625610948192
2.4946236559139785
2.625610948191593
2.735092864125122
2.812316715542522
2.8563049853372435
2.868035190615836
2.854349951124145
2.820136852394917
2.7702834799608995
2.7067448680351904
2.635386119257087
2.5591397849462365
2.486803519061584
2.41544477028348
2.337243401759531
2.2580645161290325
2.16911045943304
2.0762463343108504
1.9931573802541545
1.9149560117302051
1.8377321603128052
1.7624633431085044
1.6901270772238517
1.6187683284457477
1.560117302052786
1.509286412512219
1.455522971652004
1.4007820136852396
1.348973607038123
1.300097751710655
1.2570869990224829
1.2218963831867058
1.1964809384164223
1.1827956989247312
1.1779081133919844
1.1827956989247312
1.1945259042033236
1.2101661779081134
1.227761485826002
1.24633431085044
1.262952101661779
1.2776148582600195
1.2903225806451613
1.2981427174975562
1.3010752688172045
1.300097751710655
1.2932551319648091
1.2825024437927663
1.267839687194526
1.2541544477028348
1.2404692082111437
1.2238514173998043
1.206256109481916
1.1857282502443791
1.163245356793744
1.13880742913001
1.1133919843597262
1.086021505376344
1.0547409579667644
1.021505376344086
0.997067448680352
0.9912023460410556
1.0068426197458455
1.053763440860215
1.147605083088954
1.2903225806451613
1.4760508308895406
1.6901270772238517
1.9130009775171064
2.1280547409579667
2.318670576735093
2.472140762463343
2.5855327468230693
2.6578690127077222
2.6911045943304006
2.6959921798631474
2.6803519061583576
2.64613880742913
2.598240469208211
2.539589442815249
2.474095796676442
2.4027370478983383
2.329423264907136
2.2551319648093844
2.1818181818181817
2.10850439882698
2.035190615835777
1.970674486803519
1.9100684261974583
1.8435972629521016
1.775171065493646
1.7067448680351909
1.640273704789834
1.5757575757575757
1.5112414467253177
1.4496578690127078
1.3890518084066472
1.3304007820136852
1.2766373411534702
1.2336265884652982
1.1994134897360704
1.1652003910068427
1.1358748778103618
1.115347018572825
1.1065493646138806
1.1085043988269794
1.1202346041055715
1.1397849462365592
1.1622678396871946
1.1837732160312806
1.2023460410557183
1.217008797653959
1.2287390029325511
1.2375366568914956
1.241446725317693
1.2394916911045943
1.23069403714565
1.217008797653959
1.2003910068426198
1.181818181818182
1.1593352883675463
1.1358748778103618
1.1124144672531768
1.0899315738025417
1.0733137829912025
1.0586510263929618
1.040078201368524
1.0166177908113392
0.989247311827957
0.9608993157380256
0.9423264907135877
0.9433040078201368
0.9765395894428152
1.0547409579667644
1.181818181818182
1.3528836754643203
1.5581622678396871
1.7526881720430108
1.935483870967742
2.1280547409579667
2.304007820136853
2.4486803519061584
2.5562072336265884
2.625610948191593
2.6608015640273703
2.665689149560117
2.6451612903225805
2.6070381231671558
2.5562072336265884
2.5024437927663734
2.44672531769306
2.3841642228739004
2.315738025415445
2.244379276637341
2.1730205278592374
2.1006842619745845
2.027370478983382
1.9550342130987293
1.8856304985337244
1.8172043010752688
1.750733137829912
1.686217008797654
1.6304985337243405
1.5796676441837731
1.5249266862170088
1.469208211143695
1.414467253176931
1.3616813294232648
1.313782991202346
1.2697947214076246
1.2326490713587488
1.2043010752688172
1.1867057673509287
1.1788856304985338
1.1808406647116323
1.1906158357771262
1.2052785923753666
1.224828934506354
1.24633431085044
1.2688172043010753
1.289345063538612
1.3049853372434017
1.3157380254154447
1.321603128054741
1.321603128054741
1.3176930596285434
1.3098729227761483
1.3020527859237536
1.2932551319648091
1.278592375366569
1.260019550342131
1.2404692082111437
1.219941348973607
1.2003910068426198
1.1808406647116323
1.1612903225806452
1.13880742913001
1.1124144672531768
1.0840664711632453
1.0625610948191593
1.0498533724340176
1.0498533724340176
1.0801564027370478
1.152492668621701
1.273704789833822
1.4418377321603129
1.64613880742913
1.870967741935484
2.0948191593352883
2.300097751710655
2.4731182795698925
2.6070381231671558
2.6930596285435
2.740957966764418
2.764418377321604
2.763440860215054
2.7419354838709675
2.7038123167155423
2.653958944281525
2.595307917888563
2.529814271749756
2.4594330400782014
2.386119257086999
2.3118279569892475
2.244379276637341
2.1818181818181817
2.1163245356793743
2.0498533724340176
1.9833822091886608
1.916911045943304
1.8514173998044965
1.7859237536656891
1.7223851417399805
1.6588465298142718
1.5962854349951123
1.5356793743890518
1.479960899315738
1.4349951124144673
1.3958944281524928
1.3548387096774193
1.3176930596285434
1.2864125122189638
1.2658846529814272
1.2551319648093842
1.2541544477028348
1.262952101661779
1.2805474095796676
1.3010752688172045
1.321603128054741
1.3401759530791788
1.3558162267839686
1.367546432062561
1.3734115347018572
1.3734115347018572
1.3685239491691104
1.3607038123167154
1.348973607038123
1.335288367546432
1.3206256109481915
1.3049853372434017
1.2864125122189638
1.270772238514174
1.2561094819159335
1.238514173998045
1.2189638318670577
1.1994134897360704
1.176930596285435
1.1515151515151516
1.1221896383186705
1.093841642228739
1.0733137829912025
1.0713587487781036
1.1241446725317692
1.2336265884652982
1.3519061583577712
1.4946236559139785
1.6881720430107527
1.913978494623656
2.1515151515151514
2.3792766373411536
2.579667644183773
2.740957966764418
2.8582600195503423
2.932551319648094
2.967741935483871
2.970674486803519
2.951124144672532
2.913978494623656
2.86217008797654
2.7996089931573804
2.729227761485826
2.653958944281525
2.576735092864125
2.498533724340176
2.419354838709677
2.3411534701857284
2.264907135874878
2.189638318670577
2.112414467253177
2.0449657869012707
1.9843597262952104
1.919843597262952
1.8533724340175952
1.7859237536656891
1.7194525904203324
1.653958944281525
1.590420332355816
1.5298142717497556
1.474095796676442
1.4242424242424243
1.3822091886608017
1.3548387096774193
1.3391984359726294
1.3304007820136852
1.3294232649071358
1.3372434017595307
1.3519061583577712
1.3714565004887584
1.3919843597262953
1.4105571847507332
1.4252199413489737
1.4379276637341154
1.4467253176930597
1.4516129032258065
1.4535679374389052
1.4535679374389052
1.4486803519061584
1.439882697947214
1.4271749755620724
1.4105571847507332
1.391006842619746
1.3685239491691104
1.346041055718475
1.3235581622678396
1.3010752688172045
1.2766373411534702
1.2570869990224829
1.2365591397849462
1.2072336265884651
1.1759530791788857
1.1515151515151516
1.1466275659824048
1.1759530791788857
1.2512218963831867
1.3782991202346042
1.555229716520039
1.772238514173998
2.010752688172043
2.249266862170088
2.444770283479961
2.6021505376344085
2.745845552297165
2.857282502443793
2.932551319648094
2.9716520039100685
2.979472140762464
2.960899315738025
2.9227761485826003
2.870967741935484
2.809384164222874
2.739980449657869
2.6725317693059627
2.6050830889540566
2.530791788856305
2.453567937438905
2.375366568914956
2.2961876832844577
2.217986314760508
2.142717497556207
2.069403714565005
1.9960899315738023
1.9237536656891496
1.8533724340175952
1.7839687194525904
1.7253176930596286
1.672531769305963
1.6138807429130009
1.5562072336265884
1.501466275659824
1.4516129032258065
1.409579667644184
1.3773216031280548
1.3548387096774193
1.3450635386119256
1.346041055718475
1.3558162267839686
1.3724340175953078
1.391006842619746
1.4115347018572826
1.4301075268817205
1.444770283479961
1.456500488758553
1.4633431085043989
1.4652981427174976
1.4623655913978495
1.4545454545454546
1.4428152492668622
1.4281524926686218
1.4134897360703813
1.4007820136852396
1.388074291300098
1.3695014662756595
1.348973607038123
1.3284457478005864
1.3088954056695992
1.2883675464320623
1.2649071358748778
1.2375366568914956
1.2072336265884651
1.1827956989247312
1.1720430107526882
1.181818181818182
1.2218963831867058
1.3069403714565004
1.4457478005865103
1.6334310850439884
1.8592375366568916
2.1055718475073317
2.3519061583577714
2.575757575757576
2.7653958944281527
2.913000977517106
3.01564027370479
3.0762463343108504
3.0987292277614857
3.0928641251221896
3.0664711632453567
3.0234604105571847
2.9696969696969697
2.9071358748778104
2.8377321603128056
2.764418377321604
2.687194525904203
2.606060606060606
2.5249266862170088
2.444770283479961
2.3734115347018574
2.3069403714565007
2.236559139784946
2.1652003910068425
2.0948191593352883
2.0254154447702835
1.9579667644183771
1.8914956011730208
1.8269794721407624
1.7634408602150538
1.7018572825024438
1.643206256109482
1.5894428152492668
1.5483870967741935
1.517106549364614
1.4897360703812317
1.4711632453567938
1.4623655913978495
1.4652981427174976
1.478005865102639
1.4965786901270772
1.5190615835777126
1.5405669599217986
1.5581622678396871
1.5718475073313782
1.581622678396872
1.585532746823069
1.5835777126099706
1.5777126099706744
1.56891495601173
1.5581622678396871
1.544477028347996
1.5278592375366569
1.5102639296187683
1.490713587487781
1.4701857282502444
1.4506353861192571
1.436950146627566
1.423264907135875
1.404692082111437
1.3812316715542523
1.3528836754643203
1.3206256109481915
1.2913000977517106
1.273704789833822
1.2805474095796676
1.3284457478005864
1.4291300097751711
1.5835777126099706
1.7859237536656891
1.986314760508309
2.1867057673509285
2.4115347018572826
2.6295210166177907
2.819159335288368
2.9687194525904204
3.074291300097752
3.1388074291300097
3.1652003910068425
3.164222873900293
3.139784946236559
3.096774193548387
3.0449657869012707
2.986314760508309
2.916911045943304
2.8406647116324537
2.7595307917888565
2.675464320625611
2.590420332355816
2.50733137829912
2.426197458455523
2.347018572825025
2.269794721407625
2.1955034213098727
2.12316715542522
2.059628543499511
2.0009775171065494
1.9364613880742916
1.870967741935484
1.8054740957966764
1.7429130009775171
1.6842619745845553
1.6275659824046922
1.576735092864125
1.533724340175953
1.499511241446725
1.478983382209189
1.4701857282502444
1.4721407624633431
1.482893450635386
1.501466275659824
1.5239491691104594
1.509286412512219
1.4750733137829912
1.4633431085043989
1.4594330400782014
1.456500488758553
1.4516129032258065
1.4418377321603129
1.4301075268817205
1.4213098729227762
1.4105571847507332
1.3958944281524928
1.3792766373411536
1.3587487781036167
1.335288367546432
1.310850439882698
1.2873900293255132
1.2639296187683284
1.2404692082111437
1.2140762463343109
1.18475073313783
1.1593352883675463
1.1368523949169111
1.115347018572825
