ppg
1.2287390029325511
1.1700879765395895
1.1319648093841643
1.110459433040078
1.099706744868035
1.099706744868035
1.110459433040078
1.1290322580645162
1.1534701857282503
1.1808406647116323
1.209188660801564
1.2355816226783969
1.2590420332355816
1.2776148582600195
1.2913000977517106
1.300097751710655
1.3020527859237536
1.2971652003910068
1.2864125122189638
1.2697947214076246
1.249266862170088
1.2238514173998043
1.195503421309873
1.164222873900293
1.130987292277615
1.0977517106549364
1.064516129032258
1.0381231671554252
1.0146627565982405
0.9853372434017597
0.95405669599218
0.9257086999022482
0.9042033235581622
0.8983382209188661
0.9178885630498532
0.9726295210166178
1.0684261974584557
1.2101661779081134
1.392961876832845
1.5747800586510263
1.7605083088954057
1.975562072336266
2.1945259042033234
2.3978494623655915
2.5718475073313782
2.708699902248289
2.807429130009776
2.8670576735092865
2.8944281524926687
2.89247311827957
2.863147605083089
2.811339198435973
2.7497556207233624
2.679374389051808
2.592375366568915
2.49266862170088
2.383186705767351
2.264907135874878
2.139784946236559
2.010752688172043
1.8807429130009776
1.7517106549364614
1.6275659824046922
1.512218963831867
1.4203323558162269
1.346041055718475
1.2756598240469208
1.2179863147605083
1.1749755620723363
1.147605083088954
1.1358748778103618
1.13880742913001
1.152492668621701
1.1759530791788857
1.2052785923753666
1.2375366568914956
1.270772238514174
1.3010752688172045
1.3284457478005864
1.35386119257087
1.3743890518084063
1.3890518084066472
1.396871945259042
1.3978494623655917
1.392961876832845
1.3822091886608017
1.3655913978494625
1.3450635386119256
1.321603128054741
1.3010752688172045
1.2825024437927663
1.2590420332355816
1.2336265884652982
1.2072336265884651
1.181818181818182
1.1564027370478984
1.1329423264907137
1.115347018572825
1.1085043988269794
1.1202346041055715
1.1593352883675463
1.2336265884652982
1.3264907135874875
1.4437927663734116
1.607038123167155
1.804496578690127
2.0205278592375366
2.239491691104594
2.44672531769306
2.63049853372434
2.782013685239492
2.897360703812317
2.975562072336266
3.0175953079178885
3.027370478983382
3.0117302052785924
2.9765395894428157
2.9237536656891496
2.854349951124145
2.7722385141739982
2.677419354838709
2.572825024437928
2.4613880742913
2.343108504398827
2.220918866080156
2.0957966764418376
1.9716520039100685
1.865102639296188
1.7702834799608993
1.672531769305963
1.5806451612903225
1.499511241446725
1.4320625610948192
1.380254154447703
1.3440860215053765
1.3235581622678396
1.316715542521994
1.3225806451612905
1.33822091886608
1.3577712609970674
1.380254154447703
1.4066471163245358
1.4330400782013686
1.458455522971652
1.4809384164222874
1.498533724340176
1.5112414467253177
1.517106549364614
1.517106549364614
1.5112414467253177
1.499511241446725
1.482893450635386
1.466275659824047
1.4486803519061584
1.4252199413489737
1.3978494623655917
1.3685239491691104
1.33822091886608
1.3079178885630498
1.2776148582600195
1.24633431085044
1.2160312805474096
1.1886608015640274
1.1700879765395895
1.164222873900293
1.1779081133919844
1.2179863147605083
1.2932551319648091
1.4105571847507332
1.5669599217986314
1.7565982404692082
1.967741935483871
2.1847507331378297
2.393939393939394
2.582600195503421
2.7419354838709675
2.866080156402737
2.945259042033236
2.989247311827957
3.0117302052785924
3.0097751710654936
2.98435972629521
2.9393939393939394
2.87683284457478
2.80058651026393
2.7116324535679373
2.6129032258064515
2.506353861192571
2.3929618768328447
2.2883675464320627
2.1867057673509285
2.072336265884653
1.9521016617790807
1.8318670576735088
1.715542521994135
1.607038123167155
1.5102639296187683
1.4271749755620724
1.359726295210166
1.3079178885630498
1.2717497556207231
1.2512218963831867
1.2453567937438903
1.2502443792766371
1.262952101661779
1.2825024437927663
1.3069403714565004
1.3343108504398826
1.3616813294232648
1.388074291300098
1.4105571847507332
1.4281524926686218
1.4408602150537635
1.447702834799609
1.4516129032258065
1.4506353861192571
1.4379276637341154
1.4222873900293256
1.4086021505376345
1.3890518084066472
1.364613880742913
1.3362658846529814
1.3069403714565004
1.2766373411534702
1.24633431085044
1.2160312805474096
1.1906158357771262
1.1691104594330402
1.144672531769306
1.1251221896383188
1.118279569892473
1.133919843597263
1.1808406647116323
1.2668621700879763
1.393939393939394
1.560117302052786
1.7556207233626588
1.9696969696969695
2.1867057673509285
2.3685239491691106
2.5190615835777126
2.6637341153470184
2.78494623655914
2.875855327468231
2.9315738025415445
2.9550342130987293
2.9501466275659824
2.919843597262952
2.868035190615836
2.7996089931573804
2.717497556207233
2.634408602150537
2.548387096774193
2.447702834799609
2.3362658846529816
2.217986314760508
2.0948191593352883
1.9687194525904204
1.842619745845552
1.7204301075268815
1.5835777126099706
1.4682306940371457
1.3919843597262953
1.3235581622678396
1.273704789833822
1.2394916911045943
1.2130987292277615
1.198435972629521
1.195503421309873
1.203323558162268
1.2209188660801564
1.2453567937438903
1.273704789833822
1.3040078201368523
1.3343108504398826
1.3655913978494625
1.3949169110459434
1.4134897360703813
1.4242424242424243
1.43108504398827
1.4330400782013686
1.4291300097751711
1.4203323558162269
1.4007820136852396
1.380254154447703
1.3636363636363635
1.3411534701857282
1.3088954056695992
1.278592375366569
1.2619745845552297
1.2375366568914956
1.203323558162268
1.1720430107526882
1.144672531769306
1.126099706744868
1.1231671554252198
1.144672531769306
1.1994134897360704
1.2541544477028348
1.3685239491691104
1.5395894428152492
1.7086999022482894
1.8504398826979471
2.0127077223851417
2.231671554252199
2.388074291300098
2.530791788856305
2.6823069403714563
2.7810361681329425
2.8377321603128056
2.857282502443793
2.844574780058651
2.806451612903226
2.7546432062561097
2.69208211143695
2.611925708699902
2.5190615835777126
2.4144672531769307
2.3010752688172045
2.179863147605083
2.053763440860215
1.9237536656891496
1.7927663734115349
1.6637341153470186
1.541544477028348
1.4408602150537635
1.356793743890518
1.2746823069403714
1.203323558162268
1.1456500488758554
1.1055718475073313
1.0821114369501466
1.075268817204301
1.0811339198435972
1.0987292277614855
1.126099706744868
1.1583577712609971
1.1935483870967742
1.2267839687194526
1.2580645161290325
1.2883675464320623
1.3157380254154447
1.3372434017595307
1.3528836754643203
1.3616813294232648
1.3636363636363635
1.3587487781036167
1.3479960899315735
1.3313782991202343
1.310850439882698
1.2913000977517106
1.2727272727272727
1.2482893450635386
1.219941348973607
1.1906158357771262
1.160312805474096
1.1300097751710656
1.0977517106549364
1.067448680351906
1.0420332355816226
1.0263929618768328
1.029325513196481
1.0606060606060606
1.1124144672531768
1.1925708699902249
1.3176930596285434
1.482893450635386
1.6793743890518085
1.8934506353861196
2.110459433040078
2.315738025415445
2.4975562072336266
2.6471163245356792
2.7595307917888565
2.834799608993157
2.8719452590420333
2.878787878787879
2.863147605083089
2.825024437927664
2.7673509286412514
2.69208211143695
2.6021505376344085
2.5004887585532747
2.389051808406647
2.269794721407625
2.1436950146627565
2.0127077223851417
1.8797653958944285
1.7644183773216031
1.6598240469208212
1.5493646138807429
1.4418377321603129
1.3440860215053765
1.260019550342131
1.1915933528836755
1.141739980449658
1.1094819159335287
1.0948191593352885
1.0948191593352885
1.10752688172043
1.1280547409579669
1.1534701857282503
1.1857282502443791
1.2209188660801564
1.2570869990224829
1.2913000977517106
1.3225806451612905
1.3479960899315735
1.3685239491691104
1.3822091886608017
1.3890518084066472
1.3890518084066472
1.3822091886608017
1.3734115347018572
1.3626588465298142
1.3450635386119256
1.3225806451612905
1.2971652003910068
1.2688172043010753
1.2394916911045943
1.209188660801564
1.1779081133919844
1.1466275659824048
1.115347018572825
1.0869990224828934
1.067448680351906
1.0596285434995112
1.0654936461388074
1.0977517106549364
1.164222873900293
1.270772238514174
1.4193548387096775
1.603128054740958
1.8113391984359728
2.0303030303030303
2.244379276637341
2.4408602150537635
2.590420332355816
2.701857282502444
2.795698924731183
2.86217008797654
2.897360703812317
2.902248289345064
2.8807429130009776
2.835777126099707
2.771260997067449
2.6901270772238512
2.5962854349951123
2.4916911045943304
2.377321603128055
2.269794721407625
2.164222873900293
2.0439882697947214
1.9159335288367547
1.7859237536656891
1.6578690127077225
1.5366568914956011
1.426197458455523
1.3284457478005864
1.2473118279569892
1.1837732160312806
1.13880742913001
1.1143695014662756
1.1055718475073313
1.1085043988269794
1.1231671554252198
1.147605083088954
1.1798631476050832
1.2160312805474096
1.2541544477028348
1.29227761485826
1.327468230694037
1.3577712609970674
1.3822091886608017
1.3988269794721409
1.409579667644184
1.41544477028348
1.414467253176931
1.4076246334310851
1.393939393939394
1.3743890518084063
1.3509286412512218
1.324535679374389
1.2961876832844574
1.2658846529814272
1.2355816226783969
1.2043010752688172
1.1788856304985338
1.1564027370478984
1.1300097751710656
1.1026392961876832
1.0811339198435972
1.072336265884653
1.086021505376344
1.1319648093841643
1.217008797653959
1.3450635386119256
1.512218963831867
1.7096774193548387
1.9257086999022484
2.117302052785924
2.2873900293255134
2.462365591397849
2.619745845552297
2.747800586510264
2.8406647116324537
2.898338220918866
2.921798631476051
2.9159335288367547
2.884652981427175
2.83088954056696
2.760508308895406
2.6852394916911044
2.603128054740958
2.506353861192571
2.396871945259042
2.2795698924731185
2.1544477028347995
2.0254154447702835
1.895405669599218
1.7663734115347018
1.6422287390029326
1.525904203323558
1.4203323558162269
1.3294232649071358
1.2619745845552297
1.2130987292277615
1.1730205278592376
1.1466275659824048
1.133919843597263
1.1348973607038124
1.147605083088954
1.1700879765395895
1.1994134897360704
1.2336265884652982
1.267839687194526
1.3010752688172045
1.3304007820136852
1.3548387096774193
1.3763440860215057
1.3919843597262953
1.401759530791789
1.4056695992179864
1.4027370478983383
1.393939393939394
1.3792766373411536
1.359726295210166
1.3362658846529814
1.3098729227761483
1.281524926686217
1.2570869990224829
1.2346041055718475
1.2072336265884651
1.176930596285435
1.1466275659824048
1.1163245356793745
1.088954056695992
1.0713587487781036
1.0703812316715542
1.0957966764418376
1.1573802541544478
1.2619745845552297
1.3822091886608017
1.5249266862170088
1.7126099706744868
1.9257086999022484
2.146627565982405
2.358748778103617
2.548387096774193
2.7067448680351904
2.8269794721407626
2.909090909090909
2.9530791788856305
2.962854349951124
2.943304007820137
2.9042033235581624
2.849462365591398
2.776148582600196
2.687194525904203
2.5865102639296187
2.4760508308895406
2.356793743890518
2.23069403714565
2.1006842619745845
1.9667644183773216
1.833822091886608
1.7038123167155426
1.5943304007820136
1.499511241446725
1.404692082111437
1.3186705767350928
1.24633431085044
1.1896383186705768
1.1505376344086022
1.1280547409579669
1.121212121212121
1.1280547409579669
1.1456500488758554
1.1720430107526882
1.2043010752688172
1.2365591397849462
1.267839687194526
1.300097751710655
1.3313782991202343
1.3577712609970674
1.3782991202346042
1.3919843597262953
1.3988269794721409
1.3988269794721409
1.3919843597262953
1.3792766373411536
1.3616813294232648
1.3450635386119256
1.3264907135874875
1.3020527859237536
1.2746823069403714
1.2453567937438903
1.2150537634408602
1.1837732160312806
1.1515151515151516
1.1202346041055715
1.0899315738025417
1.064516129032258
1.0518084066471165
1.0606060606060606
1.088954056695992
1.144672531769306
1.2434017595307918
1.3851417399804498
1.5650048875855327
1.7741935483870968
1.997067448680352
2.219941348973607
2.426197458455523
2.6050830889540566
2.7497556207233624
2.855327468230694
2.916911045943304
2.9442815249266863
2.9472140762463344
2.9266862170087977
2.8836754643206257
2.8211143695014664
2.742913000977517
2.6510263929618767
2.547409579667644
2.434017595307918
2.312805474095797
2.1847507331378297
2.0527859237536656
1.9345063538611929
1.825024437927664
1.7057673509286413
1.5865102639296187
1.474095796676442
1.3724340175953078
1.2854349951124144
1.2160312805474096
1.164222873900293
1.130987292277615
1.115347018572825
1.1143695014662756
1.1251221896383188
1.144672531769306
1.1730205278592376
1.2072336265884651
1.2443792766373412
1.2805474095796676
1.3147605083088951
1.3450635386119256
1.370478983382209
1.3900293255131966
1.401759530791789
1.4076246334310851
1.4086021505376345
1.404692082111437
1.393939393939394
1.3773216031280548
1.3558162267839686
1.3304007820136852
1.3020527859237536
1.2717497556207231
1.241446725317693
1.2101661779081134
1.1779081133919844
1.144672531769306
1.1124144672531768
1.0879765395894427
1.0703812316715542
1.0596285434995112
1.0664711632453567
1.1016617790811338
1.1730205278592376
1.2864125122189638
1.4408602150537635
1.6304985337243405
1.8435972629521016
2.0664711632453567
2.283479960899316
2.458455522971652
2.5972629521016617
2.724340175953079
2.825024437927664
2.89345063538612
2.927663734115347
2.930596285434995
2.905180840664712
2.857282502443793
2.789833822091887
2.705767350928641
2.6080156402737047
2.4995112414467253
2.396871945259042
2.294232649071359
2.176930596285435
2.0498533724340176
1.9188660801564028
1.7878787878787878
1.6598240469208212
1.5395894428152492
1.4291300097751711
1.332355816226784
1.252199413489736
1.1896383186705768
1.1485826001955035
1.126099706744868
1.1143695014662756
1.1143695014662756
1.1270772238514175
1.1495601173020529
1.1788856304985338
1.2130987292277615
1.2502443792766371
1.2854349951124144
1.3186705767350928
1.3470185728250244
1.3695014662756595
1.3861192570869991
1.3978494623655917
1.4037145650048877
1.4027370478983383
1.3949169110459434
1.3822091886608017
1.3636363636363635
1.3411534701857282
1.3147605083088951
1.2864125122189638
1.2561094819159335
1.224828934506354
1.1994134897360704
1.1759530791788857
1.147605083088954
1.1173020527859236
1.0879765395894427
1.0654936461388074
1.0576735092864125
1.0742913000977516
1.1231671554252198
1.2111436950146628
1.3421309872922775
1.512218963831867
1.7135874877810362
1.902248289345064
2.0821114369501466
2.27761485826002
2.4652981427174976
2.6295210166177907
2.7614858260019552
2.855327468230694
2.9120234604105573
2.9335288367546437
2.9237536656891496
2.887585532746823
2.8299120234604107
2.763440860215054
2.687194525904203
2.5943304007820136
2.4887585532746823
2.3734115347018574
2.251221896383187
2.1221896383186705
1.9902248289345064
1.858260019550342
1.7282502443792769
1.6041055718475072
1.4887585532746823
1.3861192570869991
1.3079178885630498
1.2482893450635386
1.195503421309873
1.1564027370478984
1.1319648093841643
1.1221896383186705
1.1270772238514175
1.1436950146627567
1.1700879765395895
1.203323558162268
1.238514173998045
1.2746823069403714
1.3079178885630498
1.3362658846529814
1.3636363636363635
1.3861192570869991
1.4027370478983383
1.4115347018572826
1.4134897360703813
1.409579667644184
1.3988269794721409
1.3822091886608017
1.3607038123167154
1.335288367546432
1.3079178885630498
1.2834799608993157
1.2609970674486803
1.2336265884652982
1.195503421309873
1.152492668621701
1.1143695014662756
1.0791788856304985
1.0498533724340176
1.0303030303030305
1.029325513196481
1.0557184750733135
1.1192570869990224
1.203323558162268
1.3157380254154447
1.4760508308895406
1.6735092864125125
1.8934506353861196
2.1192570869990224
2.334310850439883
2.525904203323558
2.6852394916911044
2.806451612903226
2.8885630498533725
2.932551319648094
2.941348973607038
2.9237536656891496
2.884652981427175
2.8260019550342133
2.750733137829912
2.659824046920821
2.557184750733138
2.444770283479961
2.32355816226784
2.1955034213098727
2.0625610948191597
1.9266862170087975
1.7917888563049853
1.6764418377321604
1.5747800586510263
1.469208211143695
1.3695014662756595
1.281524926686217
1.209188660801564
1.1534701857282503
1.1163245356793745
1.0957966764418376
1.0909090909090908
1.1006842619745845
1.1221896383186705
1.1505376344086022
1.181818181818182
1.2140762463343109
1.2482893450635386
1.2825024437927663
1.3147605083088951
1.3411534701857282
1.3616813294232648
1.375366568914956
1.3822091886608017
1.3812316715542523
1.3734115347018572
1.359726295210166
1.3450635386119256
1.3284457478005864
1.3049853372434017
1.2776148582600195
1.2473118279569892
1.2160312805474096
1.18475073313783
1.1534701857282503
1.121212121212121
1.088954056695992
1.0576735092864125
1.032258064516129
1.018572825024438
1.021505376344086
1.0469208211143697
1.104594330400782
1.203323558162268
1.346041055718475
1.5268817204301075
1.737047898338221
1.9618768328445748
2.1867057673509285
2.3958944281524928
2.578690127077224
2.7262952101661777
2.825024437927664
2.8836754643206257
2.918866080156403
2.9257086999022484
2.9071358748778104
2.8641251221896384
2.80058651026393
2.720430107526881
2.6265884652981426
2.5210166177908118
2.404692082111437
2.280547409579668
2.167155425219941
2.056695992179863
1.9315738025415443
1.801564027370479
1.672531769305963
1.5483870967741935
1.4330400782013686
1.3304007820136852
1.2434017595307918
1.173998044965787
1.1241446725317692
1.0918866080156402
1.0772238514173995
1.0772238514173995
1.0899315738025417
1.1124144672531768
1.1436950146627567
1.1798631476050832
1.2189638318670577
1.2580645161290325
1.295210166177908
1.3284457478005864
1.3548387096774193
1.3743890518084063
1.3870967741935485
1.3949169110459434
1.396871945259042
1.3919843597262953
1.380254154447703
1.3626588465298142
1.3401759530791788
1.313782991202346
1.2854349951124144
1.2551319648093842
1.2228739002932552
1.1906158357771262
1.1573802541544478
1.1241446725317692
1.096774193548387
1.0742913000977516
1.050830889540567
1.035190615835777
1.0371456500488758
1.0664711632453567
1.1329423264907137
1.2424242424242424
1.393939393939394
1.5826001955034212
1.796676441837732
2.022482893450636
2.2160312805474094
2.3822091886608017
2.547409579667644
2.6911045943304006
2.8025415444770285
2.877810361681329
2.9159335288367547
2.920821114369501
2.8963831867057674
2.8484848484848486
2.780058651026393
2.695014662756598
2.5962854349951123
2.4995112414467253
2.40078201368524
2.286412512218964
2.161290322580645
2.0303030303030303
1.895405669599218
1.761485826001955
1.632453567937439
1.5102639296187683
1.3998044965786902
1.303030303030303
1.2228739002932552
1.166177908113392
1.1290322580645162
1.1016617790811338
1.0879765395894427
1.0879765395894427
1.1006842619745845
1.1231671554252198
1.1534701857282503
1.1886608015640274
1.2258064516129032
1.2619745845552297
1.2961876832844574
1.3255131964809383
1.348973607038123
1.3665689149560116
1.3792766373411536
1.3851417399804498
1.3851417399804498
1.3782991202346042
1.3655913978494625
1.3470185728250244
1.324535679374389
1.2981427174975562
1.2697947214076246
1.2394916911045943
1.2140762463343109
1.1906158357771262
1.1622678396871946
1.1319648093841643
1.099706744868035
1.0694037145650048
1.0449657869012707
1.0332355816226784
1.043010752688172
1.0840664711632453
1.1652003910068427
1.289345063538612
1.4545454545454546
1.6226783968719452
1.796676441837732
2.002932551319648
2.2160312805474094
2.418377321603128
2.5943304007820136
2.736070381231672
2.8396871945259043
2.906158357771261
2.935483870967742
2.932551319648094
2.902248289345064
2.855327468230694
2.793743890518084
2.7145650048875853
2.6207233626588464
2.5141739980449658
2.3978494623655915
2.274682306940372
2.144672531769306
2.0097751710654936
1.873900293255132
1.7390029325513197
1.608993157380254
1.487781036168133
1.391006842619746
1.3118279569892473
1.2355816226783969
1.1710654936461389
1.121212121212121
1.088954056695992
1.072336265884653
1.0703812316715542
1.0811339198435972
1.1006842619745845
1.1270772238514175
1.1583577712609971
1.1886608015640274
1.217008797653959
1.2453567937438903
1.270772238514174
1.2913000977517106
1.3049853372434017
1.3118279569892473
1.3128054740957966
1.305962854349951
1.29227761485826
1.2746823069403714
1.252199413489736
1.224828934506354
1.2003910068426198
1.1759530791788857
1.1456500488758554
1.1133919843597262
1.0791788856304985
1.0449657869012707
1.010752688172043
0.9765395894428152
0.9442815249266864
0.9178885630498532
0.9042033235581622
0.913978494623656
0.9442815249266864
1.002932551319648
1.1055718475073313
1.2541544477028348
1.4428152492668622
1.6608015640273706
1.8944281524926687
2.1270772238514173
2.3440860215053765
2.5317693059628543
2.684261974584555
2.7966764418377323
2.8690127077223853
2.9012707722385143
2.903225806451613
2.8807429130009776
2.835777126099707
2.771260997067449
2.689149560117302
2.591397849462365
2.479960899315738
2.358748778103617
2.228739002932551
2.0928641251221896
1.9521016617790807
1.8269794721407624
1.7116324535679377
1.585532746823069
1.4604105571847508
1.3421309872922775
1.2365591397849462
1.147605083088954
1.0772238514173995
1.0263929618768328
0.9960899315738024
0.9833822091886608
0.9872922776148584
1.0019550342130987
1.0263929618768328
1.0596285434995112
1.0987292277614855
1.1407624633431086
1.1827956989247312
1.2228739002932552
1.2580645161290325
1.2883675464320623
1.3118279569892473
1.327468230694037
1.335288367546432
1.335288367546432
1.3313782991202343
1.3225806451612905
1.3069403714565004
1.2864125122189638
1.2619745845552297
1.2346041055718475
1.206256109481916
1.176930596285435
1.1466275659824048
1.1163245356793745
1.0850439882697946
1.0547409579667644
1.032258064516129
1.0175953079178883
1.010752688172043
1.0234604105571847
1.0664711632453567
1.147605083088954
1.2717497556207231
1.436950146627566
1.6373411534701858
1.8602150537634408
2.090909090909091
2.313782991202346
2.515151515151515
2.667644183773216
2.780058651026393
2.873900293255132
2.9393939393939394
2.9716520039100685
2.972629521016618
2.945259042033236
2.89345063538612
2.8211143695014664
2.7331378299120237
2.631476050830889
2.5180840664711632
2.409579667644184
2.302052785923754
2.1788856304985336
2.046920821114369
1.9120234604105573
1.7790811339198436
1.651026392961877
1.5327468230694037
1.4271749755620724
1.3372434017595307
1.2649071358748778
1.2121212121212122
1.1788856304985338
1.163245356793744
1.1622678396871946
1.1730205278592376
1.1935483870967742
1.2238514173998043
1.260019550342131
1.2991202346041055
1.33822091886608
1.3743890518084063
1.4066471163245358
1.434017595307918
1.4535679374389052
1.4672531769305963
1.474095796676442
1.474095796676442
1.4672531769305963
1.4545454545454546
1.436950146627566
1.414467253176931
1.3890518084066472
1.3616813294232648
1.332355816226784
1.3020527859237536
1.2717497556207231
1.2404692082111437
1.2150537634408602
1.1925708699902249
1.1671554252199414
1.1436950146627567
1.130987292277615
1.13880742913001
1.1759530791788857
1.2512218963831867
1.3695014662756595
1.5298142717497556
1.726295210166178
1.946236559139785
2.144672531769306
2.326490713587488
2.5180840664711632
2.6959921798631474
2.84652981427175
2.960899315738025
3.0391006842619745
3.081133919843597
3.089931573802541
3.069403714565005
3.0254154447702835
2.961876832844575
2.881720430107527
2.7976539589442817
2.7096774193548385
2.606060606060606
2.4916911045943304
2.3685239491691106
2.239491691104594
2.1065493646138806
1.9726295210166176
1.8416422287390029
1.715542521994135
1.598240469208211
1.4926686217008798
1.409579667644184
1.3450635386119256
