ppg
1.0117302052785924
1.0146627565982405
1.0156402737047898
1.0175953079178883
1.021505376344086
1.0234604105571847
1.021505376344086
1.0175953079178883
1.0127077223851415
1.0117302052785924
1.0156402737047898
1.0254154447702837
1.0488758553274682
1.0977517106549364
1.1837732160312806
1.3088954056695992
1.4721407624633431
1.667644183773216
1.8826979472140764
2.1006842619745845
2.304985337243402
2.464320625610948
2.5865102639296187
2.695014662756598
2.7810361681329425
2.841642228739003
2.877810361681329
2.89345063538612
2.89247311827957
2.8797653958944283
2.857282502443793
2.8260019550342133
2.790811339198436
2.7565982404692084
2.721407624633431
2.6852394916911044
2.6471163245356792
2.6070381231671558
2.5650048875855327
2.520039100684262
2.4711632453567938
2.4173998044965788
2.355816226783969
2.286412512218964
2.2111436950146626
2.1300097751710654
2.0547409579667644
1.9824046920821117
1.902248289345064
1.8211143695014664
1.7448680351906158
1.675464320625611
1.6177908113391983
1.5718475073313782
1.5386119257087
1.5180840664711632
1.5063538611925709
1.5024437927663734
1.501466275659824
1.499511241446725
1.4975562072336266
1.4946236559139785
1.490713587487781
1.482893450635386
1.4701857282502444
1.4545454545454546
1.4379276637341154
1.4213098729227762
1.4037145650048877
1.3851417399804498
1.3655913978494625
1.348973607038123
1.3333333333333333
1.3176930596285434
1.3040078201368523
1.2913000977517106
1.2795698924731185
1.267839687194526
1.2561094819159335
1.2443792766373412
1.2326490713587488
1.2209188660801564
1.209188660801564
1.1974584555229717
1.1906158357771262
1.1857282502443791
1.176930596285435
1.1700879765395895
1.163245356793744
1.155425219941349
1.1505376344086022
1.147605083088954
1.1466275659824048
1.1456500488758554
1.1456500488758554
1.1456500488758554
1.1466275659824048
1.147605083088954
1.1466275659824048
1.1456500488758554
1.1456500488758554
1.1456500488758554
1.1456500488758554
1.1456500488758554
1.1456500488758554
1.1456500488758554
1.1456500488758554
1.1456500488758554
1.1456500488758554
1.1466275659824048
1.1485826001955035
1.1495601173020529
1.1505376344086022
1.1505376344086022
1.1505376344086022
1.1505376344086022
1.1505376344086022
1.1505376344086022
1.1505376344086022
1.1495601173020529
1.1456500488758554
1.1436950146627567
1.142717497556207
1.1407624633431086
1.144672531769306
1.164222873900293
1.2101661779081134
1.29227761485826
1.4164222873900294
1.5786901270772238
1.7702834799608993
1.978494623655914
2.1867057673509285
2.383186705767351
2.536656891495601
2.652003910068426
2.7536656891495603
2.83088954056696
2.8807429130009776
2.906158357771261
2.9100684261974585
2.895405669599218
2.8670576735092865
2.8289345063538613
2.7869012707722387
2.740957966764418
2.6930596285435
2.6451612903225805
2.5962854349951123
2.548387096774193
2.4995112414467253
2.450635386119257
2.401759530791789
2.347996089931574
2.2873900293255134
2.218963831867057
2.144672531769306
2.0635386119257086
1.986314760508309
1.9130009775171064
1.8328445747800584
1.75366568914956
1.6813294232649072
1.619745845552297
1.5698924731182795
1.5317693059628543
1.504398826979472
1.4868035190615836
1.4760508308895406
1.4721407624633431
1.4701857282502444
1.4682306940371457
1.4652981427174976
1.4613880742913
1.4545454545454546
1.4437927663734116
1.4301075268817205
1.414467253176931
1.3978494623655917
1.3792766373411536
1.3587487781036167
1.33822091886608
1.3176930596285434
1.300097751710655
1.2854349951124144
1.267839687194526
1.249266862170088
1.224828934506354
1.2023460410557183
1.1867057673509287
1.1700879765395895
1.1544477028347997
1.142717497556207
1.133919843597263
1.1270772238514175
1.1202346041055715
1.1173020527859236
1.115347018572825
1.1114369501466277
1.1016617790811338
1.1006842619745845
1.099706744868035
1.099706744868035
1.099706744868035
1.099706744868035
1.099706744868035
1.0977517106549364
1.093841642228739
1.0918866080156402
1.0899315738025417
1.0840664711632453
1.083088954056696
1.0957966764418376
1.1319648093841643
1.2043010752688172
1.3196480938416422
1.478983382209189
1.675464320625611
1.8944281524926687
2.1192570869990224
2.333333333333333
2.501466275659824
2.6285434995112413
2.7517106549364616
2.844574780058651
2.895405669599218
2.9237536656891496
2.9335288367546437
2.929618768328446
2.913978494623656
2.8905180840664717
2.860215053763441
2.8240469208211145
2.7869012707722387
2.748778103616813
2.705767350928641
2.6608015640273703
2.616813294232649
2.5718475073313782
2.52297165200391
2.472140762463343
2.419354838709677
2.3626588465298144
2.300097751710655
2.231671554252199
2.156402737047898
2.085043988269794
2.013685239491691
1.9296187683284456
1.839687194525904
1.750733137829912
1.667644183773216
1.5923753665689149
1.521994134897361
1.4672531769305963
1.4330400782013686
1.4037145650048877
1.3812316715542523
1.3655913978494625
1.3558162267839686
1.332355816226784
1.3010752688172045
1.2834799608993157
1.273704789833822
1.2668621700879763
1.260019550342131
1.2512218963831867
1.2404692082111437
1.2258064516129032
1.206256109481916
1.1886608015640274
1.1730205278592376
1.1612903225806452
1.144672531769306
1.1221896383186705
1.104594330400782
1.0928641251221896
1.0840664711632453
1.075268817204301
1.067448680351906
1.0606060606060606
1.053763440860215
1.050830889540567
1.050830889540567
1.0518084066471165
1.0557184750733135
1.0606060606060606
1.064516129032258
1.0664711632453567
1.0694037145650048
1.0703812316715542
1.0684261974584557
1.067448680351906
1.0684261974584557
1.0684261974584557
1.0713587487781036
1.0762463343108504
1.0791788856304985
1.0801564027370478
1.0811339198435972
1.0811339198435972
1.0811339198435972
1.0811339198435972
1.0811339198435972
1.0811339198435972
1.0811339198435972
1.0811339198435972
1.0811339198435972
1.0811339198435972
1.0811339198435972
1.0811339198435972
1.0811339198435972
1.0811339198435972
1.0811339198435972
1.0811339198435972
1.0811339198435972
1.0811339198435972
1.0811339198435972
1.0811339198435972
1.0791788856304985
1.078201368523949
1.0801564027370478
1.0791788856304985
1.0772238514173995
1.0772238514173995
1.0869990224828934
1.1143695014662756
1.1720430107526882
1.2697947214076246
1.4115347018572826
1.590420332355816
1.796676441837732
1.986314760508309
2.163245356793744
2.355816226783969
2.5386119257087
2.6959921798631474
2.8211143695014664
2.9100684261974585
2.961876832844575
2.983382209188661
2.981427174975562
2.961876832844575
2.930596285434995
2.8914956011730206
2.8475073313782997
2.80058651026393
2.752688172043011
2.7038123167155423
2.6529814271749754
2.60019550342131
2.5454545454545454
2.49266862170088
2.4408602150537635
2.391006842619746
2.3382209188660803
2.27761485826002
2.2160312805474094
2.1515151515151514
2.0762463343108504
1.992179863147605
1.902248289345064
1.8142717497556209
1.7331378299120237
1.6598240469208212
1.595307917888563
1.541544477028348
1.501466275659824
1.4731182795698925
1.456500488758553
1.4467253176930597
1.439882697947214
1.436950146627566
1.434017595307918
1.4291300097751711
1.423264907135875
1.4173998044965788
1.4115347018572826
1.401759530791789
1.388074291300098
1.3714565004887584
1.35386119257087
1.3391984359726294
1.324535679374389
1.3049853372434017
1.2825024437927663
1.260019550342131
1.2394916911045943
1.219941348973607
1.2013685239491692
1.18475073313783
1.1700879765395895
1.1564027370478984
1.1436950146627567
1.133919843597263
1.126099706744868
1.1163245356793745
1.104594330400782
1.0948191593352885
1.086021505376344
1.0791788856304985
1.072336265884653
1.0654936461388074
1.0596285434995112
1.053763440860215
1.0488758553274682
1.0478983382209188
1.050830889540567
1.0547409579667644
1.0586510263929618
1.0606060606060606
1.06158357771261
1.0635386119257086
1.0664711632453567
1.0694037145650048
1.0733137829912025
1.0772238514173995
1.0791788856304985
1.0801564027370478
1.0811339198435972
1.0791788856304985
1.0772238514173995
1.0762463343108504
1.075268817204301
1.0762463343108504
1.0791788856304985
1.0801564027370478
1.0811339198435972
1.0811339198435972
1.0811339198435972
1.0811339198435972
1.0811339198435972
1.0811339198435972
1.0811339198435972
1.0791788856304985
1.075268817204301
1.0703812316715542
1.064516129032258
1.0606060606060606
1.0625610948191593
1.0811339198435972
1.1270772238514175
1.2121212121212122
1.3411534701857282
1.482893450635386
1.643206256109482
1.8484848484848484
2.074291300097752
2.297165200391007
2.4975562072336266
2.6666666666666665
2.7966764418377323
2.8885630498533725
2.943304007820137
2.970674486803519
2.978494623655914
2.9696969696969697
2.948191593352884
2.917888563049853
2.8797653958944283
2.835777126099707
2.788856304985337
2.740957966764418
2.69208211143695
2.644183773216031
2.5992179863147604
2.5513196480938416
2.4995112414467253
2.447702834799609
2.398826979472141
2.346041055718475
2.2844574780058653
2.2140762463343107
2.134897360703812
2.048875855327468
1.956989247311828
1.86119257086999
1.7673509286412512
1.6774193548387095
1.5923753665689149
1.517106549364614
1.455522971652004
1.4105571847507332
1.3782991202346042
1.3519061583577712
1.332355816226784
1.3196480938416422
1.3098729227761483
1.3020527859237536
1.295210166177908
1.2873900293255132
1.2766373411534702
1.2649071358748778
1.2502443792766371
1.2355816226783969
0.9696969696969696
0.9687194525904204
0.967741935483871
0.967741935483871
0.9843597262952102
0.9824046920821116
0.9775171065493646
0.9736070381231672
0.9745845552297164
0.9872922776148584
1.0205278592375366
1.0850439882697946
1.1681329423264908
1.2795698924731185
1.4418377321603129
1.640273704789834
1.8621700879765395
2.089931573802541
2.304985337243402
2.4946236559139785
2.6510263929618767
2.7702834799608995
2.855327468230694
2.9100684261974585
2.9345063538611926
2.93841642228739
2.929618768328446
2.9100684261974585
2.8826979472140764
2.849462365591398
2.814271749755621
2.776148582600196
2.7331378299120237
2.6881720430107525
2.643206256109482
2.5992179863147604
2.558162267839687
2.515151515151515
2.4682306940371457
2.4173998044965788
2.3597262952101663
2.2932551319648096
2.219941348973607
2.1388074291300097
2.0498533724340176
1.9589442815249267
1.871945259042033
1.7927663734115349
1.721407624633431
1.664711632453568
1.6187683284457477
1.5747800586510263
1.5395894428152492
1.5151515151515151
1.498533724340176
1.4887585532746823
1.4848484848484849
1.482893450635386
1.478983382209189
1.474095796676442
1.469208211143695
1.4633431085043989
1.4545454545454546
1.4408602150537635
1.4252199413489737
1.4086021505376345
1.391006842619746
1.3734115347018572
1.35386119257087
1.335288367546432
1.3206256109481915
1.3069403714565004
1.29227761485826
1.2766373411534702
1.2639296187683284
1.2512218963831867
1.2365591397849462
1.2228739002932552
1.2101661779081134
1.1974584555229717
1.1857282502443791
1.176930596285435
1.1720430107526882
1.1681329423264908
1.1652003910068427
1.163245356793744
1.1622678396871946
1.1593352883675463
1.1515151515151516
1.142717497556207
1.1368523949169111
1.133919843597263
1.1329423264907137
1.1319648093841643
1.1319648093841643
1.1319648093841643
1.1319648093841643
1.1319648093841643
1.1319648093841643
1.1329423264907137
1.1358748778103618
1.1368523949169111
1.1378299120234605
1.1378299120234605
1.1378299120234605
1.1358748778103618
1.133919843597263
1.1329423264907137
1.1319648093841643
1.1319648093841643
1.1319648093841643
1.1329423264907137
1.1358748778103618
1.1368523949169111
1.1378299120234605
1.1378299120234605
1.1378299120234605
1.1358748778103618
1.1319648093841643
1.1270772238514175
1.1221896383186705
1.1192570869990224
1.1251221896383188
1.152492668621701
1.198435972629521
1.270772238514174
1.3861192570869991
1.5405669599217986
1.7272727272727273
1.9305962854349952
2.133919843597263
2.3255131964809386
2.495601173020528
2.636363636363636
2.742913000977517
2.8152492668621703
2.8533724340175954
2.866080156402737
2.865102639296188
2.849462365591398
2.8240469208211145
2.791788856304985
2.752688172043011
2.7096774193548385
2.665689149560117
2.619745845552297
2.572825024437928
2.525904203323558
2.47702834799609
2.43108504398827
2.3870967741935485
2.3382209188660803
2.2825024437927666
2.218963831867057
2.1485826001955037
2.0733137829912023
1.9931573802541545
1.9120234604105573
1.83088954056696
1.7526881720430108
1.6793743890518085
1.6187683284457477
1.5708699902248289
1.5288367546432062
1.4946236559139785
1.4672531769305963
1.447702834799609
1.4349951124144673
1.4252199413489737
1.4173998044965788
1.4105571847507332
1.4037145650048877
1.3949169110459434
1.3812316715542523
1.3685239491691104
1.3558162267839686
1.3411534701857282
1.324535679374389
1.3088954056695992
1.2932551319648091
1.2766373411534702
1.2609970674486803
1.2453567937438903
1.2287390029325511
1.2111436950146628
1.1935483870967742
1.1788856304985338
1.166177908113392
1.1515151515151516
1.1397849462365592
1.130987292277615
1.1241446725317692
1.1163245356793745
1.1065493646138806
1.096774193548387
1.088954056695992
1.0821114369501466
1.075268817204301
1.0694037145650048
1.0664711632453567
1.064516129032258
1.0606060606060606
1.0557184750733135
1.050830889540567
1.0449657869012707
1.0410557184750733
1.0391006842619743
1.0391006842619743
1.0410557184750733
1.043010752688172
1.04594330400782
1.0498533724340176
1.0547409579667644
1.0586510263929618
1.0625610948191593
1.0654936461388074
1.0703812316715542
1.072336265884653
1.072336265884653
1.072336265884653
1.0703812316715542
1.0664711632453567
1.064516129032258
1.0664711632453567
1.072336265884653
1.078201368523949
1.0957966764418376
1.1192570869990224
1.130987292277615
1.1348973607038124
1.133919843597263
1.130987292277615
1.1280547409579669
1.1280547409579669
1.1348973607038124
1.1573802541544478
1.195503421309873
1.2580645161290325
1.3616813294232648
1.5063538611925709
1.6881720430107527
1.8973607038123168
2.118279569892473
2.332355816226784
2.5249266862170088
2.686217008797654
2.811339198435973
2.900293255131965
2.951124144672532
2.9745845552297165
2.9853372434017595
2.981427174975562
2.9657869012707723
2.940371456500489
2.9071358748778104
2.870967741935484
2.835777126099707
2.80058651026393
2.7624633431085046
2.719452590420332
2.675464320625611
2.633431085043988
2.5884652981427174
2.539589442815249
2.486803519061584
2.4281524926686218
2.3626588465298144
2.2932551319648096
2.2170087976539588
2.134897360703812
2.047898338220919
1.9618768328445748
1.8807429130009776
1.812316715542522
1.75366568914956
1.6979472140762464
1.6480938416422288
1.606060606060606
1.5747800586510263
1.5542521994134897
1.542521994134897
1.5366568914956011
1.5356793743890518
1.5347018572825024
1.5317693059628543
1.5268817204301075
1.521994134897361
1.5131964809384164
1.500488758553275
1.4848484848484849
1.4682306940371457
1.4496578690127078
1.4301075268817205
1.4115347018572826
1.392961876832845
1.3763440860215057
1.3607038123167154
1.3440860215053765
1.3313782991202343
1.3225806451612905
1.3118279569892473
1.3010752688172045
1.289345063538612
1.2776148582600195
1.2658846529814272
1.2541544477028348
1.2424242424242424
1.23069403714565
1.2189638318670577
1.2082111436950147
1.198435972629521
1.1925708699902249
1.1896383186705768
1.1867057673509287
1.1837732160312806
1.18475073313783
1.1867057673509287
1.187683284457478
1.1886608015640274
1.1886608015640274
1.1886608015640274
1.1886608015640274
1.187683284457478
1.1837732160312806
1.1788856304985338
1.176930596285435
1.1827956989247312
1.1994134897360704
1.2355816226783969
1.3049853372434017
1.41544477028348
1.565982404692082
1.7487781036168133
1.951124144672532
2.157380254154448
2.3519061583577714
2.52297165200391
2.662756598240469
2.7702834799608995
2.844574780058651
2.8826979472140764
2.8944281524926687
2.8914956011730206
2.875855327468231
2.849462365591398
2.81622678396872
2.776148582600196
2.732160312805474
2.6881720430107525
2.6451612903225805
2.603128054740958
2.560117302052786
2.5180840664711632
2.4760508308895406
2.4301075268817205
2.377321603128055
2.3167155425219943
2.2502443792766376
2.177908113391984
2.102639296187683
2.021505376344086
1.93841642228739
1.857282502443793
1.7790811339198436
1.70772238514174
1.6520039100684265
1.608993157380254
1.5718475073313782
1.5395894428152492
1.5131964809384164
1.4946236559139785
1.4819159335288368
1.4731182795698925
1.4652981427174976
1.457478005865103
1.4457478005865103
1.43108504398827
1.4173998044965788
1.404692082111437
1.3900293255131966
1.3734115347018572
1.3548387096774193
1.335288367546432
1.316715542521994
1.2991202346041055
1.2805474095796676
1.2609970674486803
1.2424242424242424
1.227761485826002
1.2140762463343109
1.203323558162268
1.1935483870967742
1.1837732160312806
1.1759530791788857
1.166177908113392
1.155425219941349
1.1456500488758554
1.1348973607038124
1.1251221896383188
1.115347018572825
1.104594330400782
1.0948191593352885
1.0899315738025417
1.0879765395894427
1.0840664711632453
1.0801564027370478
1.0801564027370478
1.0811339198435972
1.0821114369501466
1.0811339198435972
1.0801564027370478
1.0801564027370478
1.078201368523949
1.0772238514173995
1.0772238514173995
1.0801564027370478
1.083088954056696
1.0840664711632453
1.086021505376344
1.0869990224828934
1.0879765395894427
1.0879765395894427
1.0899315738025417
1.0918866080156402
1.0948191593352885
1.0977517106549364
1.1006842619745845
1.104594330400782
1.1094819159335287
1.1133919843597262
1.1173020527859236
1.1221896383186705
1.126099706744868
1.1270772238514175
1.1241446725317692
1.1192570869990224
1.1173020527859236
1.1202346041055715
1.13880742913001
1.181818181818182
1.241446725317693
1.3284457478005864
1.4623655913978495
1.6334310850439884
1.8318670576735088
2.043010752688172
2.2502443792766376
2.4408602150537635
2.606060606060606
2.73802541544477
2.8367546432062563
2.9042033235581624
2.9393939393939394
2.951124144672532
2.951124144672532
2.9393939393939394
2.916911045943304
2.886608015640274
2.852394916911046
2.817204301075269
2.782013685239492
2.742913000977517
2.697947214076246
2.652003910068426
2.6099706744868034
2.56891495601173
2.5249266862170088
2.4789833822091887
2.4281524926686218
2.3685239491691106
2.3010752688172045
2.2248289345063537
2.1388074291300097
2.046920821114369
1.9560117302052784
1.870967741935484
1.790811339198436
1.7243401759530792
1.6695992179863148
1.619745845552297
1.5777126099706744
1.542521994134897
1.5161290322580645
1.498533724340176
1.4868035190615836
1.478005865102639
1.4701857282502444
1.4633431085043989
1.455522971652004
1.4486803519061584
1.4437927663734116
1.436950146627566
1.4252199413489737
1.4105571847507332
1.393939393939394
1.3763440860215057
1.3587487781036167
1.3391984359726294
1.3196480938416422
1.3040078201368523
1.2903225806451613
1.2756598240469208
1.2619745845552297
1.249266862170088
1.2336265884652982
1.2179863147605083
1.2043010752688172
1.1915933528836755
1.1788856304985338
1.166177908113392
1.1534701857282503
1.142717497556207
1.1358748778103618
1.130987292277615
1.1290322580645162
1.1280547409579669
1.1241446725317692
1.1202346041055715
1.1173020527859236
1.1143695014662756
1.1124144672531768
1.1114369501466277
1.1114369501466277
1.1114369501466277
1.1114369501466277
1.1114369501466277
1.1114369501466277
1.1124144672531768
1.1133919843597262
1.1124144672531768
1.1114369501466277
1.1114369501466277
1.1114369501466277
1.1114369501466277
1.1114369501466277
1.1114369501466277
1.1114369501466277
1.1114369501466277
1.1114369501466277
1.1124144672531768
1.1143695014662756
1.115347018572825
1.1163245356793745
1.1163245356793745
1.1163245356793745
1.1163245356793745
1.1163245356793745
1.115347018572825
1.1114369501466277
1.1094819159335287
1.110459433040078
1.115347018572825
1.1280547409579669
1.1573802541544478
1.217008797653959
1.313782991202346
1.4506353861192571
1.624633431085044
1.825024437927664
2.037145650048876
2.247311827956989
2.4408602150537635
2.606060606060606
2.736070381231672
2.8211143695014664
2.8719452590420333
2.903225806451613
2.913978494623656
2.9071358748778104
2.8856304985337244
2.855327468230694
2.8181818181818183
2.7751710654936463
2.729227761485826
2.6832844574780057
2.6373411534701856
2.591397849462365
2.547409579667644
2.5024437927663734
2.453567937438905
2.398826979472141
2.3362658846529816
2.2668621700879767
2.190615835777126
2.1094819159335287
2.026392961876833
1.943304007820137
1.8621700879765395
1.7839687194525904
1.7204301075268815
1.667644183773216
1.616813294232649
1.5718475073313782
1.5356793743890518
1.5102639296187683
1.4926686217008798
1.482893450635386
1.4760508308895406
1.469208211143695
1.4633431085043989
1.457478005865103
1.4506353861192571
1.444770283479961
1.4349951124144673
1.4213098729227762
1.4056695992179864
1.388074291300098
1.370478983382209
1.3519061583577712
1.332355816226784
1.3098729227761483
1.2903225806451613
1.270772238514174
1.252199413489736
1.2394916911045943
1.23069403714565
1.217008797653959
1.2003910068426198
1.1827956989247312
1.1652003910068427
1.0850439882697946
1.0840664711632453
1.0821114369501466
1.0811339198435972
1.0821114369501466
1.0840664711632453
1.0869990224828934
1.0928641251221896
1.1006842619745845
1.1055718475073313
1.1085043988269794
1.1085043988269794
1.1085043988269794
1.1085043988269794
1.1055718475073313
1.1006842619745845
1.096774193548387
1.0987292277614855
1.1173020527859236
1.1505376344086022
1.2101661779081134
1.313782991202346
1.4613880742913
1.6480938416422288
1.8641251221896384
2.09188660801564
2.310850439882698
2.509286412512219
2.677419354838709
2.8084066471163247
2.903225806451613
2.962854349951124
2.9902248289345064
2.9960899315738025
2.989247311827957
2.970674486803519
2.9423264907135875
2.906158357771261
2.868035190615836
2.827956989247312
2.782991202346041
2.736070381231672
2.6901270772238512
2.6451612903225805
2.603128054740958
2.5591397849462365
2.5112414467253177
2.4594330400782014
2.401759530791789
2.337243401759531
2.2668621700879767
2.188660801564027
2.103616813294233
2.013685239491691
1.921798631476051
1.8299120234604105
1.7497556207233629
1.6803519061583578
1.6129032258064515
1.5532746823069403
1.5053763440860215
1.469208211143695
1.4428152492668622
1.4252199413489737
1.4134897360703813
1.404692082111437
1.396871945259042
1.3900293255131966
1.3841642228739004
1.3792766373411536
1.3734115347018572
1.3626588465298142
1.3343108504398826
1.2961876832844574
1.2697947214076246
1.2482893450635386
1.2297165200391007
1.2150537634408602
1.2013685239491692
1.187683284457478
1.1749755620723363
1.1652003910068427
1.1573802541544478
1.147605083088954
1.1358748778103618
1.1241446725317692
1.1124144672531768
1.099706744868035
1.0869990224828934
1.0762463343108504
1.0694037145650048
1.0625610948191593
1.056695992179863
1.053763440860215
1.0518084066471165
1.050830889540567
1.050830889540567
1.050830889540567
1.050830889540567
1.050830889540567
1.050830889540567
1.050830889540567
1.050830889540567
1.050830889540567
1.050830889540567
1.050830889540567
1.0518084066471165
1.0527859237536656
1.0518084066471165
1.050830889540567
1.050830889540567
1.050830889540567
1.050830889540567
1.050830889540567
1.050830889540567
1.050830889540567
1.050830889540567
1.050830889540567
1.050830889540567
1.0518084066471165
1.053763440860215
1.0547409579667644
1.056695992179863
1.0596285434995112
1.0625610948191593
1.0654936461388074
1.067448680351906
1.0664711632453567
1.06158357771261
1.0547409579667644
1.0478983382209188
1.04594330400782
1.050830889540567
1.0694037145650048
1.1192570869990224
