ppg
2.9237536656891496
2.906158357771261
2.868035190615836
2.8152492668621703
2.7517106549364616
2.6803519061583576
2.6041055718475072
2.5239491691104594
2.4486803519061584
2.375366568914956
2.2952101661779083
2.2111436950146626
2.1251221896383186
2.0391006842619745
1.9521016617790807
1.865102639296188
1.7781036168132942
1.6920821114369502
1.607038123167155
1.52297165200391
1.439882697947214
1.3714565004887584
1.310850439882698
1.2453567937438903
1.1827956989247312
1.1251221896383188
1.075268817204301
1.0371456500488758
1.010752688172043
0.9990224828934506
1.0019550342130987
1.018572825024438
1.0478983382209188
1.083088954056696
1.1221896383186705
1.1681329423264908
1.217008797653959
1.2649071358748778
1.3098729227761483
1.348973607038123
1.3812316715542523
1.4066471163245358
1.4252199413489737
1.436950146627566
1.4428152492668622
1.4437927663734116
1.4437927663734116
1.4418377321603129
1.435972629521017
1.4281524926686218
1.4193548387096775
1.409579667644184
1.3998044965786902
1.3900293255131966
1.380254154447703
1.3695014662756595
1.356793743890518
1.3401759530791788
1.3235581622678396
1.305962854349951
1.2854349951124144
1.273704789833822
1.2854349951124144
1.3372434017595307
1.439882697947214
1.5962854349951123
1.7986314760508308
2.0303030303030303
2.267839687194526
2.487781036168133
2.6715542521994133
2.798631476050831
2.877810361681329
2.9286412512218964
2.948191593352884
2.940371456500489
2.911045943304008
2.865102639296188
2.807429130009776
2.740957966764418
2.667644183773216
2.589442815249267
2.50733137829912
2.432062561094819
2.3597262952101663
2.281524926686217
2.198435972629521
2.113391984359726
2.027370478983382
1.9413489736070384
1.858260019550342
1.7761485826001957
1.6930596285434996
1.6099706744868034
1.5278592375366569
1.447702834799609
1.3812316715542523
1.3225806451612905
1.260019550342131
1.1994134897360704
1.144672531769306
1.0987292277614855
1.064516129032258
1.0439882697947214
1.0381231671554252
1.0469208211143697
1.0684261974584557
1.1016617790811338
1.13880742913001
1.1798631476050832
1.2287390029325511
1.278592375366569
1.3264907135874875
1.370478983382209
1.4076246334310851
1.4379276637341154
1.4604105571847508
1.4760508308895406
1.4858260019550342
1.4897360703812317
1.490713587487781
1.4897360703812317
1.4858260019550342
1.478983382209189
1.4711632453567938
1.4623655913978495
1.452590420332356
1.4428152492668622
1.434017595307918
1.4252199413489737
1.4134897360703813
1.3978494623655917
1.3773216031280548
1.3577712609970674
1.3401759530791788
1.3264907135874875
1.3313782991202343
1.3714565004887584
1.4604105571847508
1.6041055718475072
1.796676441837732
2.0234604105571847
2.26197458455523
2.4887585532746823
2.6832844574780057
2.820136852394917
2.90811339198436
2.9687194525904204
2.9960899315738025
2.994134897360704
2.9687194525904204
2.9257086999022484
2.8699902248289346
2.8044965786901277
2.732160312805474
2.6559139784946235
2.575757575757576
2.493646138807429
2.4173998044965788
2.3440860215053765
2.2639296187683287
2.1808406647116323
2.096774193548387
2.0117302052785924
1.9266862170087975
1.842619745845552
1.758553274682307
1.6744868035190617
1.5913978494623655
1.509286412512219
1.439882697947214
1.3782991202346042
1.3118279569892473
1.2473118279569892
1.1886608015640274
1.13880742913001
1.099706744868035
1.072336265884653
1.0596285434995112
1.06158357771261
1.078201368523949
1.1065493646138806
1.1456500488758554
1.187683284457478
1.2297165200391007
1.2756598240469208
1.321603128054741
1.3636363636363635
1.3988269794721409
1.4281524926686218
1.4496578690127078
1.4643206256109482
1.4731182795698925
1.4760508308895406
1.4750733137829912
1.4721407624633431
1.4682306940371457
1.4604105571847508
1.4516129032258065
1.4408602150537635
1.4291300097751711
1.4173998044965788
1.4056695992179864
1.3949169110459434
1.383186705767351
1.370478983382209
1.35386119257087
1.332355816226784
1.3118279569892473
1.2932551319648091
1.2776148582600195
1.2805474095796676
1.3186705767350928
1.404692082111437
1.543499511241447
1.7311827956989247
1.9530791788856303
2.187683284457478
2.4115347018572826
2.6050830889540566
2.7438905180840663
2.834799608993157
2.898338220918866
2.929618768328446
2.930596285434995
2.90811339198436
2.866080156402737
2.8103616813294234
2.744868035190616
2.6715542521994133
2.593352883675464
2.5112414467253177
2.4271749755620724
2.350928641251222
2.278592375366569
2.198435972629521
2.115347018572825
2.0303030303030303
1.945259042033236
1.8602150537634408
1.775171065493646
1.6901270772238517
1.607038123167155
1.5239491691104594
1.4428152492668622
1.375366568914956
1.316715542521994
1.2541544477028348
1.1925708699902249
1.1358748778103618
1.088954056695992
1.0527859237536656
1.0303030303030305
1.0224828934506354
1.0283479960899315
1.0478983382209188
1.0791788856304985
1.1202346041055715
1.1622678396871946
1.2052785923753666
1.252199413489736
1.2981427174975562
1.3411534701857282
1.3773216031280548
1.4066471163245358
1.4291300097751711
1.4437927663734116
1.452590420332356
1.456500488758553
1.456500488758553
1.4545454545454546
1.452590420332356
1.447702834799609
1.4408602150537635
1.4320625610948192
1.423264907135875
1.4134897360703813
1.4037145650048877
1.393939393939394
1.3841642228739004
1.3724340175953078
1.3558162267839686
1.3333333333333333
1.3128054740957966
1.2961876832844574
1.2854349951124144
1.2961876832844574
1.3440860215053765
1.4418377321603129
1.5933528836754642
1.7898338220918866
2.01564027370479
2.247311827956989
2.463343108504399
2.6451612903225805
2.771260997067449
2.850439882697948
2.902248289345064
2.9237536656891496
2.918866080156403
2.8914956011730206
2.84652981427175
2.789833822091887
2.724340175953079
2.652003910068426
2.5747800586510263
2.493646138807429
2.410557184750733
2.334310850439883
2.260997067448681
2.1808406647116323
2.0977517106549364
2.0127077223851417
1.927663734115347
1.8416422287390029
1.7556207233626588
1.6705767350928642
1.585532746823069
1.5024437927663734
1.4222873900293256
1.3558162267839686
1.2981427174975562
1.2375366568914956
1.1798631476050832
1.1280547409579669
1.0850439882697946
1.053763440860215
1.035190615835777
1.0312805474095796
1.0420332355816226
1.0664711632453567
1.1016617790811338
1.1407624633431086
1.1827956989247312
1.23069403714565
1.2795698924731185
1.3255131964809383
1.3665689149560116
1.401759530791789
1.4291300097751711
1.4496578690127078
1.4623655913978495
1.469208211143695
1.4711632453567938
1.469208211143695
1.466275659824047
1.4594330400782014
1.4486803519061584
1.4379276637341154
1.4271749755620724
1.4164222873900294
1.4066471163245358
1.3958944281524928
1.3861192570869991
1.3743890518084063
1.3587487781036167
1.33822091886608
1.3196480938416422
1.303030303030303
1.289345063538612
1.295210166177908
1.335288367546432
1.423264907135875
1.563049853372434
1.750733137829912
1.9716520039100685
2.204301075268817
2.4252199413489737
2.6148582600195502
2.7624633431085046
2.8563049853372435
2.9071358748778104
2.932551319648094
2.9315738025415445
2.909090909090909
2.8699902248289346
2.8181818181818183
2.7565982404692084
2.6881720430107525
2.613880742913001
2.535679374389052
2.4545454545454546
2.380254154447703
2.3098729227761488
2.231671554252199
2.150537634408602
2.067448680351906
1.9833822091886608
1.8983382209188664
1.8142717497556209
1.7302052785923754
1.6471163245356797
1.564027370478983
1.482893450635386
1.404692082111437
1.3411534701857282
1.2864125122189638
1.2287390029325511
1.1749755620723363
1.1290322580645162
1.0928641251221896
1.0694037145650048
1.0596285434995112
1.064516129032258
1.083088954056696
1.1133919843597262
1.1544477028347997
1.1964809384164223
1.2394916911045943
1.2864125122189638
1.3333333333333333
1.375366568914956
1.412512218963832
1.4428152492668622
1.4652981427174976
1.4819159335288368
1.4916911045943304
1.4965786901270772
1.4965786901270772
1.4936461388074291
1.4897360703812317
1.4848484848484849
1.47702834799609
1.4672531769305963
1.456500488758553
1.444770283479961
1.4330400782013686
1.4213098729227762
1.4086021505376345
1.392961876832845
1.3724340175953078
1.3479960899315735
1.327468230694037
1.313782991202346
1.3118279569892473
1.3391984359726294
1.4105571847507332
1.5347018572825024
1.7086999022482894
1.921798631476051
2.1524926686217007
2.378299120234604
2.5777126099706744
2.7370478983382207
2.850439882697948
2.913978494623656
2.9393939393939394
2.9393939393939394
2.917888563049853
2.878787878787879
2.8260019550342133
2.763440860215054
2.6940371456500487
2.618768328445748
2.5405669599217986
2.4594330400782014
2.376344086021505
2.3010752688172045
2.228739002932551
2.150537634408602
2.0684261974584555
1.9843597262952104
1.900293255131965
1.8162267839687196
1.7331378299120237
1.6500488758553276
1.5669599217986314
1.4858260019550342
1.4076246334310851
1.3333333333333333
1.2727272727272727
1.2218963831867058
1.1691104594330402
1.1202346041055715
1.0811339198435972
1.0527859237536656
1.0381231671554252
1.0381231671554252
1.0518084066471165
1.078201368523949
1.115347018572825
1.1593352883675463
1.203323558162268
1.2453567937438903
1.289345063538612
1.3304007820136852
1.367546432062561
1.3978494623655917
1.4213098729227762
1.4379276637341154
1.4486803519061584
1.4535679374389052
1.4535679374389052
1.4496578690127078
1.4437927663734116
1.4379276637341154
1.4320625610948192
1.423264907135875
1.412512218963832
1.401759530791789
1.3900293255131966
1.3782991202346042
1.3665689149560116
1.35386119257087
1.3372434017595307
1.316715542521994
1.29227761485826
1.2727272727272727
1.2609970674486803
1.2639296187683284
1.2961876832844574
1.3734115347018572
1.501466275659824
1.6774193548387095
1.8885630498533723
2.113391984359726
2.3304007820136854
2.5210166177908118
2.6715542521994133
2.7781036168132944
2.8377321603128056
2.8611925708699903
2.8611925708699903
2.841642228739003
2.8044965786901277
2.7546432062561097
2.6959921798631474
2.63049853372434
2.558162267839687
2.4819159335288368
2.403714565004888
2.32355816226784
2.2502443792766376
2.1808406647116323
2.104594330400782
2.024437927663734
1.943304007820137
1.86119257086999
1.7790811339198436
1.696969696969697
1.6148582600195502
1.533724340175953
1.4535679374389052
1.3763440860215057
1.303030303030303
1.2443792766373412
1.195503421309873
1.1466275659824048
1.1036168132942326
1.0703812316715542
1.0488758553274682
1.0410557184750733
1.0469208211143697
1.0654936461388074
1.0957966764418376
1.133919843597263
1.1788856304985338
1.2218963831867058
1.262952101661779
1.3049853372434017
1.3450635386119256
1.380254154447703
1.4086021505376345
1.4301075268817205
1.444770283479961
1.4535679374389052
1.457478005865103
1.457478005865103
1.4535679374389052
1.4486803519061584
1.4437927663734116
1.435972629521017
1.426197458455523
1.41544477028348
1.404692082111437
1.393939393939394
1.383186705767351
1.3714565004887584
1.3577712609970674
1.3401759530791788
1.3176930596285434
1.2932551319648091
1.2766373411534702
1.2727272727272727
1.29227761485826
1.3499511241446724
1.456500488758553
1.6138807429130009
1.8132942326490715
2.037145650048876
2.26197458455523
2.4672531769305963
2.6373411534701856
2.763440860215054
2.838709677419355
2.874877810361681
2.886608015640274
2.873900293255132
2.8426197458455524
2.7966764418377323
2.739980449657869
2.675464320625611
2.606060606060606
2.533724340175953
2.455522971652004
2.3734115347018574
2.290322580645161
2.21505376344086
2.1436950146627565
2.065493646138808
1.9843597262952104
1.9012707722385145
1.818181818181818
1.7341153470185728
1.6500488758553276
1.565982404692082
1.4838709677419355
1.4037145650048877
1.3264907135874875
1.2639296187683284
1.2111436950146628
1.1573802541544478
1.1085043988269794
1.0684261974584557
1.040078201368524
1.0254154447702837
1.0254154447702837
1.0391006842619743
1.0654936461388074
1.1026392961876832
1.147605083088954
1.195503421309873
1.2404692082111437
1.281524926686217
1.3225806451612905
1.3607038123167154
1.392961876832845
1.418377321603128
1.436950146627566
1.4496578690127078
1.455522971652004
1.456500488758553
1.4545454545454546
1.4496578690127078
1.4457478005865103
1.4408602150537635
1.4330400782013686
1.4242424242424243
1.41544477028348
1.4056695992179864
1.396871945259042
1.3870967741935485
1.375366568914956
1.3587487781036167
1.3372434017595307
1.3128054740957966
1.2932551319648091
1.2873900293255132
1.3040078201368523
1.3587487781036167
1.4623655913978495
1.6187683284457477
1.8211143695014664
2.050830889540567
2.2854349951124147
2.5024437927663734
2.6832844574780057
2.819159335288368
2.90811339198436
2.952101661779081
2.961876832844575
2.949169110459433
2.916911045943304
2.8690127077223853
2.8103616813294234
2.742913000977517
2.6695992179863146
2.592375366568915
2.512218963831867
2.4301075268817205
2.346041055718475
2.260997067448681
2.185728250244379
2.114369501466276
2.0361681329423265
1.95405669599218
1.870967741935484
1.7878787878787878
1.7038123167155426
1.619745845552297
1.5376344086021505
1.456500488758553
1.3782991202346042
1.303030303030303
1.2434017595307918
1.1935483870967742
1.144672531769306
1.1016617790811338
1.0684261974584557
1.0478983382209188
1.0420332355816226
1.050830889540567
1.0733137829912025
1.1065493646138806
1.1485826001955035
1.1964809384164223
1.24633431085044
1.2903225806451613
1.3294232649071358
1.3665689149560116
1.3998044965786902
1.426197458455523
1.4467253176930597
1.4604105571847508
1.4682306940371457
1.4711632453567938
1.4701857282502444
1.4652981427174976
1.458455522971652
1.4516129032258065
1.444770283479961
1.4349951124144673
1.423264907135875
1.4115347018572826
1.3998044965786902
1.3870967741935485
1.3734115347018572
1.356793743890518
1.335288367546432
1.3088954056695992
1.2825024437927663
1.2658846529814272
1.2658846529814272
1.29227761485826
1.3616813294232648
1.482893450635386
1.6549364613880744
1.866080156402737
2.096774193548387
2.324535679374389
2.5268817204301075
2.689149560117302
2.806451612903226
2.878787878787879
2.9100684261974585
2.9120234604105573
2.89247311827957
2.8563049853372435
2.806451612903226
2.745845552297165
2.678396871945259
2.6050830889540566
2.5268817204301075
2.444770283479961
2.360703812316716
2.275659824046921
2.189638318670577
2.112414467253177
2.040078201368524
1.9608993157380252
1.8797653958944285
1.796676441837732
1.7135874877810362
1.6304985337243405
1.547409579667644
1.4652981427174976
1.3851417399804498
1.3088954056695992
1.2375366568914956
1.181818181818182
1.1378299120234605
1.0948191593352885
1.0596285434995112
1.035190615835777
1.024437927663734
1.0263929618768328
1.0420332355816226
1.0694037145650048
1.1055718475073313
1.1485826001955035
1.195503421309873
1.238514173998045
1.2776148582600195
1.3157380254154447
1.3509286412512218
1.380254154447703
1.4027370478983383
1.4193548387096775
1.4291300097751711
1.434017595307918
1.434017595307918
1.43108504398827
1.4252199413489737
1.418377321603128
1.412512218963832
1.4066471163245358
1.3978494623655917
1.388074291300098
1.3773216031280548
1.367546432062561
1.356793743890518
1.3450635386119256
1.3284457478005864
1.3079178885630498
1.2834799608993157
1.2609970674486803
1.249266862170088
1.2570869990224829
1.2961876832844574
1.3812316715542523
1.5180840664711632
1.7038123167155426
1.9237536656891496
2.157380254154448
2.380254154447703
2.573802541544477
2.7253176930596283
2.83088954056696
2.8914956011730206
2.913978494623656
2.909090909090909
2.884652981427175
2.843597262952102
2.789833822091887
2.7262952101661777
2.654936461388074
2.579667644183773
2.5004887585532747
2.419354838709677
2.3362658846529816
2.2521994134897363
2.175953079178885
2.104594330400782
2.0254154447702835
1.9423264907135875
1.858260019550342
1.7732160312805474
1.6881720430107527
1.603128054740958
1.520039100684262
1.4379276637341154
1.3587487781036167
1.2834799608993157
1.2140762463343109
1.160312805474096
1.118279569892473
1.078201368523949
1.0469208211143697
1.0263929618768328
1.0195503421309873
1.0254154447702837
1.0449657869012707
1.0762463343108504
1.115347018572825
1.160312805474096
1.2082111436950147
1.252199413489736
1.2913000977517106
1.3284457478005864
1.3616813294232648
1.3890518084066472
1.4105571847507332
1.4252199413489737
1.4349951124144673
1.4389051808406648
1.4389051808406648
1.4349951124144673
1.4291300097751711
1.4222873900293256
1.4164222873900294
1.4105571847507332
1.4027370478983383
1.393939393939394
1.3851417399804498
1.375366568914956
1.364613880742913
1.3499511241446724
1.3313782991202343
1.3079178885630498
1.2825024437927663
1.2658846529814272
1.2649071358748778
1.289345063538612
1.3548387096774193
1.4721407624633431
1.640273704789834
1.8494623655913975
2.081133919843597
2.3118279569892475
2.5190615835777126
2.689149560117302
2.8132942326490715
2.89247311827957
2.930596285434995
2.936461388074292
2.917888563049853
2.8826979472140764
2.832844574780059
2.773216031280548
2.7067448680351904
2.633431085043988
2.555229716520039
2.4731182795698925
2.3900293255131966
2.304985337243402
2.218963831867057
2.1417399804496577
2.069403714565005
1.9902248289345064
1.9071358748778104
1.823069403714565
1.7390029325513197
1.653958944281525
1.5698924731182795
1.487781036168133
1.4086021505376345
1.332355816226784
1.2609970674486803
1.195503421309873
1.1456500488758554
1.10752688172043
1.0733137829912025
1.0478983382209188
1.0342130987292275
1.0342130987292275
1.0478983382209188
1.0742913000977516
1.1124144672531768
1.1583577712609971
1.2082111436950147
1.2590420332355816
1.303030303030303
1.3421309872922775
1.3782991202346042
1.409579667644184
1.4349951124144673
1.4535679374389052
1.4652981427174976
1.4721407624633431
1.474095796676442
1.4721407624633431
1.4672531769305963
1.4594330400782014
1.4496578690127078
1.4418377321603129
1.4349951124144673
1.426197458455523
1.4164222873900294
1.4066471163245358
1.3949169110459434
1.3812316715542523
1.3636363636363635
1.3411534701857282
1.316715542521994
1.2971652003910068
1.2961876832844574
1.316715542521994
1.370478983382209
1.47702834799609
1.6383186705767352
1.844574780058651
2.0772238514174
2.3118279569892475
2.5268817204301075
2.704789833822092
2.835777126099707
2.919843597262952
2.961876832844575
2.9687194525904204
2.952101661779081
2.917888563049853
2.868035190615836
2.8084066471163247
2.740957966764418
2.6666666666666665
2.587487781036168
2.506353861192571
2.4222873900293256
2.337243401759531
2.251221896383187
2.1652003910068425
2.0879765395894427
2.016617790811339
1.9374389051808407
1.855327468230694
1.772238514173998
1.689149560117302
1.606060606060606
1.52297165200391
1.4418377321603129
1.3626588465298142
1.2873900293255132
1.2179863147605083
1.1564027370478984
1.110459433040078
1.0772238514173995
1.0498533724340176
1.0332355816226784
1.029325513196481
1.0381231671554252
1.0586510263929618
1.0909090909090908
1.130987292277615
1.1759530791788857
1.2218963831867058
1.2668621700879763
1.3049853372434017
1.3372434017595307
1.3655913978494625
1.3900293255131966
1.4086021505376345
1.4203323558162269
1.4271749755620724
1.4291300097751711
1.4271749755620724
1.4222873900293256
1.414467253176931
1.404692082111437
1.396871945259042
1.3900293255131966
1.3812316715542523
1.3714565004887584
1.3616813294232648
1.3509286412512218
1.3401759530791788
1.327468230694037
1.3098729227761483
1.2883675464320623
1.262952101661779
1.2424242424242424
1.2375366568914956
1.2531769305962854
1.3010752688172045
1.3998044965786902
1.552297165200391
1.750733137829912
1.9794721407624636
2.2140762463343107
2.4330400782013686
2.6177908113391983
2.757575757575758
2.849462365591398
2.8993157380254155
2.913978494623656
2.902248289345064
2.870967741935484
2.825024437927664
2.7673509286412514
2.7008797653958942
2.627565982404692
2.550342130987292
2.4701857282502444
2.388074291300098
2.304007820136853
2.218963831867057
2.132942326490713
2.0557184750733137
1.9843597262952104
1.906158357771261
1.8240469208211143
1.7409579667644184
1.656891495601173
1.5728250244379276
1.4897360703812317
1.4086021505376345
1.3304007820136852
1.2570869990224829
1.1906158357771262
1.13880742913001
1.0987292277614855
1.06158357771261
1.032258064516129
1.0146627565982405
1.010752688172043
1.0205278592375366
1.0439882697947214
1.078201368523949
1.1202346041055715
1.1681329423264908
1.2179863147605083
1.2658846529814272
1.3069403714565004
1.3421309872922775
1.3743890518084063
1.4007820136852396
1.4203323558162269
1.434017595307918
1.4408602150537635
1.4437927663734116
1.4418377321603129
1.436950146627566
1.4301075268817205
1.4222873900293256
1.41544477028348
1.4086021505376345
1.3998044965786902
1.3900293255131966
1.3792766373411536
1.3685239491691104
1.356793743890518
1.3421309872922775
1.3235581622678396
1.3010752688172045
1.2766373411534702
1.2590420332355816
1.2609970674486803
1.2854349951124144
1.343108504398827
1.4535679374389052
1.6177908113391983
1.826001955034213
2.058651026392962
2.291300097751711
2.5024437927663734
2.6725317693059627
2.795698924731183
2.873900293255132
2.9120234604105573
2.917888563049853
2.8993157380254155
2.8641251221896384
2.81622678396872
2.7565982404692084
2.689149560117302
2.616813294232649
2.539589442815249
2.4594330400782014
2.377321603128055
2.2932551319648096
2.2082111436950145
2.121212121212121
2.0449657869012707
1.9726295210166176
1.8934506353861196
1.8113391984359728
1.7272727272727273
1.643206256109482
1.560117302052786
1.478005865102639
1.3978494623655917
1.3206256109481915
1.2482893450635386
1.1827956989247312
1.1319648093841643
1.0928641251221896
1.056695992179863
1.029325513196481
1.0127077223851415
1.010752688172043
1.0224828934506354
1.0469208211143697
1.0821114369501466
1.1251221896383188
1.1730205278592376
1.2228739002932552
1.270772238514174
1.3118279569892473
1.346041055718475
1.3773216031280548
1.4027370478983383
1.4213098729227762
1.434017595307918
1.4418377321603129
1.444770283479961
1.4437927663734116
1.439882697947214
1.434017595307918
1.426197458455523
1.4203323558162269
1.414467253176931
1.4066471163245358
1.3978494623655917
1.388074291300098
1.3782991202346042
1.3665689149560116
1.3509286412512218
1.3304007820136852
1.305962854349951
1.284457478005865
1.278592375366569
1.3010752688172045
1.348973607038123
1.4330400782013686
1.5747800586510263
1.7663734115347018
1.991202346041056
2.2267839687194524
2.449657869012708
2.6402737047898337
2.787878787878788
2.887585532746823
2.943304007820137
2.962854349951124
2.95405669599218
2.9257086999022484
2.881720430107527
2.8269794721407626
2.763440860215054
2.69208211143695
2.6158357771261
2.5347018572825024
2.450635386119257
2.3655913978494625
2.278592375366569
2.190615835777126
2.102639296187683
2.024437927663734
1.951124144672532
1.871945259042033
1.7888563049853372
1.704789833822092
1.6207233626588464
1.5376344086021505
1.456500488758553
1.3782991202346042
1.3040078201368523
1.2336265884652982
1.1700879765395895
1.1231671554252198
1.0879765395894427
1.0576735092864125
1.0371456500488758
1.0283479960899315
1.0332355816226784
1.0518084066471165
1.0821114369501466
1.1221896383186705
1.1691104594330402
1.2179863147605083
1.2658846529814272
1.310850439882698
1.348973607038123
1.380254154447703
1.4076246334310851
1.4291300097751711
1.4437927663734116
1.452590420332356
1.456500488758553
1.456500488758553
1.452590420332356
1.4467253176930597
1.4379276637341154
1.4281524926686218
1.4203323558162269
1.4134897360703813
1.404692082111437
1.393939393939394
1.3841642228739004
1.3724340175953078
1.3587487781036167
