ppg
3.046920821114369
3.06158357771261
3.070381231671554
3.071358748778104
3.064516129032258
3.0498533724340176
3.03128054740958
3.010752688172043
2.9872922776148583
2.962854349951124
2.93841642228739
2.913000977517106
2.886608015640274
2.8582600195503423
2.827956989247312
2.7966764418377323
2.763440860215054
2.727272727272727
2.687194525904203
2.6422287390029324
2.593352883675464
2.539589442815249
2.4780058651026398
2.409579667644184
2.332355816226784
2.259042033235582
2.1837732160312804
2.0948191593352883
1.9990224828934504
1.9012707722385145
1.8054740957966764
1.7174975562072337
1.6422287390029326
1.5826001955034212
1.5395894428152492
1.5131964809384164
1.498533724340176
1.4916911045943304
1.4897360703812317
1.4887585532746823
1.4858260019550342
1.478983382209189
1.4701857282502444
1.4604105571847508
1.4496578690127078
1.435972629521017
1.4242424242424243
1.41544477028348
1.404692082111437
1.393939393939394
1.3851417399804498
1.3773216031280548
1.364613880742913
1.3499511241446724
1.3343108504398826
1.3176930596285434
1.3020527859237536
1.2854349951124144
1.2717497556207231
1.262952101661779
1.2551319648093842
1.2502443792766371
1.2473118279569892
1.2443792766373412
1.2404692082111437
1.2346041055718475
1.2287390029325511
1.2238514173998043
1.219941348973607
1.2160312805474096
1.2121212121212122
1.2101661779081134
1.209188660801564
1.209188660801564
1.209188660801564
1.2121212121212122
1.2189638318670577
1.227761485826002
1.2346041055718475
1.241446725317693
1.252199413489736
1.2639296187683284
1.270772238514174
1.2746823069403714
1.2746823069403714
1.2727272727272727
1.273704789833822
1.2805474095796676
1.3010752688172045
1.346041055718475
1.469208211143695
1.66177908113392
1.865102639296188
2.075268817204301
2.161290322580645
2.163245356793744
2.219941348973607
2.291300097751711
2.356793743890518
2.4027370478983383
2.432062561094819
2.4574780058651027
2.4750733137829912
2.4838709677419355
2.484848484848485
2.4789833822091887
2.4672531769305963
2.450635386119257
2.432062561094819
2.4115347018572826
2.391006842619746
2.3704789833822093
2.3489736070381237
2.329423264907136
2.3098729227761488
2.289345063538612
2.267839687194526
2.244379276637341
2.217986314760508
2.188660801564027
2.155425219941349
2.118279569892473
2.0772238514174
2.0332355816226784
1.9902248289345064
1.945259042033236
1.89247311827957
1.8318670576735088
1.7624633431085044
1.686217008797654
1.606060606060606
1.5239491691104594
1.4467253176930597
1.3782991202346042
1.321603128054741
1.2795698924731185
1.2531769305962854
1.238514173998045
1.23069403714565
1.2287390029325511
1.2297165200391007
1.23069403714565
1.2297165200391007
1.2267839687194526
1.2209188660801564
1.2140762463343109
1.206256109481916
1.198435972629521
1.1896383186705768
1.1837732160312806
1.1779081133919844
1.1710654936461389
1.1622678396871946
1.152492668621701
1.142717497556207
1.130987292277615
1.118279569892473
1.1055718475073313
1.0928641251221896
1.0791788856304985
1.0654936461388074
1.0557184750733135
1.0478983382209188
1.0381231671554252
1.029325513196481
1.021505376344086
1.0156402737047898
1.010752688172043
1.0068426197458455
1.0039100684261977
1.0019550342130987
0.9980449657869012
0.9941348973607038
0.9912023460410556
0.9912023460410556
0.9921798631476052
0.9921798631476052
0.9921798631476052
0.9941348973607038
0.997067448680352
1.0009775171065494
1.0068426197458455
1.013685239491691
1.0205278592375366
1.0263929618768328
1.0303030303030305
1.0342130987292275
1.0391006842619743
1.0488758553274682
1.067448680351906
1.1036168132942326
1.1652003910068427
1.2551319648093842
1.3714565004887584
1.5102639296187683
1.66177908113392
1.8162267839687196
1.9618768328445748
2.090909090909091
2.1867057673509285
2.257086999022483
2.318670576735093
2.366568914956012
2.39980449657869
2.419354838709677
2.4271749755620724
2.426197458455523
2.418377321603128
2.404692082111437
2.388074291300098
2.36950146627566
2.3489736070381237
2.3284457478005867
2.3088954056695994
2.289345063538612
2.269794721407625
2.249266862170088
2.228739002932551
2.2052785923753664
2.179863147605083
2.1515151515151514
2.121212121212121
2.0879765395894427
2.0527859237536656
2.0175953079178885
1.981427174975562
1.93841642228739
1.8885630498533723
1.8299120234604105
1.7634408602150538
1.6911045943304008
1.6138807429130009
1.533724340175953
1.4545454545454546
1.3812316715542523
1.3186705767350928
1.2727272727272727
1.241446725317693
1.2179863147605083
1.2043010752688172
1.198435972629521
1.1974584555229717
1.198435972629521
1.198435972629521
1.1974584555229717
1.1945259042033236
1.1886608015640274
1.181818181818182
1.1749755620723363
1.1700879765395895
1.1652003910068427
1.1573802541544478
1.1485826001955035
1.1378299120234605
1.126099706744868
1.1143695014662756
1.1026392961876832
1.0899315738025417
1.0772238514173995
1.064516129032258
1.0527859237536656
1.0439882697947214
1.0361681329423265
1.0273704789833822
1.018572825024438
1.0097751710654936
1.0
0.9902248289345064
0.9804496578690128
0.9706744868035192
0.9618768328445748
0.9530791788856304
0.9442815249266864
0.9393939393939394
0.935483870967742
0.9305962854349952
0.9257086999022482
0.9208211143695014
0.9149560117302052
0.9100684261974584
0.906158357771261
0.9042033235581622
0.9032258064516128
0.9022482893450636
0.9012707722385142
0.8993157380254154
0.8993157380254154
0.9002932551319648
0.8983382209188661
0.895405669599218
0.8963831867057673
0.906158357771261
0.9315738025415444
0.9794721407624634
1.0557184750733135
1.1612903225806452
1.2913000977517106
1.436950146627566
1.5679374389051808
1.6881720430107527
1.8132942326490715
1.9286412512218964
2.026392961876833
2.104594330400782
2.163245356793744
2.204301075268817
2.23069403714565
2.2453567937438903
2.251221896383187
2.249266862170088
2.241446725317693
2.2297165200391005
2.21505376344086
2.20039100684262
2.185728250244379
2.172043010752688
2.156402737047898
2.139784946236559
2.1221896383186705
2.102639296187683
2.081133919843597
2.056695992179863
2.0283479960899315
2.0
1.9696969696969695
1.935483870967742
1.8973607038123168
1.8533724340175952
1.804496578690127
1.7487781036168133
1.6871945259042034
1.6177908113391983
1.542521994134897
1.4643206256109482
1.3851417399804498
1.3079178885630498
1.2453567937438903
1.1964809384164223
1.152492668621701
1.1192570869990224
1.0977517106549364
1.0869990224828934
1.0840664711632453
1.0840664711632453
1.086021505376344
1.0879765395894427
1.0869990224828934
1.0850439882697946
1.0840664711632453
1.083088954056696
1.1192570869990224
1.1749755620723363
1.2023460410557183
1.2140762463343109
1.217008797653959
1.2160312805474096
1.2121212121212122
1.2052785923753666
1.195503421309873
1.1837732160312806
1.1691104594330402
1.1573802541544478
1.1466275659824048
1.1319648093841643
1.115347018572825
1.099706744868035
1.083088954056696
1.067448680351906
1.053763440860215
1.040078201368524
1.0283479960899315
1.0175953079178883
1.0087976539589445
1.0058651026392962
1.0058651026392962
1.0058651026392962
1.0058651026392962
1.007820136852395
1.0097751710654936
1.0127077223851415
1.0175953079178883
1.0234604105571847
1.032258064516129
1.0420332355816226
1.0518084066471165
1.06158357771261
1.072336265884653
1.0821114369501466
1.0879765395894427
1.0918866080156402
1.0977517106549364
1.1133919843597262
1.1485826001955035
1.2111436950146628
1.3079178885630498
1.4408602150537635
1.6050830889540566
1.7927663734115349
1.962854349951124
2.1192570869990224
2.2854349951124147
2.441837732160313
2.5777126099706744
2.6881720430107525
2.773216031280548
2.835777126099707
2.877810361681329
2.903225806451613
2.9159335288367547
2.918866080156403
2.913978494623656
2.900293255131965
2.8807429130009776
2.859237536656892
2.8367546432062563
2.8132942326490715
2.789833822091887
2.7673509286412514
2.7438905180840663
2.719452590420332
2.6930596285435
2.6637341153470184
2.63049853372434
2.5962854349951123
2.558162267839687
2.5131964809384164
2.4613880742913
2.4027370478983383
2.3362658846529816
2.260997067448681
2.175953079178885
2.0821114369501466
1.9824046920821117
1.8807429130009776
1.782991202346041
1.694037145650049
1.624633431085044
1.5708699902248289
1.525904203323558
1.4926686217008798
1.469208211143695
1.452590420332356
1.439882697947214
1.4281524926686218
1.4173998044965788
1.4056695992179864
1.392961876832845
1.3782991202346042
1.3655913978494625
1.3558162267839686
1.3440860215053765
1.3313782991202343
1.3176930596285434
1.3040078201368523
1.2903225806451613
1.2766373411534702
1.2649071358748778
1.2531769305962854
1.2394916911045943
1.224828934506354
1.2101661779081134
1.2003910068426198
1.1925708699902249
1.1827956989247312
1.1720430107526882
1.1622678396871946
1.1534701857282503
1.1436950146627567
1.133919843597263
1.1241446725317692
1.1143695014662756
1.1055718475073313
1.0987292277614855
1.0948191593352885
1.0948191593352885
1.0948191593352885
1.0948191593352885
1.0928641251221896
1.0909090909090908
1.088954056695992
1.086021505376344
1.0850439882697946
1.0840664711632453
1.0840664711632453
1.0840664711632453
1.086021505376344
1.0918866080156402
1.1006842619745845
1.1085043988269794
1.1173020527859236
1.1251221896383188
1.1329423264907137
1.13880742913001
1.142717497556207
1.1495601173020529
1.166177908113392
1.2003910068426198
1.262952101661779
1.3421309872922775
1.444770283479961
1.5923753665689149
1.7741935483870968
1.975562072336266
2.182795698924731
2.3812316715542523
2.558162267839687
2.70772238514174
2.827956989247312
2.920821114369501
2.9902248289345064
3.0303030303030303
3.0518084066471163
3.0664711632453567
3.072336265884653
3.071358748778104
3.0635386119257086
3.050830889540567
3.034213098729228
3.016617790811339
2.99902248289345
2.9804496578690127
2.959921798631476
2.93841642228739
2.913000977517106
2.8836754643206257
2.852394916911046
2.817204301075269
2.779081133919844
2.7370478983382207
2.69208211143695
2.643206256109482
2.591397849462365
2.535679374389052
2.4731182795698925
2.403714565004888
2.3362658846529816
2.264907135874878
2.1788856304985336
2.081133919843597
1.9765395894428155
1.870967741935484
1.76930596285435
1.6774193548387095
1.5992179863147604
1.5386119257087
1.4946236559139785
1.4652981427174976
1.447702834799609
1.4389051808406648
1.434017595307918
1.4301075268817205
1.426197458455523
1.4213098729227762
1.4134897360703813
1.404692082111437
1.3949169110459434
1.3841642228739004
1.3734115347018572
1.3626588465298142
1.3528836754643203
1.3470185728250244
1.3411534701857282
1.3313782991202343
1.3196480938416422
1.3069403714565004
1.2932551319648091
1.2795698924731185
1.2658846529814272
1.252199413489736
1.2404692082111437
1.2287390029325511
1.2179863147605083
1.2082111436950147
1.203323558162268
1.2013685239491692
1.1974584555229717
1.1925708699902249
1.187683284457478
1.1837732160312806
1.1798631476050832
1.176930596285435
1.1749755620723363
1.1759530791788857
1.176930596285435
1.1779081133919844
1.1808406647116323
1.1857282502443791
1.1915933528836755
1.198435972629521
1.2072336265884651
1.217008797653959
1.2258064516129032
1.2326490713587488
1.238514173998045
1.2434017595307918
1.2453567937438903
1.2443792766373412
1.2443792766373412
1.2482893450635386
1.262952101661779
1.2942326490713587
1.35386119257087
1.447702834799609
1.5777126099706744
1.7380254154447703
1.919843597262952
2.096774193548387
2.260019550342131
2.4144672531769307
2.550342130987292
2.650048875855328
2.7233626588465296
2.7869012707722387
2.835777126099707
2.8690127077223853
2.889540566959922
2.898338220918866
2.898338220918866
2.8905180840664717
2.877810361681329
2.86217008797654
2.843597262952102
2.825024437927664
2.8044965786901277
2.7839687194525906
2.7653958944281527
2.7468230694037143
2.727272727272727
2.705767350928641
2.6803519061583576
2.652003910068426
2.619745845552297
2.582600195503421
2.5405669599217986
2.4946236559139785
2.4486803519061584
2.39980449657869
2.345063538611926
2.2854349951124147
2.2170087976539588
2.1407624633431084
2.056695992179863
1.9667644183773216
1.873900293255132
1.782991202346041
1.699902248289345
1.629521016617791
1.573802541544477
1.5356793743890518
1.5112414467253177
1.4946236559139785
1.4848484848484849
1.478005865102639
1.4731182795698925
1.469208211143695
1.4643206256109482
1.456500488758553
1.4467253176930597
1.435972629521017
1.4242424242424243
1.41544477028348
1.4066471163245358
1.3949169110459434
1.3812316715542523
1.367546432062561
1.35386119257087
1.3401759530791788
1.327468230694037
1.313782991202346
1.2981427174975562
1.2825024437927663
1.267839687194526
1.2551319648093842
1.2473118279569892
1.241446725317693
1.2336265884652982
1.2238514173998043
1.2150537634408602
1.2082111436950147
1.2023460410557183
1.1964809384164223
1.1915933528836755
1.1867057673509287
1.1808406647116323
1.1759530791788857
1.1749755620723363
1.1749755620723363
1.173998044965787
1.173998044965787
1.173998044965787
1.1749755620723363
1.1779081133919844
1.1837732160312806
1.1915933528836755
1.2013685239491692
1.2121212121212122
1.2238514173998043
1.2346041055718475
1.2443792766373412
1.2512218963831867
1.2531769305962854
1.2531769305962854
1.2561094819159335
1.2697947214076246
1.3040078201368523
1.367546432062561
1.4643206256109482
1.5943304007820136
1.7517106549364614
1.9266862170087975
2.083088954056696
2.222873900293255
2.3685239491691106
2.5024437927663734
2.6158357771261
2.705767350928641
2.773216031280548
2.819159335288368
2.84652981427175
2.860215053763441
2.863147605083089
2.857282502443793
2.8455522971652005
2.8269794721407626
2.8054740957966766
2.7839687194525906
2.764418377321604
2.744868035190616
2.724340175953079
2.7038123167155423
2.6823069403714563
2.658846529814272
2.632453567937439
2.6041055718475072
2.572825024437928
2.5405669599217986
2.506353861192571
2.469208211143695
2.4281524926686218
2.3822091886608017
2.3313782991202348
2.275659824046921
2.2140762463343107
2.145650048875855
2.069403714565005
1.986314760508309
1.8973607038123168
1.8162267839687196
1.7409579667644184
1.6608015640273706
1.5865102639296187
1.52297165200391
1.4731182795698925
1.4389051808406648
1.4173998044965788
1.4066471163245358
1.4027370478983383
1.401759530791789
1.3998044965786902
1.3958944281524928
1.3919843597262953
1.3870967741935485
1.3792766373411536
1.3714565004887584
1.3636363636363635
1.3548387096774193
1.346041055718475
1.33822091886608
1.3284457478005864
1.3176930596285434
1.3049853372434017
1.2913000977517106
1.2805474095796676
1.270772238514174
1.2590420332355816
1.2482893450635386
1.2375366568914956
1.227761485826002
1.2179863147605083
1.2101661779081134
1.203323558162268
1.1974584555229717
1.1915933528836755
1.1867057673509287
1.1808406647116323
1.1779081133919844
1.176930596285435
1.1749755620723363
1.173998044965787
1.173998044965787
1.173998044965787
1.173998044965787
1.173998044965787
1.173998044965787
1.1759530791788857
1.1788856304985338
1.1827956989247312
1.1886608015640274
1.1974584555229717
1.2082111436950147
1.2218963831867058
1.2346041055718475
1.24633431085044
1.2541544477028348
1.2570869990224829
1.2570869990224829
1.2580645161290325
1.267839687194526
1.295210166177908
1.3470185728250244
1.4134897360703813
1.501466275659824
1.6285434995112416
1.7859237536656891
1.959921798631476
2.1378299120234603
2.3059628543499517
2.455522971652004
2.579667644183773
2.67644183773216
2.747800586510264
2.7976539589442817
2.8240469208211145
2.834799608993157
2.838709677419355
2.834799608993157
2.825024437927664
2.809384164222874
2.789833822091887
2.768328445747801
2.745845552297165
2.724340175953079
2.7038123167155423
2.6832844574780057
2.66177908113392
2.6373411534701856
2.6099706744868034
2.5806451612903225
2.547409579667644
2.5112414467253177
2.4711632453567938
2.429130009775171
2.383186705767351
2.333333333333333
2.278592375366569
2.219941348973607
2.1544477028347995
2.089931573802541
2.022482893450636
1.9403714565004888
1.847507331378299
1.7487781036168133
1.6490713587487782
1.5542521994134897
1.4682306940371457
1.396871945259042
1.3421309872922775
1.3020527859237536
1.2746823069403714
1.2551319648093842
1.2434017595307918
1.2365591397849462
1.1867057673509287
1.1133919843597262
1.0664711632453567
1.032258064516129
1.0058651026392962
0.9843597262952102
0.9667644183773216
0.9501466275659824
0.9345063538611924
0.919843597262952
0.9110459433040078
0.9051808406647116
0.8963831867057673
0.8856304985337243
0.8719452590420332
0.8563049853372434
0.8396871945259042
0.8240469208211144
0.8064516129032258
0.7869012707722385
0.7663734115347018
0.7478005865102639
0.7321603128054741
0.7233626588465298
0.7174975562072337
0.7096774193548387
0.7018572825024438
0.6950146627565983
0.6901270772238515
0.6881720430107527
0.6862170087976539
0.6832844574780058
0.6803519061583577
0.6764418377321603
0.6725317693059628
0.6735092864125122
0.678396871945259
0.6803519061583577
0.6823069403714564
0.6852394916911045
0.6911045943304008
0.7008797653958945
0.7135874877810362
0.7272727272727273
0.7409579667644184
0.7546432062561095
0.7663734115347018
0.7761485826001955
0.7849462365591398
0.7947214076246334
0.8074291300097751
0.8318670576735093
0.8797653958944281
0.959921798631476
1.078201368523949
1.2365591397849462
1.4301075268817205
1.6471163245356797
1.871945259042033
2.088954056695992
2.264907135874878
2.4056695992179864
2.5386119257087
2.6510263929618767
2.7370478983382207
2.7996089931573804
2.841642228739003
2.865102639296188
2.874877810361681
2.873900293255132
2.8641251221896384
2.8484848484848486
2.83088954056696
2.8084066471163247
2.782991202346041
2.758553274682307
2.7341153470185726
2.708699902248289
2.681329423264907
2.652003910068426
2.619745845552297
2.582600195503421
2.5405669599217986
2.4946236559139785
2.444770283479961
2.3949169110459434
2.343108504398827
2.283479960899316
2.2160312805474094
2.1388074291300097
2.0518084066471163
1.9560117302052784
1.8504398826979471
1.7380254154447703
1.6256109481915937
1.520039100684262
1.4271749755620724
1.3587487781036167
1.3098729227761483
1.2727272727272727
1.2502443792766371
1.2394916911045943
1.2375366568914956
1.2394916911045943
1.241446725317693
1.241446725317693
1.2394916911045943
1.2346041055718475
1.2258064516129032
1.2160312805474096
1.2082111436950147
1.2043010752688172
1.1994134897360704
1.1935483870967742
1.1867057673509287
1.1788856304985338
1.1691104594330402
1.1564027370478984
1.1397849462365592
1.121212121212121
1.1006842619745845
1.0791788856304985
1.0625610948191593
1.0478983382209188
1.0303030303030305
1.0127077223851415
0.9951124144672532
0.9794721407624634
0.9638318670576737
0.9491691104594332
0.9345063538611924
0.9227761485826002
0.913978494623656
0.9071358748778104
0.9022482893450636
0.9022482893450636
0.9051808406647116
0.9071358748778104
0.9081133919843596
0.9100684261974584
0.913978494623656
0.9188660801564028
0.9257086999022482
0.9345063538611924
0.9442815249266864
0.956989247311828
0.9706744868035192
0.9843597262952102
0.997067448680352
1.0058651026392962
1.0127077223851415
1.0156402737047898
1.0205278592375366
1.0342130987292275
1.067448680351906
1.1290322580645162
1.227761485826002
1.3655913978494625
1.5405669599217986
1.7429130009775171
1.9296187683284456
2.102639296187683
2.289345063538612
2.466275659824047
2.619745845552297
2.744868035190616
2.841642228739003
2.913000977517106
2.961876832844575
2.992179863147605
3.007820136852395
3.0117302052785924
3.003910068426197
2.9872922776148583
2.9687194525904204
2.948191593352884
2.927663734115347
2.905180840664712
2.881720430107527
2.855327468230694
2.825024437927664
2.791788856304985
2.755620723362659
2.7155425219941347
2.6725317693059627
2.6295210166177907
2.5865102639296187
2.5376344086021505
2.482893450635386
2.4222873900293256
2.355816226783969
2.281524926686217
2.198435972629521
2.10752688172043
2.007820136852395
1.900293255131965
1.7869012707722385
1.686217008797654
1.5933528836754642
1.4965786901270772
1.4066471163245358
1.3313782991202343
1.2746823069403714
1.2346041055718475
1.2101661779081134
1.195503421309873
1.1867057673509287
1.1788856304985338
1.1700879765395895
1.160312805474096
1.1515151515151516
1.1436950146627567
1.1319648093841643
1.1202346041055715
1.110459433040078
1.1016617790811338
1.093841642228739
1.086021505376344
1.078201368523949
1.0694037145650048
1.0586510263929618
1.0478983382209188
1.040078201368524
1.0342130987292275
1.024437927663734
1.0146627565982405
1.0048875855327468
0.9960899315738024
0.9882697947214076
0.981427174975562
0.9765395894428152
0.9726295210166178
0.9696969696969696
0.9667644183773216
0.9638318670576737
0.9638318670576737
0.9648093841642228
0.9638318670576737
0.9628543499511242
0.9618768328445748
0.9608993157380256
0.9618768328445748
0.9628543499511242
0.9648093841642228
0.9667644183773216
0.9696969696969696
0.9736070381231672
0.9804496578690128
0.989247311827957
0.9990224828934506
1.0097751710654936
1.0224828934506354
1.0371456500488758
1.0518084066471165
1.0664711632453567
1.078201368523949
1.152492668621701
1.2570869990224829
1.3098729227761483
1.343108504398827
1.3714565004887584
1.4086021505376345
1.4711632453567938
1.5669599217986314
1.696969696969697
1.858260019550342
2.042033235581622
2.233626588465298
2.420332355816227
2.589442815249267
2.735092864125122
2.852394916911046
2.9315738025415445
2.9824046920821115
3.024437927663734
3.0547409579667644
3.072336265884653
3.081133919843597
3.0821114369501466
3.0772238514174
3.067448680351906
3.053763440860215
3.0361681329423265
3.016617790811339
2.9960899315738025
2.972629521016618
2.948191593352884
2.924731182795699
2.9012707722385143
2.87683284457478
2.850439882697948
2.820136852394917
2.7869012707722387
2.7497556207233624
2.708699902248289
2.662756598240469
2.6129032258064515
2.563049853372434
2.5112414467253177
2.450635386119257
2.3812316715542523
2.303030303030303
2.2170087976539588
2.124144672531769
2.029325513196481
1.9335288367546437
1.8435972629521016
1.7653958944281525
1.7008797653958945
1.6529814271749756
1.6236559139784943
1.607038123167155
1.598240469208211
1.5943304007820136
1.5913978494623655
1.5884652981427174
1.5835777126099706
1.5757575757575757
1.565982404692082
1.555229716520039
1.544477028347996
1.5347018572825024
1.5278592375366569
1.521016617790811
1.5131964809384164
1.504398826979472
1.4936461388074291
1.479960899315738
1.466275659824047
1.4516129032258065
1.4379276637341154
1.4252199413489737
1.412512218963832
1.3998044965786902
1.391006842619746
1.383186705767351
1.3734115347018572
1.3636363636363635
1.35386119257087
1.3440860215053765
1.3333333333333333
1.3235581622678396
1.3157380254154447
1.3088954056695992
1.3040078201368523
1.3010752688172045
1.300097751710655
1.3010752688172045
1.3049853372434017
1.3079178885630498
1.3098729227761483
1.3118279569892473
1.3147605083088951
1.3186705767350928
1.324535679374389
1.3313782991202343
1.3401759530791788
1.3499511241446724
1.359726295210166
1.3695014662756595
1.380254154447703
1.388074291300098
1.393939393939394
1.3958944281524928
1.3958944281524928
1.396871945259042
1.4056695992179864
1.4330400782013686
1.4858260019550342
1.5718475073313782
1.6901270772238517
1.8377321603128052
1.9804496578690127
2.12316715542522
2.2854349951124147
2.4457478005865103
2.591397849462365
2.7155425219941347
2.8132942326490715
2.886608015640274
2.93841642228739
2.9716520039100685
2.989247311827957
2.995112414467253
2.989247311827957
2.973607038123167
2.9550342130987293
2.9345063538611926
