ppg
2.833822091886608
2.903225806451613
2.949169110459433
2.9775171065493646
3.0
3.0146627565982405
3.0205278592375366
3.0175953079178885
3.005865102639296
2.9872922776148583
2.961876832844575
2.929618768328446
2.8914956011730206
2.8475073313782997
2.7966764418377323
2.744868035190616
2.689149560117302
2.6236559139784945
2.549364613880743
2.4682306940371457
2.3822091886608017
2.294232649071359
2.207233626588465
2.12316715542522
2.0439882697947214
1.9726295210166176
1.9090909090909087
1.8592375366568916
1.8191593352883677
1.7820136852394917
1.7497556207233629
1.7223851417399805
1.6989247311827955
1.678396871945259
1.6608015640273706
1.6441837732160314
1.6275659824046922
1.6099706744868034
1.5913978494623655
1.5747800586510263
1.5591397849462365
1.5395894428152492
1.5190615835777126
1.498533724340176
1.4760508308895406
1.452590420332356
1.4291300097751711
1.4056695992179864
1.3812316715542523
1.356793743890518
1.3333333333333333
1.3118279569892473
1.295210166177908
1.2825024437927663
1.2668621700879763
1.252199413489736
1.2375366568914956
1.2238514173998043
1.209188660801564
1.1945259042033236
1.1808406647116323
1.166177908113392
1.152492668621701
1.1397849462365592
1.1319648093841643
1.1270772238514175
1.1202346041055715
1.1114369501466277
1.1026392961876832
1.093841642228739
1.0850439882697946
1.0772238514173995
1.0703812316715542
1.0635386119257086
1.0576735092864125
1.0527859237536656
1.0527859237536656
1.0527859237536656
1.0527859237536656
1.0527859237536656
1.0527859237536656
1.0527859237536656
1.04594330400782
1.0606060606060606
1.0909090909090908
1.142717497556207
1.2209188660801564
1.3255131964809383
1.4535679374389052
1.5796676441837731
1.70772238514174
1.858260019550342
2.018572825024438
2.176930596285435
2.3255131964809386
2.4604105571847508
2.578690127077224
2.679374389051808
2.7624633431085046
2.827956989247312
2.87683284457478
2.9100684261974585
2.9257086999022484
2.9286412512218964
2.9266862170087977
2.917888563049853
2.902248289345064
2.8797653958944283
2.850439882697948
2.814271749755621
2.771260997067449
2.720430107526881
2.66177908113392
2.5962854349951123
2.530791788856305
2.464320625610948
2.388074291300098
2.3059628543499517
2.222873900293255
2.1417399804496577
2.0635386119257086
1.9902248289345064
1.9237536656891496
1.866080156402737
1.81524926686217
1.772238514173998
1.737047898338221
1.7116324535679377
1.6920821114369502
1.672531769305963
1.6549364613880744
1.6383186705767352
1.6236559139784943
1.608993157380254
1.5923753665689149
1.5757575757575757
1.5591397849462365
1.5405669599217986
1.520039100684262
1.5034213098729228
1.487781036168133
1.4672531769305963
1.4437927663734116
1.418377321603128
1.392961876832845
1.3685239491691104
1.3440860215053765
1.3196480938416422
1.2971652003910068
1.2756598240469208
1.2541544477028348
1.2326490713587488
1.206256109481916
1.1788856304985338
1.1564027370478984
1.1368523949169111
1.1202346041055715
1.104594330400782
1.0909090909090908
1.0772238514173995
1.0635386119257086
1.0498533724340176
1.0381231671554252
1.0273704789833822
1.021505376344086
1.018572825024438
1.013685239491691
1.0068426197458455
1.0
0.9931573802541545
0.9863147605083088
0.981427174975562
0.978494623655914
0.975562072336266
0.9736070381231672
0.9726295210166178
0.9706744868035192
0.9716520039100685
0.9745845552297164
0.9765395894428152
0.9843597262952102
1.0048875855327468
1.0469208211143697
1.1133919843597262
1.206256109481916
1.3255131964809383
1.466275659824047
1.6226783968719452
1.7878787878787878
1.9315738025415443
2.059628543499511
2.1955034213098727
2.3274682306940373
2.447702834799609
2.5542521994134897
2.644183773216031
2.718475073313783
2.7781036168132944
2.823069403714565
2.854349951124145
2.8729227761485827
2.8797653958944283
2.873900293255132
2.8582600195503423
2.8367546432062563
2.807429130009776
2.771260997067449
2.729227761485826
2.681329423264907
2.6265884652981426
2.5650048875855327
2.495601173020528
2.420332355816227
2.340175953079179
2.2658846529814274
2.1945259042033234
2.1163245356793743
2.038123167155425
1.962854349951124
1.89247311827957
1.828934506353861
1.7732160312805474
1.726295210166178
1.6871945259042034
1.6549364613880744
1.6285434995112416
1.607038123167155
1.590420332355816
1.5777126099706744
1.5650048875855327
1.5503421309872922
1.5347018572825024
1.5190615835777126
1.5024437927663734
1.4838709677419355
1.4643206256109482
1.4428152492668622
1.4203323558162269
1.3978494623655917
1.3792766373411536
1.3636363636363635
1.3440860215053765
1.3225806451612905
1.3010752688172045
1.278592375366569
1.2561094819159335
1.2346041055718475
1.2150537634408602
1.1964809384164223
1.1788856304985338
1.163245356793744
1.1495601173020529
1.1407624633431086
1.1348973607038124
1.126099706744868
1.1143695014662756
1.1026392961876832
1.0899315738025417
1.078201368523949
1.0664711632453567
1.0557184750733135
1.04594330400782
1.0381231671554252
1.0312805474095796
1.029325513196481
1.0283479960899315
1.0254154447702837
1.021505376344086
1.0166177908113392
1.0117302052785924
1.0068426197458455
1.0019550342130987
0.9960899315738024
0.989247311827957
0.9833822091886608
0.9804496578690128
0.9833822091886608
0.9931573802541545
1.0117302052785924
1.0469208211143697
1.104594330400782
1.1867057673509287
1.2942326490713587
1.4242424242424243
1.5708699902248289
1.7272727272727273
1.8875855327468232
2.04594330400782
2.1974584555229715
2.3196480938416424
2.420332355816227
2.5219941348973607
2.613880742913001
2.6940371456500487
2.760508308895406
2.811339198435973
2.8484848484848486
2.8719452590420333
2.8826979472140764
2.8836754643206257
2.874877810361681
2.8563049853372435
2.83088954056696
2.80058651026393
2.764418377321604
2.721407624633431
2.6725317693059627
2.616813294232649
2.5542521994134897
2.4858260019550342
2.4115347018572826
2.332355816226784
2.2502443792766376
2.166177908113392
2.0928641251221896
2.027370478983382
1.959921798631476
1.8944281524926687
1.8347996089931573
1.7810361681329423
1.7360703812316716
1.6979472140762464
1.6666666666666667
1.6412512218963833
1.619745845552297
1.6021505376344083
1.5884652981427174
1.576735092864125
1.564027370478983
1.5483870967741935
1.5327468230694037
1.5161290322580645
1.4975562072336266
1.478005865102639
1.457478005865103
1.435972629521017
1.412512218963832
1.388074291300098
1.3626588465298142
1.343108504398827
1.3255131964809383
1.3069403714565004
1.2873900293255132
1.2688172043010753
1.2512218963831867
1.2365591397849462
1.2238514173998043
1.2130987292277615
1.2023460410557183
1.1915933528836755
1.181818181818182
1.1749755620723363
1.1700879765395895
1.1622678396871946
1.1534701857282503
1.142717497556207
1.1319648093841643
1.121212121212121
1.1124144672531768
1.1055718475073313
1.1006842619745845
1.096774193548387
1.0948191593352885
1.0928641251221896
1.093841642228739
1.096774193548387
1.096774193548387
1.0957966764418376
1.0948191593352885
1.0928641251221896
1.0909090909090908
1.088954056695992
1.0879765395894427
1.088954056695992
1.0957966764418376
1.1143695014662756
1.1436950146627567
1.1886608015640274
1.2590420332355816
1.3558162267839686
1.47702834799609
1.6187683284457477
1.775171065493646
1.9374389051808407
2.099706744868035
2.2561094819159337
2.40078201368524
2.5317693059628543
2.64613880742913
2.730205278592375
2.793743890518084
2.854349951124145
2.905180840664712
2.945259042033236
2.9745845552297165
2.992179863147605
2.9980449657869013
2.994134897360704
2.9804496578690127
2.9589442815249267
2.930596285434995
2.897360703812317
2.859237536656892
2.8152492668621703
2.7653958944281527
2.708699902248289
2.6451612903225805
2.5747800586510263
2.5004887585532747
2.423264907135875
2.3440860215053765
2.2658846529814274
2.189638318670577
2.118279569892473
2.058651026392962
2.0087976539589443
1.9608993157380252
1.9178885630498532
1.8807429130009776
1.8494623655913975
1.823069403714565
1.801564027370479
1.7839687194525904
1.76930596285435
1.7556207233626588
1.7409579667644184
1.7282502443792769
1.715542521994135
1.7008797653958945
1.683284457478006
1.664711632453568
1.64613880742913
1.6265884652981428
1.6050830889540566
1.5826001955034212
1.5591397849462365
1.5347018572825024
1.5102639296187683
1.487781036168133
1.4711632453567938
1.457478005865103
1.4418377321603129
1.4252199413489737
1.4086021505376345
1.391006842619746
1.3734115347018572
1.356793743890518
1.3411534701857282
1.3255131964809383
1.3098729227761483
1.2942326490713587
1.2805474095796676
1.2688172043010753
1.2541544477028348
1.238514173998045
1.2218963831867058
1.2072336265884651
1.1935483870967742
1.181818181818182
1.1700879765395895
1.1573802541544478
1.144672531769306
1.133919843597263
1.1241446725317692
1.118279569892473
1.115347018572825
1.110459433040078
1.1036168132942326
1.0957966764418376
1.0879765395894427
1.0821114369501466
1.0811339198435972
1.0909090909090908
1.1163245356793745
1.1622678396871946
1.2336265884652982
1.313782991202346
1.4086021505376345
1.533724340175953
1.678396871945259
1.835777126099707
1.9960899315738023
2.1544477028347995
2.304007820136853
2.4408602150537635
2.5620723362658846
2.665689149560117
2.7517106549364616
2.8103616813294234
2.850439882697948
2.8856304985337244
2.9120234604105573
2.9286412512218964
2.9374389051808407
2.9374389051808407
2.9315738025415445
2.917888563049853
2.898338220918866
2.870967741935484
2.8377321603128056
2.7976539589442817
2.7546432062561097
2.7067448680351904
2.6510263929618767
2.587487781036168
2.5161290322580645
2.4389051808406648
2.357771260997068
2.2737047898338223
2.189638318670577
2.10752688172043
2.0303030303030303
1.9589442815249267
1.900293255131965
1.8523949169110456
1.8064516129032255
1.7663734115347018
1.7311827956989247
1.7008797653958945
1.6744868035190617
1.6520039100684265
1.632453567937439
1.6148582600195502
1.598240469208211
1.581622678396872
1.564027370478983
1.5493646138807429
1.5356793743890518
1.5180840664711632
1.4975562072336266
1.4750733137829912
1.4516129032258065
1.4271749755620724
1.4027370478983383
1.3782991202346042
1.3548387096774193
1.3313782991202343
1.3098729227761483
1.2932551319648091
1.2776148582600195
1.260019550342131
1.2424242424242424
1.224828934506354
1.2082111436950147
1.1925708699902249
1.176930596285435
1.1622678396871946
1.1485826001955035
1.1358748778103618
1.1231671554252198
1.1114369501466277
1.1036168132942326
1.0987292277614855
1.0918866080156402
1.0840664711632453
1.0762463343108504
1.0694037145650048
1.0635386119257086
1.0576735092864125
1.050830889540567
1.0449657869012707
1.040078201368524
1.035190615835777
1.0342130987292275
1.0342130987292275
1.0312805474095796
1.0263929618768328
1.021505376344086
1.0195503421309873
1.0234604105571847
1.0391006842619743
1.0713587487781036
1.1251221896383188
1.2023460410557183
1.3049853372434017
1.4291300097751711
1.5503421309872922
1.6735092864125125
1.818181818181818
1.970674486803519
2.1221896383186705
2.264907135874878
2.3949169110459434
2.5083088954056696
2.6041055718475072
2.6823069403714563
2.7438905180840663
2.790811339198436
2.8181818181818183
2.83088954056696
2.838709677419355
2.838709677419355
2.83088954056696
2.81622678396872
2.7947214076246336
2.7653958944281527
2.729227761485826
2.686217008797654
2.6373411534701856
2.581622678396872
2.520039100684262
2.458455522971652
2.3949169110459434
2.3225806451612905
2.243401759530792
2.160312805474096
2.078201368523949
1.9990224828934504
1.9266862170087975
1.86119257086999
1.8035190615835777
1.75366568914956
1.7116324535679377
1.6803519061583578
1.6559139784946235
1.6314760508308896
1.6099706744868034
1.590420332355816
1.5728250244379276
1.5562072336265884
1.5405669599217986
1.5249266862170088
1.509286412512219
1.4926686217008798
1.4750733137829912
1.4545454545454546
1.436950146627566
1.4213098729227762
1.401759530791789
1.3812316715542523
1.3607038123167154
1.3401759530791788
1.3206256109481915
1.3020527859237536
1.284457478005865
1.2688172043010753
1.2541544477028348
1.2404692082111437
1.23069403714565
1.2228739002932552
1.2121212121212122
1.2013685239491692
1.1896383186705768
1.1788856304985338
1.1681329423264908
1.1573802541544478
1.1466275659824048
1.1368523949169111
1.1280547409579669
1.1202346041055715
1.1133919843597262
1.1094819159335287
1.1065493646138806
1.1016617790811338
1.0948191593352885
1.0869990224828934
1.0791788856304985
1.072336265884653
1.0664711632453567
1.0606060606060606
1.053763440860215
1.0469208211143697
1.0391006842619743
1.0342130987292275
1.0273704789833822
1.0166177908113392
1.0117302052785924
1.0175953079178883
1.0391006842619743
1.0811339198435972
1.147605083088954
1.2394916911045943
1.3558162267839686
1.4926686217008798
1.6441837732160314
1.8035190615835777
1.943304007820137
2.069403714565005
2.2052785923753664
2.337243401759531
2.458455522971652
2.5650048875855327
2.654936461388074
2.7282502443792764
2.78494623655914
2.827956989247312
2.857282502443793
2.873900293255132
2.87683284457478
2.8699902248289346
2.857282502443793
2.838709677419355
2.8132942326490715
2.782013685239492
2.7438905180840663
2.6989247311827955
2.64613880742913
2.5865102639296187
2.5190615835777126
2.44672531769306
2.36950146627566
2.2981427174975564
2.2297165200391005
2.1544477028347995
2.078201368523949
2.004887585532747
1.9364613880742916
1.8758553274682308
1.822091886608016
1.7771260997067448
1.7390029325513197
1.7067448680351909
1.6793743890518085
1.6598240469208212
1.6441837732160314
1.6285434995112416
1.6129032258064515
1.5972629521016617
1.5806451612903225
1.563049853372434
1.544477028347996
1.525904203323558
1.5063538611925709
1.4858260019550342
1.4643206256109482
1.4457478005865103
1.4291300097751711
1.4086021505376345
1.3861192570869991
1.3626588465298142
1.3391984359726294
1.316715542521994
1.2942326490713587
1.273704789833822
1.2541544477028348
1.2355816226783969
1.2179863147605083
1.2003910068426198
1.1886608015640274
1.1788856304985338
1.1671554252199414
1.1534701857282503
1.1397849462365592
1.1270772238514175
1.115347018572825
1.1055718475073313
1.0957966764418376
1.086021505376344
1.0762463343108504
1.0664711632453567
1.06158357771261
1.0606060606060606
1.0576735092864125
1.053763440860215
1.0498533724340176
1.04594330400782
1.0420332355816226
1.0381231671554252
1.0332355816226784
1.0283479960899315
1.0224828934506354
1.0166177908113392
1.0127077223851415
1.0156402737047898
1.0283479960899315
1.0527859237536656
1.0957966764418376
1.160312805474096
1.2502443792766371
1.3636363636363635
1.498533724340176
1.6490713587487782
1.8084066471163245
1.970674486803519
2.1300097751710654
2.260997067448681
2.372434017595308
2.4858260019550342
2.590420332355816
2.681329423264907
2.7565982404692084
2.817204301075269
2.863147605083089
2.8944281524926687
2.9120234604105573
2.917888563049853
2.9149560117302054
2.9042033235581624
2.884652981427175
2.859237536656892
2.8289345063538613
2.792766373411535
2.7497556207233624
2.699902248289345
2.6422287390029324
2.576735092864125
2.504398826979472
2.426197458455523
2.3440860215053765
2.260019550342131
2.1837732160312804
2.114369501466276
2.042033235581622
1.9716520039100685
1.905180840664712
1.8465298142717497
1.7956989247311828
1.7526881720430108
1.718475073313783
1.6911045943304008
1.6686217008797657
1.6500488758553276
1.6344086021505375
1.6226783968719452
1.6138807429130009
1.603128054740958
1.5913978494623655
1.5786901270772238
1.564027370478983
1.5483870967741935
1.5317693059628543
1.5131964809384164
1.4926686217008798
1.4721407624633431
1.4516129032258065
1.435972629521017
1.4222873900293256
1.404692082111437
1.3861192570869991
1.3685239491691104
1.3509286412512218
1.3333333333333333
1.316715542521994
1.300097751710655
1.2854349951124144
1.2717497556207231
1.2590420332355816
1.2473118279569892
1.2404692082111437
1.2355816226783969
1.227761485826002
1.219941348973607
1.2111436950146628
1.2013685239491692
1.1925708699902249
1.18475073313783
1.1779081133919844
1.1730205278592376
1.1681329423264908
1.164222873900293
1.163245356793744
1.164222873900293
1.163245356793744
1.1612903225806452
1.1593352883675463
1.1564027370478984
1.1534701857282503
1.1485826001955035
1.142717497556207
1.13880742913001
1.1407624633431086
1.1534701857282503
1.181818181818182
1.2238514173998043
1.281524926686217
1.367546432062561
1.4809384164222874
1.616813294232649
1.7683284457478006
1.9296187683284456
2.0928641251221896
2.2531769305962857
2.403714565004888
2.5425219941348973
2.665689149560117
2.757575757575758
2.8269794721407626
2.89247311827957
2.9472140762463344
2.9902248289345064
3.0205278592375366
3.0391006842619745
3.04594330400782
3.043010752688172
3.032258064516129
3.013685239491691
2.989247311827957
2.9589442815249267
2.9227761485826003
2.8807429130009776
2.832844574780059
2.7781036168132944
2.717497556207233
2.650048875855328
2.575757575757576
2.496578690127077
2.4144672531769307
2.332355816226784
2.251221896383187
2.1739980449657867
2.1094819159335287
2.053763440860215
2.0
1.9501466275659824
1.9071358748778104
1.870967741935484
1.842619745845552
1.8201368523949168
1.801564027370479
1.7869012707722385
1.7732160312805474
1.7595307917888563
1.7448680351906158
1.732160312805474
1.7204301075268815
1.704789833822092
1.686217008797654
1.664711632453568
1.6412512218963833
1.6148582600195502
1.5835777126099706
1.5483870967741935
1.5161290322580645
1.4848484848484849
1.4545454545454546
1.4301075268817205
1.409579667644184
1.3861192570869991
1.3616813294232648
1.3372434017595307
1.3147605083088951
1.2942326490713587
1.2756598240469208
1.2590420332355816
1.2434017595307918
1.2287390029325511
1.2150537634408602
1.2013685239491692
1.1915933528836755
1.18475073313783
1.1759530791788857
1.1652003910068427
1.1544477028347997
1.1436950146627567
1.1319648093841643
1.121212121212121
1.1114369501466277
1.1026392961876832
1.093841642228739
1.086021505376344
1.083088954056696
1.0811339198435972
1.0762463343108504
1.0694037145650048
1.0625610948191593
1.0547409579667644
1.0478983382209188
1.0449657869012707
1.0498533724340176
1.0694037145650048
1.10752688172043
1.1700879765395895
1.2434017595307918
1.3313782991202343
1.4496578690127078
1.5894428152492668
1.7438905180840665
1.9042033235581624
2.0635386119257086
2.2160312805474094
2.357771260997068
2.4838709677419355
2.593352883675464
2.6852394916911044
2.7595307917888565
2.809384164222874
2.8406647116324537
2.866080156402737
2.8836754643206257
2.8914956011730206
2.8905180840664717
2.8826979472140764
2.8670576735092865
2.8455522971652005
2.819159335288368
2.7859237536656893
2.7468230694037143
2.704789833822092
2.6578690127077222
2.603128054740958
2.5405669599217986
2.4711632453567938
2.3958944281524928
2.3167155425219943
2.2346041055718477
2.1515151515151514
2.071358748778104
1.994134897360704
1.9227761485826005
1.858260019550342
1.8074291300097751
1.7663734115347018
1.7272727272727273
1.6930596285434996
1.6637341153470186
1.6392961876832846
1.6187683284457477
1.6011730205278591
1.58455522971652
1.5679374389051808
1.5503421309872922
1.5327468230694037
1.5180840664711632
1.504398826979472
1.4868035190615836
1.4672531769305963
1.4467253176930597
1.4242424242424243
1.401759530791789
1.3792766373411536
1.3558162267839686
1.332355816226784
1.3098729227761483
1.2883675464320623
1.2668621700879763
1.2502443792766371
1.2365591397849462
1.2218963831867058
1.206256109481916
1.1896383186705768
1.173998044965787
1.1583577712609971
1.1436950146627567
1.1290322580645162
1.115347018572825
1.1016617790811338
1.0899315738025417
1.0821114369501466
1.0772238514173995
1.0703812316715542
1.0625610948191593
1.0547409579667644
1.0478983382209188
1.0410557184750733
1.0342130987292275
1.0273704789833822
1.021505376344086
1.0166177908113392
1.0117302052785924
1.007820136852395
1.0058651026392962
1.0048875855327468
1.0019550342130987
0.9990224828934506
0.9980449657869012
1.0009775171065494
1.0117302052785924
1.0381231671554252
1.0850439882697946
1.1564027370478984
1.252199413489736
1.370478983382209
1.487781036168133
1.6080156402737047
1.750733137829912
1.903225806451613
2.0547409579667644
2.19941348973607
2.3313782991202348
2.4486803519061584
2.550342130987292
2.634408602150537
2.701857282502444
2.7536656891495603
2.790811339198436
2.809384164222874
2.814271749755621
2.814271749755621
2.807429130009776
2.792766373411535
2.7702834799608995
2.740957966764418
2.704789833822092
2.66177908113392
2.6129032258064515
2.557184750733138
2.4946236559139785
2.4330400782013686
2.3704789833822093
2.2991202346041058
2.2218963831867056
2.142717497556207
2.0625610948191597
1.9853372434017595
1.9120234604105573
1.8465298142717497
1.7878787878787878
1.737047898338221
1.694037145650049
1.6578690127077225
1.6314760508308896
1.611925708699902
1.5943304007820136
1.5777126099706744
1.563049853372434
1.5483870967741935
1.5327468230694037
1.517106549364614
1.501466275659824
1.4858260019550342
1.469208211143695
1.4516129032258065
1.435972629521017
1.4222873900293256
1.404692082111437
1.3841642228739004
1.3636363636363635
1.343108504398827
1.3225806451612905
1.3020527859237536
1.2825024437927663
1.262952101661779
1.2443792766373412
1.2267839687194526
1.209188660801564
1.1964809384164223
1.1857282502443791
1.1730205278592376
1.1593352883675463
1.1466275659824048
1.1348973607038124
1.1241446725317692
1.1124144672531768
1.1006842619745845
1.088954056695992
1.0772238514173995
1.0664711632453567
1.0606060606060606
1.056695992179863
1.050830889540567
1.0449657869012707
1.0391006842619743
1.0342130987292275
1.029325513196481
1.0254154447702837
1.0234604105571847
1.021505376344086
1.0195503421309873
1.0166177908113392
1.0127077223851415
1.0127077223851415
1.0146627565982405
1.0166177908113392
1.0254154447702837
1.04594330400782
1.0850439882697946
1.1466275659824048
1.2326490713587488
1.3421309872922775
1.474095796676442
1.6207233626588464
1.7761485826001957
1.9130009775171064
2.037145650048876
2.16911045943304
2.2991202346041058
2.419354838709677
2.5249266862170088
2.6158357771261
2.69208211143695
2.7536656891495603
2.80058651026393
2.80058651026393
2.80058651026393
2.80058651026393
2.80058651026393
2.80058651026393
2.80058651026393
2.80058651026393
2.8475073313782997
2.812316715542522
2.768328445747801
2.7155425219941347
2.654936461388074
2.587487781036168
2.5131964809384164
2.434017595307918
2.3597262952101663
2.2883675464320627
2.210166177908113
2.1300097751710654
2.0518084066471163
1.978494623655914
1.911045943304008
1.8523949169110456
1.801564027370479
1.758553274682307
1.7233626588465298
1.6959921798631477
1.6764418377321604
1.6608015640273706
1.64613880742913
1.6334310850439884
1.6226783968719452
1.6109481915933528
1.598240469208211
1.5835777126099706
1.5679374389051808
1.5513196480938416
1.5327468230694037
1.5131964809384164
1.4926686217008798
1.4760508308895406
1.4604105571847508
1.439882697947214
1.418377321603128
1.3958944281524928
1.3734115347018572
1.3519061583577712
1.3304007820136852
1.3098729227761483
1.289345063538612
1.2697947214076246
1.252199413489736
1.2404692082111437
1.2316715542521994
1.2209188660801564
1.2082111436950147
1.195503421309873
1.1827956989247312
1.1691104594330402
1.1544477028347997
1.13880742913001
1.1241446725317692
1.1114369501466277
1.099706744868035
1.0899315738025417
1.0850439882697946
1.083088954056696
1.0791788856304985
1.0742913000977516
1.0684261974584557
1.0635386119257086
1.0586510263929618
1.053763440860215
1.0478983382209188
1.0410557184750733
1.0342130987292275
1.029325513196481
1.0303030303030305
