ppg
2.15347018572825
2.0684261974584555
1.9833822091886608
1.9012707722385145
1.823069403714565
1.7487781036168133
1.678396871945259
1.611925708699902
1.555229716520039
1.5024437927663734
1.444770283479961
1.3841642228739004
1.3235581622678396
1.2639296187683284
1.2072336265884651
1.1564027370478984
1.1133919843597262
1.078201368523949
1.0518084066471165
1.0332355816226784
1.0224828934506354
1.018572825024438
1.0195503421309873
1.021505376344086
1.0234604105571847
1.0234604105571847
1.0195503421309873
1.013685239491691
1.0039100684261977
0.9912023460410556
0.975562072336266
0.9579667644183774
0.93841642228739
0.9227761485826002
0.9100684261974584
0.8944281524926686
0.8778103616813294
0.8611925708699902
0.844574780058651
0.8299120234604106
0.8162267839687195
0.8035190615835777
0.7927663734115347
0.782991202346041
0.7741935483870968
0.7683284457478006
0.7673509286412512
0.7693059628543499
0.7693059628543499
0.7683284457478006
0.7653958944281525
0.761485826001955
0.7575757575757576
0.7526881720430108
0.7478005865102639
0.7419354838709677
0.7370478983382209
0.7321603128054741
0.7321603128054741
0.7360703812316716
0.7438905180840665
0.7585532746823069
0.7878787878787878
0.8377321603128055
0.9130009775171064
1.0166177908113392
1.147605083088954
1.303030303030303
1.47702834799609
1.6588465298142718
1.8387096774193548
1.989247311827957
2.118279569892473
2.2482893450635384
2.366568914956012
2.4682306940371457
2.5532746823069403
2.622678396871945
2.678396871945259
2.7223851417399803
2.755620723362659
2.779081133919844
2.792766373411535
2.792766373411535
2.780058651026393
2.7595307917888565
2.727272727272727
2.681329423264907
2.622678396871945
2.5513196480938416
2.469208211143695
2.380254154447703
2.2883675464320627
2.1974584555229715
2.1114369501466275
2.040078201368524
1.978494623655914
1.919843597262952
1.866080156402737
1.818181818181818
1.7761485826001957
1.739980449657869
1.70772238514174
1.6774193548387095
1.6490713587487782
1.619745845552297
1.5913978494623655
1.563049853372434
1.5386119257087
1.5151515151515151
1.487781036168133
1.4594330400782014
1.43108504398827
1.4037145650048877
1.3773216031280548
1.3509286412512218
1.3255131964809383
1.300097751710655
1.2766373411534702
1.2541544477028348
1.2375366568914956
1.2238514173998043
1.209188660801564
1.1935483870967742
1.1788856304985338
1.1652003910068427
1.1515151515151516
1.13880742913001
1.1251221896383188
1.1114369501466277
1.0987292277614855
1.0869990224828934
1.0762463343108504
1.0694037145650048
1.0625610948191593
1.053763440860215
1.0449657869012707
1.035190615835777
1.0254154447702837
1.0175953079178883
1.0117302052785924
1.0058651026392962
1.0
0.9951124144672532
0.9902248289345064
1.0478983382209188
1.1368523949169111
1.1798631476050832
1.1994134897360704
1.2072336265884651
1.2101661779081134
1.2121212121212122
1.2130987292277615
1.2130987292277615
1.2130987292277615
1.2130987292277615
1.2130987292277615
1.2130987292277615
1.2150537634408602
1.2189638318670577
1.2209188660801564
1.219941348973607
1.2189638318670577
1.2179863147605083
1.2179863147605083
1.2179863147605083
1.2218963831867058
1.23069403714565
1.249266862170088
1.2825024437927663
1.324535679374389
1.380254154447703
1.4633431085043989
1.5708699902248289
1.6989247311827955
1.8416422287390029
1.991202346041056
2.139784946236559
2.280547409579668
2.406647116324536
2.515151515151515
2.606060606060606
2.6803519061583576
2.729227761485826
2.7624633431085046
2.792766373411535
2.8181818181818183
2.8377321603128056
2.8514173998044967
2.8582600195503423
2.857282502443793
2.849462365591398
2.832844574780059
2.806451612903226
2.76930596285435
2.7262952101661777
2.675464320625611
2.613880742913001
2.5454545454545454
2.4731182795698925
2.398826979472141
2.326490713587488
2.259042033235582
2.196480938416422
2.1417399804496577
2.0948191593352883
2.0547409579667644
2.021505376344086
1.994134897360704
1.970674486803519
1.9472140762463344
1.924731182795699
1.9012707722385145
1.8778103616813293
1.8523949169110456
1.825024437927664
1.796676441837732
1.7673509286412512
1.7380254154447703
1.7096774193548387
1.6852394916911049
1.6627565982404693
1.6383186705767352
1.6129032258064515
1.5894428152492668
1.5679374389051808
1.547409579667644
1.5278592375366569
1.509286412512219
1.4926686217008798
1.478005865102639
1.4643206256109482
1.4516129032258065
1.4428152492668622
1.4349951124144673
1.426197458455523
1.4164222873900294
1.4056695992179864
1.3949169110459434
1.3851417399804498
1.375366568914956
1.3665689149560116
1.3577712609970674
1.3499511241446724
1.343108504398827
1.3391984359726294
1.3362658846529814
1.3333333333333333
1.3294232649071358
1.3255131964809383
1.321603128054741
1.316715542521994
1.3128054740957966
1.3088954056695992
1.3049853372434017
1.3020527859237536
1.2981427174975562
1.2942326490713587
1.2932551319648091
1.2932551319648091
1.29227761485826
1.2913000977517106
1.289345063538612
1.2873900293255132
1.2854349951124144
1.2834799608993157
1.281524926686217
1.2795698924731185
1.278592375366569
1.278592375366569
1.281524926686217
1.2854349951124144
1.2903225806451613
1.2991202346041055
1.316715542521994
1.3470185728250244
1.3949169110459434
1.4643206256109482
1.5542521994134897
1.664711632453568
1.790811339198436
1.9266862170087975
2.0664711632453567
2.1847507331378297
2.2873900293255134
2.3919843597262958
2.489736070381232
2.572825024437928
2.641251221896383
2.6940371456500487
2.7331378299120237
2.7614858260019552
2.7810361681329425
2.792766373411535
2.7976539589442817
2.792766373411535
2.780058651026393
2.7624633431085046
2.736070381231672
2.699902248289345
2.653958944281525
2.5962854349951123
2.530791788856305
2.4604105571847508
2.3870967741935485
2.313782991202346
2.243401759530792
2.1837732160312804
2.132942326490713
2.0840664711632453
2.0391006842619745
2.0
1.9657869012707725
1.9364613880742916
1.9100684261974583
1.8866080156402736
1.8631476050830889
1.839687194525904
1.81524926686217
1.7878787878787878
1.7634408602150538
1.739980449657869
1.7116324535679377
1.6823069403714566
1.6520039100684265
1.6217008797653958
1.5933528836754642
1.565982404692082
1.5405669599217986
1.5161290322580645
1.4926686217008798
1.4711632453567938
1.4545454545454546
1.4408602150537635
1.4252199413489737
1.4105571847507332
1.3958944281524928
1.3822091886608017
1.370478983382209
1.359726295210166
1.3499511241446724
1.3411534701857282
1.332355816226784
1.3235581622678396
1.3147605083088951
1.3098729227761483
1.3069403714565004
1.303030303030303
1.2971652003910068
1.2913000977517106
1.2854349951124144
1.278592375366569
1.2727272727272727
1.2658846529814272
1.2590420332355816
1.2531769305962854
1.2482893450635386
1.24633431085044
1.24633431085044
1.2443792766373412
1.2424242424242424
1.2404692082111437
1.238514173998045
1.2365591397849462
1.2346041055718475
1.2336265884652982
1.2316715542521994
1.2297165200391007
1.227761485826002
1.2258064516129032
1.2258064516129032
1.2267839687194526
1.227761485826002
1.227761485826002
1.227761485826002
1.227761485826002
1.2297165200391007
1.2355816226783969
1.2473118279569892
1.2697947214076246
1.3069403714565004
1.364613880742913
1.4301075268817205
1.509286412512219
1.6158357771260996
1.7438905180840665
1.8856304985337244
2.0332355816226784
2.176930596285435
2.3098729227761488
2.4281524926686218
2.529814271749756
2.613880742913001
2.681329423264907
2.7341153470185726
2.7673509286412514
2.787878787878788
2.806451612903226
2.822091886608016
2.831867057673509
2.834799608993157
2.8611925708699903
2.89247311827957
2.886608015640274
2.855327468230694
2.8054740957966766
2.739980449657869
2.670576735092864
2.5972629521016617
2.5131964809384164
2.4252199413489737
2.3382209188660803
2.2551319648093844
2.1788856304985336
2.1114369501466275
2.0527859237536656
2.003910068426197
1.962854349951124
1.9266862170087975
1.8944281524926687
1.8670576735092863
1.842619745845552
1.81524926686217
1.7859237536656891
1.7546432062561097
1.7223851417399805
1.689149560117302
1.653958944281525
1.6187683284457477
1.58455522971652
1.5513196480938416
1.5190615835777126
1.4916911045943304
1.4682306940371457
1.4428152492668622
1.418377321603128
1.3949169110459434
1.3714565004887584
1.3499511241446724
1.3294232649071358
1.310850439882698
1.2942326490713587
1.2795698924731185
1.2658846529814272
1.2531769305962854
1.2453567937438903
1.238514173998045
1.2297165200391007
1.2179863147605083
1.2082111436950147
1.1994134897360704
1.1906158357771262
1.1837732160312806
1.176930596285435
1.1691104594330402
1.1622678396871946
1.155425219941349
1.1505376344086022
1.1485826001955035
1.144672531769306
1.1397849462365592
1.1348973607038124
1.1290322580645162
1.1221896383186705
1.118279569892473
1.1143695014662756
1.1114369501466277
1.1094819159335287
1.1094819159335287
1.110459433040078
1.1124144672531768
1.115347018572825
1.115347018572825
1.1143695014662756
1.1124144672531768
1.110459433040078
1.1085043988269794
1.10752688172043
1.1065493646138806
1.1055718475073313
1.1055718475073313
1.1065493646138806
1.110459433040078
1.118279569892473
1.1319648093841643
1.1573802541544478
1.1994134897360704
1.262952101661779
1.35386119257087
1.4711632453567938
1.6129032258064515
1.7732160312805474
1.9442815249266865
2.1163245356793743
2.281524926686217
2.4144672531769307
2.5239491691104594
2.63049853372434
2.724340175953079
2.80058651026393
2.860215053763441
2.906158357771261
2.9393939393939394
2.962854349951124
2.9775171065493646
2.98435972629521
2.981427174975562
2.9667644183773216
2.9423264907135875
2.90811339198436
2.8611925708699903
2.8025415444770285
2.7331378299120237
2.653958944281525
2.5669599217986314
2.47702834799609
2.386119257086999
2.2991202346041058
2.218963831867057
2.147605083088954
2.089931573802541
2.043010752688172
2.0
1.9618768328445748
1.9266862170087975
1.8934506353861196
1.86119257086999
1.8299120234604105
1.7986314760508308
1.7663734115347018
1.7331378299120237
1.6979472140762464
1.6666666666666667
1.6383186705767352
1.607038123167155
1.5728250244379276
1.5366568914956011
1.500488758553275
1.4652981427174976
1.4330400782013686
1.401759530791789
1.3724340175953078
1.346041055718475
1.321603128054741
1.303030303030303
1.2873900293255132
1.270772238514174
1.2541544477028348
1.2394916911045943
1.2258064516129032
1.2121212121212122
1.1994134897360704
1.1886608015640274
1.1779081133919844
1.1671554252199414
1.1564027370478984
1.1456500488758554
1.13880742913001
1.1329423264907137
1.1241446725317692
1.115347018572825
1.1065493646138806
1.0987292277614855
1.0909090909090908
1.083088954056696
1.075268817204301
1.067448680351906
1.0596285434995112
1.0518084066471165
1.0469208211143697
1.0449657869012707
1.043010752688172
1.040078201368524
1.0381231671554252
1.0361681329423265
1.035190615835777
1.0332355816226784
1.0303030303030305
1.0273704789833822
1.0254154447702837
1.024437927663734
1.024437927663734
1.0263929618768328
1.0303030303030305
1.032258064516129
1.0342130987292275
1.0361681329423265
1.040078201368524
1.0498533724340176
1.0703812316715542
1.1065493646138806
1.164222873900293
1.2473118279569892
1.3577712609970674
1.4721407624633431
1.5933528836754642
1.7448680351906158
1.911045943304008
2.0791788856304985
2.2404692082111435
2.388074291300098
2.5180840664711632
2.6285434995112413
2.717497556207233
2.7859237536656893
2.8377321603128056
2.875855327468231
2.8963831867057674
2.905180840664712
2.9120234604105573
2.913978494623656
2.909090909090909
2.895405669599218
2.870967741935484
2.833822091886608
2.7839687194525906
2.720430107526881
2.6451612903225805
2.5610948191593352
2.479960899315738
2.40078201368524
2.315738025415445
2.231671554252199
2.1524926686217007
2.083088954056696
2.022482893450636
1.970674486803519
1.927663734115347
1.89247311827957
1.86119257086999
1.8328445747800584
1.8054740957966764
1.7820136852394917
1.7595307917888563
1.7331378299120237
1.7028347996089932
1.6695992179863148
1.635386119257087
1.6001955034213098
1.563049853372434
1.525904203323558
1.4897360703812317
1.455522971652004
1.4222873900293256
1.3958944281524928
1.3743890518084063
1.3528836754643203
1.3313782991202343
1.3098729227761483
1.289345063538612
1.270772238514174
1.252199413489736
1.2336265884652982
1.217008797653959
1.203323558162268
1.1915933528836755
1.1808406647116323
1.1681329423264908
1.1544477028347997
1.141739980449658
1.1300097751710656
1.118279569892473
1.1055718475073313
1.0928641251221896
1.0811339198435972
1.0703812316715542
1.0606060606060606
1.0518084066471165
1.0449657869012707
1.0420332355816226
1.040078201368524
1.035190615835777
1.029325513196481
1.0234604105571847
1.0166177908113392
1.0117302052785924
1.007820136852395
1.0048875855327468
1.0039100684261977
1.002932551319648
1.002932551319648
1.0039100684261977
1.0068426197458455
1.0087976539589445
1.0097751710654936
1.0097751710654936
1.0097751710654936
1.0097751710654936
1.0097751710654936
1.0097751710654936
1.010752688172043
1.0127077223851415
1.0156402737047898
1.0224828934506354
1.0371456500488758
1.0606060606060606
1.1006842619745845
1.1622678396871946
1.249266862170088
1.364613880742913
1.5053763440860215
1.6666666666666667
1.8416422287390029
2.022482893450636
2.198435972629521
2.361681329423265
2.506353861192571
2.613880742913001
2.6940371456500487
2.768328445747801
2.832844574780059
2.884652981427175
2.924731182795699
2.9550342130987293
2.975562072336266
2.988269794721408
2.992179863147605
2.9853372434017595
2.9667644183773216
2.9393939393939394
2.903225806451613
2.8563049853372435
2.80058651026393
2.7370478983382207
2.668621700879765
2.5962854349951123
2.5219941348973607
2.449657869012708
2.383186705767351
2.32355816226784
2.271749755620724
2.228739002932551
2.1945259042033234
2.16911045943304
2.150537634408602
2.139784946236559
2.139784946236559
2.150537634408602
2.1700879765395893
2.1955034213098727
2.2248289345063537
2.2521994134897363
2.272727272727273
2.2825024437927666
2.2795698924731185
2.2639296187683287
2.2346041055718477
2.190615835777126
2.133919843597263
2.067448680351906
1.991202346041056
1.90811339198436
1.8201368523949168
1.729227761485826
1.6383186705767352
1.5513196480938416
1.4711632453567938
1.4076246334310851
1.3440860215053765
1.2873900293255132
1.2482893450635386
1.2101661779081134
1.1749755620723363
1.1407624633431086
1.1065493646138806
1.0713587487781036
1.0342130987292275
0.9941348973607038
0.9550342130987292
0.9247311827956988
0.9002932551319648
0.8748778103616813
0.8563049853372434
0.8435972629521017
0.8387096774193549
0.8396871945259042
0.8455522971652004
0.8533724340175953
0.863147605083089
0.8729227761485826
0.8826979472140762
0.8934506353861192
0.9051808406647116
0.9149560117302052
0.9227761485826002
0.9266862170087976
0.9286412512218964
0.9296187683284456
0.9286412512218964
0.927663734115347
0.9266862170087976
0.9266862170087976
0.9266862170087976
0.927663734115347
0.9305962854349952
0.9335288367546432
0.9335288367546432
0.9325513196480938
0.9325513196480938
0.935483870967742
0.946236559139785
0.9687194525904204
1.0097751710654936
1.0733137829912025
1.1612903225806452
1.273704789833822
1.3870967741935485
1.5063538611925709
1.651026392961877
1.8064516129032255
1.959921798631476
2.102639296187683
2.23069403714565
2.3391984359726297
2.429130009775171
2.501466275659824
2.557184750733138
2.5992179863147604
2.6295210166177907
2.6451612903225805
2.650048875855328
2.652003910068426
2.6480938416422286
2.6373411534701856
2.6177908113391983
2.587487781036168
2.547409579667644
2.496578690127077
2.4349951124144678
2.366568914956012
2.29227761485826
2.2238514173998043
2.161290322580645
2.096774193548387
2.0361681329423265
1.9833822091886608
1.9403714565004888
1.905180840664712
1.8758553274682308
1.8504398826979471
1.826001955034213
1.8005865102639296
1.772238514173998
1.7409579667644184
1.710654936461388
1.6803519061583578
1.643206256109482
1.603128054740958
1.5620723362658846
1.520039100684262
1.478983382209189
1.4379276637341154
1.3978494623655917
1.3587487781036167
1.3206256109481915
1.284457478005865
1.2570869990224829
1.2346041055718475
1.2101661779081134
1.1886608015640274
1.1700879765395895
1.1534701857282503
1.1407624633431086
1.130987292277615
1.1231671554252198
1.1173020527859236
1.110459433040078
1.1036168132942326
1.096774193548387
1.0928641251221896
1.0909090909090908
1.086021505376344
1.0791788856304985
1.072336265884653
1.064516129032258
1.0557184750733135
1.0469208211143697
1.0381231671554252
1.029325513196481
1.0205278592375366
1.0127077223851415
1.007820136852395
1.002932551319648
0.9960899315738024
0.9912023460410556
0.9843597262952102
0.9765395894428152
0.9696969696969696
0.9648093841642228
0.959921798631476
0.9560117302052786
0.95405669599218
0.9530791788856304
0.9511241446725318
0.9521016617790812
0.9550342130987292
0.9560117302052786
0.9560117302052786
0.95405669599218
0.9511241446725318
0.9481915933528836
0.9452590420332356
0.9433040078201368
0.9423264907135877
0.9423264907135877
0.9442815249266864
0.9521016617790812
0.9696969696969696
0.9990224828934506
1.0478983382209188
1.121212121212121
1.2228739002932552
1.3528836754643203
1.530791788856305
1.7350928641251222
1.9257086999022484
2.1055718475073317
2.272727272727273
2.4222873900293256
2.535679374389052
2.6236559139784945
2.7067448680351904
2.7781036168132944
2.8377321603128056
2.886608015640274
2.9257086999022484
2.9550342130987293
2.975562072336266
2.9872922776148583
2.988269794721408
2.979472140762464
2.960899315738025
2.932551319648094
2.895405669599218
2.84652981427175
2.7869012707722387
2.716520039100684
2.6158357771261
2.5210166177908118
2.452590420332356
2.376344086021505
2.3010752688172045
2.23069403714565
2.16911045943304
2.1192570869990224
2.071358748778104
2.0234604105571847
1.986314760508309
1.95405669599218
1.9305962854349952
1.9042033235581624
1.87683284457478
1.855327468230694
1.8211143695014664
1.7781036168132942
1.7438905180840665
1.7233626588465298
1.6950146627565983
1.6549364613880744
1.6275659824046922
1.5992179863147604
1.564027370478983
1.533724340175953
1.512218963831867
1.4916911045943304
1.466275659824047
1.4437927663734116
1.423264907135875
1.4086021505376345
1.3978494623655917
1.3861192570869991
1.3743890518084063
1.3626588465298142
1.3509286412512218
1.3391984359726294
1.3294232649071358
1.3206256109481915
1.3128054740957966
1.305962854349951
1.2981427174975562
1.2942326490713587
1.29227761485826
1.2883675464320623
1.2825024437927663
1.2766373411534702
1.2688172043010753
1.2609970674486803
1.252199413489736
1.2443792766373412
1.2365591397849462
1.2287390029325511
1.2218963831867058
1.2189638318670577
1.2189638318670577
1.2179863147605083
1.2160312805474096
1.2140762463343109
1.2111436950146628
1.2072336265884651
1.2023460410557183
1.1964809384164223
1.1896383186705768
1.1827956989247312
1.176930596285435
1.176930596285435
1.176930596285435
1.176930596285435
1.176930596285435
1.176930596285435
1.176930596285435
1.1700879765395895
1.1759530791788857
1.1886608015640274
1.2130987292277615
1.2541544477028348
1.316715542521994
1.404692082111437
1.4975562072336266
1.6011730205278591
1.7341153470185728
1.8866080156402736
2.047898338220919
2.2082111436950145
2.357771260997068
2.4916911045943304
2.6050830889540566
2.6989247311827955
2.773216031280548
2.8299120234604107
2.8729227761485827
2.8963831867057674
2.90811339198436
2.917888563049853
2.9237536656891496
2.9227761485826003
2.9149560117302054
2.897360703812317
2.868035190615836
2.8269794721407626
2.773216031280548
2.70772238514174
2.633431085043988
2.560117302052786
2.486803519061584
2.406647116324536
2.326490713587488
2.249266862170088
2.177908113391984
2.113391984359726
2.058651026392962
2.013685239491691
1.9765395894428155
1.9442815249266865
1.9159335288367547
1.889540566959922
1.866080156402737
1.8435972629521016
1.8172043010752688
1.7878787878787878
1.7556207233626588
1.7233626588465298
1.6911045943304008
1.656891495601173
1.6226783968719452
1.5894428152492668
1.5562072336265884
1.5239491691104594
1.498533724340176
1.47702834799609
1.4535679374389052
1.4291300097751711
1.4066471163245358
1.3870967741935485
1.370478983382209
1.3548387096774193
1.3401759530791788
1.327468230694037
1.316715542521994
1.305962854349951
1.2942326490713587
1.2854349951124144
1.278592375366569
1.2688172043010753
1.2580645161290325
1.2473118279569892
1.2365591397849462
1.227761485826002
1.2189638318670577
1.2101661779081134
1.2023460410557183
1.1945259042033236
1.1857282502443791
1.1808406647116323
1.1759530791788857
1.1691104594330402
1.160312805474096
1.152492668621701
1.1456500488758554
1.1397849462365592
1.133919843597263
1.1280547409579669
1.1231671554252198
1.118279569892473
1.115347018572825
1.1143695014662756
1.1163245356793745
1.1192570869990224
1.121212121212121
1.1221896383186705
1.1221896383186705
1.121212121212121
1.1192570869990224
1.118279569892473
1.118279569892473
1.118279569892473
1.121212121212121
1.1290322580645162
1.142717497556207
1.1652003910068427
1.2023460410557183
1.2590420332355816
1.3391984359726294
1.4457478005865103
1.5757575757575757
1.7253176930596286
1.8885630498533723
2.056695992179863
2.218963831867057
2.36950146627566
2.5034213098729228
2.6041055718475072
2.679374389051808
2.748778103616813
2.807429130009776
2.852394916911046
2.886608015640274
2.9120234604105573
2.929618768328446
2.9393939393939394
2.940371456500489
2.932551319648094
2.9149560117302054
2.8885630498533725
2.8533724340175954
2.807429130009776
2.750733137829912
2.6832844574780057
2.6080156402737047
2.5268817204301075
2.443792766373412
2.361681329423265
2.283479960899316
2.212121212121212
2.1495601173020527
2.0957966764418376
2.0527859237536656
2.018572825024438
1.988269794721408
1.9618768328445748
1.9364613880742916
1.9120234604105573
1.8875855327468232
1.8621700879765395
1.8347996089931573
1.8054740957966764
1.7741935483870968
1.7429130009775171
1.715542521994135
1.6695992179863148
1.6080156402737047
1.5591397849462365
1.517106549364614
1.478983382209189
1.4437927663734116
1.412512218963832
1.383186705767351
1.356793743890518
1.332355816226784
1.310850439882698
1.2913000977517106
1.2776148582600195
1.267839687194526
1.2561094819159335
1.2443792766373412
1.2336265884652982
1.2228739002932552
1.2121212121212122
1.2023460410557183
1.1915933528836755
1.1808406647116323
1.1710654936461389
1.1622678396871946
1.1573802541544478
1.1534701857282503
1.147605083088954
1.142717497556207
1.1368523949169111
1.1300097751710656
1.1231671554252198
1.115347018572825
1.10752688172043
1.1006842619745845
1.0948191593352885
1.0909090909090908
1.0879765395894427
1.0879765395894427
1.0899315738025417
1.0909090909090908
1.0899315738025417
1.0879765395894427
1.086021505376344
1.083088954056696
1.0772238514173995
1.0713587487781036
1.067448680351906
1.064516129032258
1.06158357771261
1.06158357771261
1.0625610948191593
1.06158357771261
1.06158357771261
1.067448680351906
1.0811339198435972
1.10752688172043
1.1515151515151516
1.2160312805474096
1.3049853372434017
1.4193548387096775
1.5571847507331378
1.6911045943304008
1.827956989247312
1.994134897360704
2.175953079178885
2.3626588465298144
2.544477028347996
2.7116324535679373
2.8582600195503423
2.979472140762464
3.0733137829912023
3.139784946236559
3.1837732160312804
3.2082111436950145
3.212121212121212
3.203323558162268
3.1867057673509285
3.1593352883675463
3.120234604105572
3.0684261974584555
3.003910068426197
2.927663734115347
