ppg
1.4330400782013686
1.4007820136852396
1.3763440860215057
1.356793743890518
1.335288367546432
1.3128054740957966
1.2903225806451613
1.2688172043010753
1.24633431085044
1.224828934506354
1.2052785923753666
1.1857282502443791
1.1671554252199414
1.1495601173020529
1.1378299120234605
1.1290322580645162
1.1173020527859236
1.1055718475073313
1.093841642228739
1.0811339198435972
1.0684261974584557
1.0557184750733135
1.0439882697947214
1.0312805474095796
1.0195503421309873
1.0087976539589445
1.0009775171065494
1.0009775171065494
1.0097751710654936
1.024437927663734
1.0527859237536656
1.0977517106549364
1.160312805474096
1.2404692082111437
1.335288367546432
1.4418377321603129
1.5571847507331378
1.6764418377321604
1.793743890518084
1.8944281524926687
1.9843597262952104
2.078201368523949
2.1700879765395893
2.257086999022483
2.3382209188660803
2.4115347018572826
2.4789833822091887
2.5425219941348973
2.601173020527859
2.6559139784946235
2.705767350928641
2.750733137829912
2.7839687194525906
2.809384164222874
2.8377321603128056
2.865102639296188
2.887585532746823
2.906158357771261
2.919843597262952
2.929618768328446
2.9315738025415445
2.927663734115347
2.916911045943304
2.900293255131965
2.87683284457478
2.827956989247312
2.774193548387097
2.735092864125122
2.6901270772238512
2.638318670576735
2.582600195503421
2.5239491691104594
2.463343108504399
2.401759530791789
2.3421309872922778
2.2854349951124147
2.23069403714565
2.1847507331378297
2.1436950146627565
2.101661779081134
2.06158357771261
2.022482893450636
1.9843597262952104
1.9472140762463344
1.911045943304008
1.8758553274682308
1.8406647116324533
1.8064516129032255
1.7732160312805474
1.7458455522971652
1.7204301075268815
1.6911045943304008
1.6598240469208212
1.6275659824046922
1.5962854349951123
1.5650048875855327
1.5347018572825024
1.5034213098729228
1.4721407624633431
1.4408602150537635
1.409579667644184
1.380254154447703
1.3577712609970674
1.3401759530791788
1.3196480938416422
1.2981427174975562
1.2766373411534702
1.2551319648093842
1.2336265884652982
1.2121212121212122
1.1925708699902249
1.1730205278592376
1.1544477028347997
1.1358748778103618
1.1241446725317692
1.115347018572825
1.1036168132942326
1.088954056695992
1.0742913000977516
1.0586510263929618
1.0439882697947214
1.0312805474095796
1.018572825024438
1.0068426197458455
0.9960899315738024
0.9872922776148584
0.9824046920821116
0.9843597262952102
0.9951124144672532
1.0156402737047898
1.0498533724340176
1.1016617790811338
1.198435972629521
1.2971652003910068
1.3763440860215057
1.47702834799609
1.5884652981427174
1.7038123167155426
1.8172043010752688
1.913978494623656
1.9990224828934504
2.0879765395894427
2.174975562072336
2.257086999022483
2.3489736070381237
2.4281524926686218
2.4819159335288368
2.536656891495601
2.590420332355816
2.6422287390029324
2.6911045943304006
2.7282502443792764
2.757575757575758
2.788856304985337
2.8181818181818183
2.844574780058651
2.8670576735092865
2.8836754643206257
2.895405669599218
2.898338220918866
2.8963831867057674
2.8905180840664717
2.87683284457478
2.8563049853372435
2.8299120234604107
2.798631476050831
2.760508308895406
2.7155425219941347
2.665689149560117
2.610948191593353
2.552297165200391
2.4789833822091887
2.4144672531769307
2.367546432062561
2.3167155425219943
2.259042033235582
2.19941348973607
2.158357771260997
2.1270772238514173
2.081133919843597
2.0303030303030303
1.9960899315738023
1.9608993157380252
1.9178885630498532
1.8797653958944285
1.844574780058651
1.8103616813294232
1.7761485826001957
1.750733137829912
1.7253176930596286
1.6911045943304008
1.656891495601173
1.6236559139784943
1.5894428152492668
1.5562072336265884
1.5239491691104594
1.4916911045943304
1.4613880742913
1.43108504398827
1.401759530791789
1.380254154447703
1.3636363636363635
1.348973607038123
1.3313782991202343
1.3088954056695992
1.2883675464320623
1.2688172043010753
1.2502443792766371
1.2316715542521994
1.2130987292277615
1.1945259042033236
1.1779081133919844
1.1622678396871946
1.152492668621701
1.1456500488758554
1.1348973607038124
1.1241446725317692
1.115347018572825
1.10752688172043
1.0977517106549364
1.0879765395894427
1.0772238514173995
1.0664711632453567
1.056695992179863
1.0488758553274682
1.0478983382209188
1.053763440860215
1.0664711632453567
1.0879765395894427
1.1221896383186705
1.1720430107526882
1.2394916911045943
1.321603128054741
1.41544477028348
1.5190615835777126
1.629521016617791
1.7409579667644184
1.8514173998044965
1.945259042033236
2.0283479960899315
2.1163245356793743
2.201368523949169
2.281524926686217
2.355816226783969
2.4242424242424243
2.486803519061584
2.5434995112414467
2.595307917888563
2.6422287390029324
2.6852394916911044
2.716520039100684
2.739980449657869
2.764418377321604
2.7869012707722387
2.807429130009776
2.8260019550342133
2.8396871945259043
2.8475073313782997
2.849462365591398
2.8455522971652005
2.834799608993157
2.8181818181818183
2.793743890518084
2.764418377321604
2.730205278592375
2.6901270772238512
2.644183773216031
2.5943304007820136
2.541544477028348
2.487781036168133
2.4349951124144678
2.383186705767351
2.333333333333333
2.286412512218964
2.242424242424242
2.204301075268817
2.16911045943304
2.131964809384164
2.0948191593352883
2.058651026392962
2.022482893450636
1.988269794721408
1.95405669599218
1.9188660801564028
1.884652981427175
1.8504398826979471
1.8172043010752688
1.7839687194525904
1.7565982404692082
1.7311827956989247
1.7018572825024438
1.6695992179863148
1.6373411534701858
1.606060606060606
1.5757575757575757
1.5454545454545454
1.5151515151515151
1.4858260019550342
1.458455522971652
1.43108504398827
1.409579667644184
1.391006842619746
1.3714565004887584
1.3509286412512218
1.3294232649071358
1.3088954056695992
1.289345063538612
1.270772238514174
1.252199413489736
1.2336265884652982
1.2160312805474096
1.1994134897360704
1.18475073313783
1.1749755620723363
1.1681329423264908
1.1583577712609971
1.1466275659824048
1.133919843597263
1.133919843597263
1.133919843597263
1.133919843597263
1.133919843597263
1.133919843597263
1.133919843597263
1.133919843597263
1.133919843597263
1.1231671554252198
1.1515151515151516
1.1925708699902249
1.2502443792766371
1.324535679374389
1.41544477028348
1.521016617790811
1.635386119257087
1.7546432062561097
1.8758553274682308
1.9951124144672527
2.110459433040078
2.2052785923753664
2.2883675464320627
2.376344086021505
2.462365591397849
2.5434995112414467
2.6177908113391983
2.6852394916911044
2.747800586510264
2.8044965786901277
2.855327468230694
2.900293255131965
2.941348973607038
2.9696969696969697
2.991202346041056
3.01564027370479
3.038123167155425
3.0576735092864125
3.0733137829912023
3.083088954056696
3.0879765395894427
3.0869990224828934
3.080156402737048
3.065493646138808
3.043010752688172
3.0127077223851417
2.9775171065493646
2.93841642228739
2.89247311827957
2.8406647116324537
2.782991202346041
2.7223851417399803
2.659824046920821
2.598240469208211
2.536656891495601
2.4760508308895406
2.418377321603128
2.363636363636364
2.3167155425219943
2.274682306940372
2.232649071358749
2.1915933528836757
2.1515151515151514
2.113391984359726
2.075268817204301
2.037145650048876
1.9990224828934504
1.9608993157380252
1.9237536656891496
1.8875855327468232
1.857282502443793
1.8299120234604105
1.7986314760508308
1.7644183773216031
1.729227761485826
1.694037145650049
1.6608015640273706
1.6285434995112416
1.5972629521016617
1.5669599217986314
1.5386119257087
1.5102639296187683
1.4819159335288368
1.4594330400782014
1.439882697947214
1.418377321603128
1.396871945259042
1.3763440860215057
1.356793743890518
1.3372434017595307
1.3196480938416422
1.3020527859237536
1.284457478005865
1.2658846529814272
1.2482893450635386
1.2375366568914956
1.2297165200391007
1.2179863147605083
1.2052785923753666
1.1925708699902249
1.1788856304985338
1.1652003910068427
1.1515151515151516
1.1378299120234605
1.1251221896383188
1.1124144672531768
1.1016617790811338
1.0948191593352885
1.096774193548387
1.10752688172043
1.1290322580645162
1.1652003910068427
1.2179863147605083
1.2873900293255132
1.3734115347018572
1.4750733137829912
1.5884652981427174
1.7086999022482894
1.83088954056696
1.951124144672532
2.0527859237536656
2.1417399804496577
2.2346041055718477
2.326490713587488
2.4144672531769307
2.495601173020528
2.5718475073313782
2.643206256109482
2.708699902248289
2.76930596285435
2.8260019550342133
2.877810361681329
2.924731182795699
2.9589442815249267
2.986314760508309
3.016617790811339
3.04594330400782
3.071358748778104
3.09188660801564
3.1055718475073317
3.114369501466276
3.117302052785924
3.114369501466276
3.1055718475073317
3.090909090909091
3.0684261974584555
3.0410557184750733
3.006842619745845
2.9667644183773216
2.920821114369501
2.8699902248289346
2.8132942326490715
2.752688172043011
2.6901270772238512
2.627565982404692
2.5650048875855327
2.504398826979472
2.4457478005865103
2.3958944281524928
2.350928641251222
2.304007820136853
2.257086999022483
2.2111436950146626
2.166177908113392
2.1221896383186705
2.0791788856304985
2.037145650048876
1.997067448680352
1.956989247311828
1.9178885630498532
1.884652981427175
1.8533724340175952
1.818181818181818
1.7820136852394917
1.7458455522971652
1.710654936461388
1.675464320625611
1.6383186705767352
1.6011730205278591
1.5650048875855327
1.530791788856305
1.498533724340176
1.4682306940371457
1.444770283479961
1.4252199413489737
1.4027370478983383
1.3792766373411536
1.3548387096774193
1.3313782991202343
1.3079178885630498
1.2854349951124144
1.262952101661779
1.241446725317693
1.2209188660801564
1.2013685239491692
1.187683284457478
1.1759530791788857
1.1612903225806452
1.147605083088954
1.1348973607038124
1.1231671554252198
1.1114369501466277
1.099706744868035
1.0879765395894427
1.0762463343108504
1.0654936461388074
1.0557184750733135
1.0488758553274682
1.0488758553274682
1.0576735092864125
1.0742913000977516
1.104594330400782
1.1505376344086022
1.2140762463343109
1.295210166177908
1.391006842619746
1.498533724340176
1.6138807429130009
1.7341153470185728
1.8533724340175952
1.9550342130987293
2.0449657869012707
2.139784946236559
2.233626588465298
2.32355816226784
2.406647116324536
2.4838709677419355
2.555229716520039
2.6207233626588464
2.6803519061583576
2.735092864125122
2.78494623655914
2.831867057673509
2.8670576735092865
2.8944281524926687
2.924731182795699
2.95405669599218
2.979472140762464
3.0009775171065494
3.0175953079178885
3.027370478983382
3.03128054740958
3.029325513196481
3.021505376344086
3.006842619745845
2.98435972629521
2.956989247311828
2.9237536656891496
2.884652981427175
2.8396871945259043
2.788856304985337
2.7331378299120237
2.673509286412512
2.611925708699902
2.549364613880743
2.484848484848485
2.423264907135875
2.364613880742913
2.313782991202346
2.267839687194526
2.20039100684262
2.124144672531769
2.0664711632453567
2.0175953079178885
1.9745845552297163
1.9345063538611929
1.8963831867057677
1.8602150537634408
1.825024437927664
1.790811339198436
1.7624633431085044
1.7350928641251222
1.7038123167155426
1.6705767350928642
1.635386119257087
1.598240469208211
1.5620723362658846
1.5268817204301075
1.4916911045943304
1.457478005865103
1.4242424242424243
1.392961876832845
1.3685239491691104
1.3499511241446724
1.3284457478005864
1.3049853372434017
1.281524926686217
1.2590420332355816
1.2375366568914956
1.2160312805474096
1.195503421309873
1.1759530791788857
1.1564027370478984
1.1378299120234605
1.1202346041055715
1.1094819159335287
1.1026392961876832
1.093841642228739
1.0840664711632453
1.072336265884653
1.0606060606060606
1.0478983382209188
1.0342130987292275
1.021505376344086
1.0097751710654936
1.0
0.9921798631476052
0.9902248289345064
0.9941348973607038
1.0009775171065494
1.0166177908113392
1.0439882697947214
1.0869990224828934
1.1485826001955035
1.2258064516129032
1.3176930596285434
1.4222873900293256
1.5347018572825024
1.651026392961877
1.7683284457478006
1.868035190615836
1.956989247311828
2.0498533724340176
2.139784946236559
2.2248289345063537
2.303030303030303
2.376344086021505
2.443792766373412
2.504398826979472
2.560117302052786
2.611925708699902
2.659824046920821
2.696969696969697
2.727272727272727
2.7614858260019552
2.793743890518084
2.823069403714565
2.8475073313782997
2.868035190615836
2.8826979472140764
2.8914956011730206
2.89345063538612
2.889540566959922
2.878787878787879
2.8611925708699903
2.8377321603128056
2.809384164222874
2.774193548387097
2.732160312805474
2.6852394916911044
2.633431085043988
2.578690127077224
2.5219941348973607
2.462365591397849
2.4027370478983383
2.343108504398827
2.286412512218964
2.236559139784946
2.1915933528836757
2.146627565982405
2.103616813294233
2.0635386119257086
2.0254154447702835
1.9872922776148585
1.9501466275659824
1.913978494623656
1.878787878787879
1.844574780058651
1.8103616813294232
1.7761485826001957
1.747800586510264
1.7204301075268815
1.6901270772238517
1.656891495601173
1.6236559139784943
1.590420332355816
1.5581622678396871
1.5278592375366569
1.4975562072336266
1.469208211143695
1.4418377321603129
1.41544477028348
1.393939393939394
1.3763440860215057
1.3548387096774193
1.332355816226784
1.3088954056695992
1.2864125122189638
1.2649071358748778
1.2434017595307918
1.2218963831867058
1.2003910068426198
1.1808406647116323
1.1612903225806452
1.142717497556207
1.1290322580645162
1.118279569892473
1.104594330400782
1.0899315738025417
1.0762463343108504
1.0635386119257086
1.050830889540567
1.0381231671554252
1.0254154447702837
1.0127077223851415
1.0019550342130987
0.9921798631476052
0.9882697947214076
0.989247311827957
0.9921798631476052
1.0019550342130987
1.021505376344086
1.053763440860215
1.1026392961876832
1.1681329423264908
1.2482893450635386
1.3421309872922775
1.4457478005865103
1.5562072336265884
1.6686217008797657
1.7673509286412512
1.857282502443793
1.9530791788856303
2.048875855327468
2.1388074291300097
2.222873900293255
2.300097751710655
2.36950146627566
2.432062561094819
2.489736070381232
2.5425219941348973
2.590420332355816
2.6265884652981426
2.6559139784946235
2.689149560117302
2.7223851417399803
2.7517106549364616
2.7781036168132944
2.80058651026393
2.8181818181818183
2.8289345063538613
2.834799608993157
2.834799608993157
2.8289345063538613
2.81622678396872
2.7966764418377323
2.7702834799608995
2.73802541544477
2.6989247311827955
2.653958944281525
2.6050830889540566
2.5532746823069403
2.4995112414467253
2.444770283479961
2.3900293255131966
2.337243401759531
2.2854349951124147
2.2404692082111435
2.20039100684262
2.1593352883675463
2.120234604105572
2.081133919843597
2.0439882697947214
2.007820136852395
1.9716520039100685
1.935483870967742
1.8983382209188664
1.8621700879765395
1.8269794721407624
1.7927663734115349
1.7644183773216031
1.7390029325513197
1.7096774193548387
1.6774193548387095
1.6441837732160314
1.6109481915933528
1.5777126099706744
1.544477028347996
1.512218963831867
1.4819159335288368
1.452590420332356
1.4242424242424243
1.4007820136852396
1.380254154447703
1.356793743890518
1.3333333333333333
1.3098729227761483
1.2873900293255132
1.2658846529814272
1.24633431085044
1.2267839687194526
1.2082111436950147
1.1896383186705768
1.1720430107526882
1.1564027370478984
1.1466275659824048
1.1397849462365592
1.1290322580645162
1.1173020527859236
1.1055718475073313
1.093841642228739
1.083088954056696
1.072336265884653
1.06158357771261
1.0518084066471165
1.0449657869012707
1.043010752688172
1.0498533724340176
1.064516129032258
1.086021505376344
1.1192570869990224
1.1671554252199414
1.23069403714565
1.3088954056695992
1.3998044965786902
1.501466275659824
1.6236559139784943
1.758553274682307
1.884652981427175
1.9902248289345064
2.083088954056696
2.179863147605083
2.274682306940372
2.364613880742913
2.447702834799609
2.52297165200391
2.589442815249267
2.649071358748778
2.702834799608993
2.7517106549364616
2.795698924731183
2.833822091886608
2.8611925708699903
2.881720430107527
2.9042033235581624
2.924731182795699
2.943304007820137
2.9579667644183774
2.9687194525904204
2.9745845552297165
2.9745845552297165
2.9667644183773216
2.952101661779081
2.9315738025415445
2.903225806451613
2.8699902248289346
2.8299120234604107
2.782991202346041
2.7311827956989245
2.675464320625611
2.6158357771261
2.5562072336265884
2.4975562072336266
2.4408602150537635
2.3870967741935485
2.3362658846529816
2.289345063538612
2.249266862170088
2.2130987292277613
2.174975562072336
2.136852394916911
2.099706744868035
2.0635386119257086
2.0283479960899315
1.992179863147605
1.9550342130987293
1.9178885630498532
1.881720430107527
1.8465298142717497
1.8172043010752688
1.7898338220918866
1.758553274682307
1.7253176930596286
1.6920821114369502
1.6588465298142718
1.6256109481915937
1.5923753665689149
1.560117302052786
1.5288367546432062
1.499511241446725
1.4701857282502444
1.4418377321603129
1.4193548387096775
1.4007820136852396
1.3792766373411536
1.356793743890518
1.3362658846529814
1.316715542521994
1.2981427174975562
1.2805474095796676
1.2639296187683284
1.2473118279569892
1.23069403714565
1.2150537634408602
1.2052785923753666
1.198435972629521
1.187683284457478
1.1749755620723363
1.163245356793744
1.152492668621701
1.1407624633431086
1.1300097751710656
1.1192570869990224
1.1094819159335287
1.1006842619745845
1.0948191593352885
1.0948191593352885
1.1036168132942326
1.1221896383186705
1.152492668621701
1.198435972629521
1.2609970674486803
1.3391984359726294
1.4330400782013686
1.5386119257087
1.6529814271749756
1.7732160312805474
1.8934506353861196
2.010752688172043
2.1094819159335287
2.1955034213098727
2.2854349951124147
2.372434017595308
2.4545454545454546
2.5317693059628543
2.6041055718475072
2.670576735092864
2.732160312805474
2.789833822091887
2.843597262952102
2.89247311827957
2.9374389051808407
2.9696969696969697
2.9931573802541545
3.018572825024438
3.043010752688172
3.0635386119257086
3.0791788856304985
3.089931573802541
3.0957966764418376
3.0977517106549364
3.093841642228739
3.083088954056696
3.065493646138808
3.042033235581622
3.0117302052785924
2.9765395894428157
2.9335288367546437
2.8836754643206257
2.8289345063538613
2.7702834799608995
2.708699902248289
2.6451612903225805
2.582600195503421
2.520039100684262
2.4594330400782014
2.401759530791789
2.3528836754643208
2.3088954056695994
2.2639296187683287
2.219941348973607
2.176930596285435
2.134897360703812
2.093841642228739
2.0518084066471163
2.010752688172043
1.970674486803519
1.9315738025415443
1.8934506353861196
1.8602150537634408
1.8299120234604105
1.7956989247311828
1.7595307917888563
1.7223851417399805
1.6842619745845553
1.64613880742913
1.608993157380254
1.573802541544477
1.5386119257087
1.5053763440860215
1.4731182795698925
1.4418377321603129
1.418377321603128
1.3988269794721409
1.3763440860215057
1.3528836754643203
1.3294232649071358
1.305962854349951
1.2834799608993157
1.2609970674486803
1.2404692082111437
1.2218963831867058
1.2043010752688172
1.1867057673509287
1.1759530791788857
1.1671554252199414
1.155425219941349
1.142717497556207
1.130987292277615
1.1202346041055715
1.1085043988269794
1.0977517106549364
1.086021505376344
1.072336265884653
1.0586510263929618
1.0478983382209188
1.0439882697947214
1.0488758553274682
1.0635386119257086
1.088954056695992
1.1290322580645162
1.1867057673509287
1.2619745845552297
1.3528836754643203
1.4594330400782014
1.5747800586510263
1.6950146627565983
1.81524926686217
1.9315738025415443
2.029325513196481
2.115347018572825
2.2052785923753664
2.29227761485826
2.375366568914956
2.453567937438905
2.525904203323558
2.592375366568915
2.653958944281525
2.7116324535679373
2.764418377321604
2.8132942326490715
2.8582600195503423
2.8914956011730206
2.917888563049853
2.946236559139785
2.973607038123167
2.997067448680352
3.01564027370479
3.027370478983382
3.0332355816226784
3.032258064516129
3.026392961876833
3.0146627565982405
2.997067448680352
2.972629521016618
2.9423264907135875
2.905180840664712
2.8611925708699903
2.811339198435973
2.7565982404692084
2.697947214076246
2.634408602150537
2.56891495601173
2.504398826979472
2.441837732160313
2.3822091886608017
2.3304007820136854
2.283479960899316
2.2355816226783967
2.188660801564027
2.144672531769306
2.103616813294233
2.064516129032258
2.0254154447702835
1.986314760508309
1.949169110459433
1.9120234604105573
1.8729227761485825
1.833822091886608
1.7996089931573802
1.76930596285435
1.7360703812316716
1.6881720430107527
1.6334310850439884
1.5894428152492668
1.552297165200391
1.5190615835777126
1.4868035190615836
1.456500488758553
1.426197458455523
1.3958944281524928
1.3734115347018572
1.35386119257087
1.3313782991202343
1.3069403714565004
1.2825024437927663
1.2580645161290325
1.2336265884652982
1.209188660801564
1.1867057673509287
1.1652003910068427
1.1466275659824048
1.1300097751710656
1.1143695014662756
1.1036168132942326
1.096774193548387
1.0869990224828934
1.075268817204301
1.0625610948191593
1.0478983382209188
1.032258064516129
1.0175953079178883
1.0048875855327468
0.9941348973607038
0.9843597262952102
0.9775171065493646
0.978494623655914
0.9863147605083088
1.0
1.0234604105571847
1.0606060606060606
1.1143695014662756
1.18475073313783
1.2697947214076246
1.3685239491691104
1.4760508308895406
1.5884652981427174
1.7018572825024438
1.81524926686217
1.9120234604105573
1.9980449657869013
2.088954056695992
2.177908113391984
2.26197458455523
2.340175953079179
2.412512218963832
2.4789833822091887
2.539589442815249
2.5962854349951123
2.6480938416422286
2.695014662756598
2.729227761485826
2.755620723362659
2.7859237536656893
2.8152492668621703
2.841642228739003
2.863147605083089
2.8797653958944283
2.8905180840664717
2.895405669599218
2.895405669599218
2.889540566959922
2.87683284457478
2.857282502443793
2.832844574780059
2.8025415444770285
2.7653958944281527
2.720430107526881
2.670576735092864
2.6158357771261
2.558162267839687
2.4995112414467253
2.439882697947214
2.3812316715542523
2.324535679374389
2.269794721407625
2.220918866080156
2.176930596285435
2.132942326490713
2.088954056695992
2.04594330400782
2.005865102639296
1.967741935483871
1.9305962854349952
1.8934506353861196
1.857282502443793
1.822091886608016
1.7878787878787878
1.7526881720430108
1.7223851417399805
1.694037145650049
1.66177908113392
1.6265884652981428
1.590420332355816
1.5542521994134897
1.5190615835777126
1.4838709677419355
1.4496578690127078
1.418377321603128
1.3900293255131966
1.3626588465298142
1.3421309872922775
1.3255131964809383
1.3040078201368523
1.2805474095796676
1.2580645161290325
1.2355816226783969
1.2140762463343109
1.1915933528836755
1.1691104594330402
1.1485826001955035
1.1280547409579669
1.10752688172043
1.088954056695992
1.078201368523949
1.0713587487781036
1.0625610948191593
1.0527859237536656
1.043010752688172
1.0312805474095796
1.018572825024438
1.0048875855327468
0.9912023460410556
0.9775171065493646
0.9657869012707724
0.9560117302052786
0.95405669599218
0.9589442815249268
0.9696969696969696
0.989247311827957
1.0234604105571847
1.0742913000977516
1.142717497556207
1.2267839687194526
1.324535679374389
1.43108504398827
1.543499511241447
1.6588465298142718
1.772238514173998
1.869012707722385
1.95405669599218
2.0439882697947214
2.132942326490713
2.2170087976539588
2.2952101661779083
2.367546432062561
2.4349951124144678
2.496578690127077
2.5532746823069403
2.6041055718475072
2.650048875855328
2.6832844574780057
2.7096774193548385
