ppg
2.035190615835777
1.9687194525904204
1.900293255131965
1.8318670576735088
1.7644183773216031
1.699902248289345
1.6373411534701858
1.5777126099706744
1.521016617790811
1.469208211143695
1.4203323558162269
1.3743890518084063
1.33822091886608
1.3079178885630498
1.2756598240469208
1.2453567937438903
1.2179863147605083
1.1945259042033236
1.176930596285435
1.1652003910068427
1.1583577712609971
1.1573802541544478
1.1622678396871946
1.1710654936461389
1.18475073313783
1.2013685239491692
1.2189638318670577
1.2355816226783969
1.2512218963831867
1.2658846529814272
1.284457478005865
1.3157380254154447
1.370478983382209
1.4594330400782014
1.587487781036168
1.75366568914956
1.949169110459433
2.1309872922776147
2.2991202346041058
2.47702834799609
2.6402737047898337
2.774193548387097
2.874877810361681
2.9423264907135875
2.9804496578690127
2.995112414467253
2.991202346041056
2.972629521016618
2.9423264907135875
2.905180840664712
2.86217008797654
2.811339198435973
2.7546432062561097
2.6930596285435
2.627565982404692
2.5591397849462365
2.487781036168133
2.4144672531769307
2.3391984359726297
2.26197458455523
2.1847507331378297
2.1163245356793743
2.0518084066471163
1.981427174975562
1.9090909090909087
1.8377321603128052
1.7673509286412512
1.6979472140762464
1.6304985337243405
1.565982404692082
1.5034213098729228
1.4437927663734116
1.3870967741935485
1.3333333333333333
1.29227761485826
1.2580645161290325
1.2209188660801564
1.1837732160312806
1.1485826001955035
1.118279569892473
1.0928641251221896
1.072336265884653
1.0576735092864125
1.0478983382209188
1.0449657869012707
1.0469208211143697
1.0547409579667644
1.067448680351906
1.0821114369501466
1.096774193548387
1.1124144672531768
1.126099706744868
1.13880742913001
1.155425219941349
1.1827956989247312
1.2316715542521994
1.310850439882698
1.4291300097751711
1.585532746823069
1.7438905180840665
1.90811339198436
2.0987292277614857
2.290322580645161
2.464320625610948
2.6080156402737047
2.718475073313783
2.7947214076246336
2.841642228739003
2.8641251221896384
2.865102639296188
2.850439882697948
2.825024437927664
2.792766373411535
2.7517106549364616
2.7038123167155423
2.650048875855328
2.592375366568915
2.530791788856305
2.4652981427174976
2.3978494623655915
2.3284457478005867
2.257086999022483
2.1847507331378297
2.1114369501466275
2.046920821114369
1.986314760508309
1.919843597262952
1.8514173998044965
1.782991202346041
1.7145650048875856
1.6471163245356797
1.581622678396872
1.5190615835777126
1.458455522971652
1.4007820136852396
1.3470185728250244
1.3049853372434017
1.2697947214076246
1.2316715542521994
1.1935483870967742
1.1485826001955035
1.1026392961876832
1.0664711632453567
1.0391006842619743
1.0175953079178883
1.002932551319648
0.9951124144672532
0.9931573802541545
0.9960899315738024
1.0058651026392962
1.0205278592375366
1.0381231671554252
1.056695992179863
1.0762463343108504
1.093841642228739
1.110459433040078
1.1290322580645162
1.155425219941349
1.2003910068426198
1.2746823069403714
1.3851417399804498
1.5073313782991202
1.6490713587487782
1.8318670576735088
2.035190615835777
2.2375366568914954
2.423264907135875
2.5806451612903225
2.7038123167155423
2.791788856304985
2.8484848484848486
2.877810361681329
2.884652981427175
2.873900293255132
2.8514173998044967
2.819159335288368
2.779081133919844
2.7311827956989245
2.677419354838709
2.618768328445748
2.5562072336265884
2.489736070381232
2.421309872922776
2.350928641251222
2.278592375366569
2.2052785923753664
2.139784946236559
2.078201368523949
2.010752688172043
1.9403714565004888
1.869012707722385
1.7976539589442817
1.7272727272727273
1.6588465298142718
1.5933528836754642
1.5298142717497556
1.4701857282502444
1.412512218963832
1.3587487781036167
1.316715542521994
1.2805474095796676
1.241446725317693
1.2023460410557183
1.166177908113392
1.133919843597263
1.1055718475073313
1.0811339198435972
1.0625610948191593
1.0488758553274682
1.0410557184750733
1.0391006842619743
1.0439882697947214
1.053763440860215
1.0664711632453567
1.0821114369501466
1.099706744868035
1.1173020527859236
1.133919843597263
1.1495601173020529
1.1681329423264908
1.1964809384164223
1.2453567937438903
1.324535679374389
1.4408602150537635
1.5698924731182795
1.7165200391006843
1.902248289345064
2.1065493646138806
2.30791788856305
2.490713587487781
2.644183773216031
2.7614858260019552
2.844574780058651
2.895405669599218
2.920821114369501
2.924731182795699
2.9120234604105573
2.887585532746823
2.854349951124145
2.812316715542522
2.764418377321604
2.710654936461388
2.6529814271749754
2.590420332355816
2.5249266862170088
2.4574780058651027
2.388074291300098
2.3167155425219943
2.243401759530792
2.177908113391984
2.1163245356793743
2.048875855327468
1.978494623655914
1.9071358748778104
1.836754643206256
1.7673509286412512
1.7008797653958945
1.6363636363636365
1.5747800586510263
1.5161290322580645
1.4604105571847508
1.41544477028348
1.3782991202346042
1.33822091886608
1.2981427174975562
1.260019550342131
1.224828934506354
1.1935483870967742
1.1671554252199414
1.1456500488758554
1.1290322580645162
1.1173020527859236
1.1114369501466277
1.1114369501466277
1.118279569892473
1.1300097751710656
1.144672531769306
1.1622678396871946
1.1808406647116323
1.198435972629521
1.2140762463343109
1.23069403714565
1.2531769305962854
1.2903225806451613
1.3519061583577712
1.447702834799609
1.5581622678396871
1.6901270772238517
1.865102639296188
2.065493646138808
2.271749755620724
2.4652981427174976
2.632453567937439
2.7673509286412514
2.866080156402737
2.9315738025415445
2.967741935483871
2.9804496578690127
2.9745845552297165
2.95405669599218
2.924731182795699
2.886608015640274
2.841642228739003
2.790811339198436
2.7341153470185726
2.6725317693059627
2.6070381231671558
2.5386119257087
2.4672531769305963
2.3929618768328447
2.317693059628544
2.249266862170088
2.1837732160312804
2.112414467253177
2.038123167155425
1.962854349951124
1.8885630498533723
1.81524926686217
1.7429130009775171
1.672531769305963
1.6050830889540566
1.5395894428152492
1.478005865102639
1.4281524926686218
1.3851417399804498
1.33822091886608
1.2903225806451613
1.2453567937438903
1.2043010752688172
1.1671554252199414
1.133919843597263
1.1065493646138806
1.0850439882697946
1.0694037145650048
1.0596285434995112
1.0557184750733135
1.0576735092864125
1.0654936461388074
1.075268817204301
1.088954056695992
1.1055718475073313
1.1231671554252198
1.1397849462365592
1.1544477028347997
1.1700879765395895
1.1896383186705768
1.2238514173998043
1.2834799608993157
1.3587487781036167
1.458455522971652
1.603128054740958
1.782991202346041
1.9833822091886608
2.1867057673509285
2.376344086021505
2.539589442815249
2.6695992179863146
2.764418377321604
2.8269794721407626
2.86217008797654
2.874877810361681
2.8690127077223853
2.849462365591398
2.820136852394917
2.782013685239492
2.736070381231672
2.684261974584555
2.627565982404692
2.565982404692082
2.501466275659824
2.434017595307918
2.364613880742913
2.2932551319648096
2.2277614858260018
2.166177908113392
2.0977517106549364
2.0254154447702835
1.9521016617790807
1.8778103616813293
1.8035190615835777
1.7311827956989247
1.6598240469208212
1.590420332355816
1.5239491691104594
1.4604105571847508
1.4007820136852396
1.3519061583577712
1.310850439882698
1.2658846529814272
1.2209188660801564
1.176930596285435
1.1358748778103618
1.0987292277614855
1.0664711632453567
1.0391006842619743
1.0175953079178883
1.0048875855327468
1.0
1.0009775171065494
1.0068426197458455
1.0146627565982405
1.0263929618768328
1.0420332355816226
1.0606060606060606
1.0801564027370478
1.099706744868035
1.1173020527859236
1.133919843597263
1.1534701857282503
1.18475073313783
1.2375366568914956
1.3040078201368523
1.3949169110459434
1.530791788856305
1.7028347996089932
1.900293255131965
2.1055718475073317
2.303030303030303
2.47702834799609
2.619745845552297
2.727272727272727
2.801564027370479
2.84652981427175
2.8641251221896384
2.86217008797654
2.8484848484848486
2.8240469208211145
2.789833822091887
2.747800586510264
2.6989247311827955
2.644183773216031
2.5855327468230693
2.5239491691104594
2.458455522971652
2.391006842619746
2.321603128054741
2.259042033235582
2.198435972629521
2.131964809384164
2.06158357771261
1.989247311827957
1.916911045943304
1.8455522971652003
1.7741935483870968
1.704789833822092
1.6383186705767352
1.573802541544477
1.512218963831867
1.4623655913978495
1.418377321603128
1.3714565004887584
1.324535679374389
1.2795698924731185
1.2375366568914956
1.198435972629521
1.163245356793744
1.130987292277615
1.1036168132942326
1.0811339198435972
1.0635386119257086
1.0518084066471165
1.0488758553274682
1.0518084066471165
1.0576735092864125
1.067448680351906
1.0811339198435972
1.0977517106549364
1.1163245356793745
1.1348973607038124
1.152492668621701
1.1691104594330402
1.1886608015640274
1.2189638318670577
1.2590420332355816
1.3196480938416422
1.4173998044965788
1.555229716520039
1.7272727272727273
1.9237536656891496
2.1280547409579667
2.324535679374389
2.498533724340176
2.6422287390029324
2.750733137829912
2.8260019550342133
2.8719452590420333
2.8905180840664717
2.889540566959922
2.87683284457478
2.852394916911046
2.8181818181818183
2.776148582600196
2.727272727272727
2.6725317693059627
2.613880742913001
2.552297165200391
2.487781036168133
2.421309872922776
2.3597262952101663
2.300097751710655
2.2346041055718477
2.1652003910068425
2.093841642228739
2.022482893450636
1.9501466275659824
1.878787878787879
1.8084066471163245
1.739980449657869
1.6744868035190617
1.6109481915933528
1.5591397849462365
1.5141739980449658
1.4652981427174976
1.41544477028348
1.367546432062561
1.3225806451612905
1.2795698924731185
1.2404692082111437
1.2052785923753666
1.173998044965787
1.1466275659824048
1.1241446725317692
1.10752688172043
1.0987292277614855
1.0957966764418376
1.0957966764418376
1.099706744868035
1.1085043988269794
1.1221896383186705
1.1397849462365592
1.1583577712609971
1.176930596285435
1.1935483870967742
1.2111436950146628
1.2336265884652982
1.262952101661779
1.3079178885630498
1.3841642228739004
1.498533724340176
1.651026392961877
1.835777126099707
2.040078201368524
2.24633431085044
2.4389051808406648
2.6050830889540566
2.73802541544477
2.835777126099707
2.9012707722385143
2.9345063538611926
2.9442815249266863
2.9423264907135875
2.927663734115347
2.902248289345064
2.8670576735092865
2.8240469208211145
2.7751710654936463
2.721407624633431
2.662756598240469
2.60019550342131
2.5347018572825024
2.4731182795698925
2.412512218963832
2.345063538611926
2.274682306940372
2.2023460410557183
2.1300097751710654
2.056695992179863
1.9843597262952104
1.9130009775171064
1.842619745845552
1.7741935483870968
1.7067448680351909
1.6422287390029326
1.5884652981427174
1.541544477028348
1.490713587487781
1.4389051808406648
1.3900293255131966
1.343108504398827
1.2991202346041055
1.260019550342131
1.224828934506354
1.1945259042033236
1.1681329423264908
1.147605083088954
1.1348973607038124
1.1290322580645162
1.126099706744868
1.126099706744868
1.130987292277615
1.1397849462365592
1.152492668621701
1.1681329423264908
1.18475073313783
1.2003910068426198
1.2140762463343109
1.2287390029325511
1.2502443792766371
1.2795698924731185
1.3264907135874875
1.4066471163245358
1.525904203323558
1.683284457478006
1.871945259042033
2.0762463343108504
2.278592375366569
2.463343108504399
2.6207233626588464
2.7438905180840663
2.831867057673509
2.8826979472140764
2.906158357771261
2.913978494623656
2.906158357771261
2.8856304985337244
2.854349951124145
2.814271749755621
2.7653958944281527
2.710654936461388
2.6510263929618767
2.587487781036168
2.520039100684262
2.4486803519061584
2.383186705767351
2.320625610948192
2.2521994134897363
2.179863147605083
2.1055718475073317
2.0303030303030303
1.95405669599218
1.878787878787879
1.804496578690127
1.732160312805474
1.6608015640273706
1.5923753665689149
1.5347018572825024
1.4838709677419355
1.4291300097751711
1.3743890518084063
1.3206256109481915
1.2697947214076246
1.2218963831867058
1.1779081133919844
1.1368523949169111
1.1006842619745845
1.0684261974584557
1.0410557184750733
1.0195503421309873
1.0087976539589445
1.0048875855327468
1.0019550342130987
1.002932551319648
1.0097751710654936
1.0224828934506354
1.0391006842619743
1.0576735092864125
1.078201368523949
1.0977517106549364
1.115347018572825
1.1329423264907137
1.152492668621701
1.1779081133919844
1.2189638318670577
1.2873900293255132
1.391006842619746
1.5327468230694037
1.7086999022482894
1.90811339198436
2.115347018572825
2.312805474095797
2.487781036168133
2.631476050830889
2.739980449657869
2.8084066471163247
2.8455522971652005
2.8670576735092865
2.870967741935484
2.859237536656892
2.834799608993157
2.80058651026393
2.758553274682307
2.710654936461388
2.656891495601173
2.5992179863147604
2.536656891495601
2.4780058651026398
2.419354838709677
2.35386119257087
2.2844574780058653
2.212121212121212
2.1388074291300097
2.064516129032258
1.9902248289345064
1.9178885630498532
1.8455522971652003
1.7741935483870968
1.704789833822092
1.6363636363636365
1.5796676441837731
1.5298142717497556
1.4750733137829912
1.4203323558162269
1.367546432062561
1.316715542521994
1.2697947214076246
1.2267839687194526
1.187683284457478
1.1515151515151516
1.1202346041055715
1.0928641251221896
1.075268817204301
1.064516129032258
1.0557184750733135
1.0498533724340176
1.0488758553274682
1.053763440860215
1.0635386119257086
1.0791788856304985
1.0977517106549364
1.1173020527859236
1.1368523949169111
1.1544477028347997
1.1710654936461389
1.1896383186705768
1.2140762463343109
1.2531769305962854
1.3186705767350928
1.4193548387096775
1.5591397849462365
1.7341153470185728
1.9335288367546437
2.1407624633431084
2.3411534701857284
2.5190615835777126
2.665689149560117
2.7673509286412514
2.831867057673509
2.878787878787879
2.906158357771261
2.913978494623656
2.906158357771261
2.8836754643206257
2.850439882697948
2.8084066471163247
2.758553274682307
2.701857282502444
2.641251221896383
2.5835777126099706
2.525904203323558
2.4604105571847508
2.391006842619746
2.318670576735093
2.244379276637341
2.1700879765395893
2.0957966764418376
2.0205278592375366
1.946236559139785
1.873900293255132
1.8025415444770283
1.7331378299120237
1.6744868035190617
1.6226783968719452
1.565982404692082
1.509286412512219
1.4545454545454546
1.401759530791789
1.3519061583577712
1.3049853372434017
1.2619745845552297
1.2218963831867058
1.1857282502443791
1.1534701857282503
1.1319648093841643
1.1173020527859236
1.104594330400782
1.0957966764418376
1.0909090909090908
1.0918866080156402
1.0987292277614855
1.110459433040078
1.1270772238514175
1.1466275659824048
1.1681329423264908
1.1886608015640274
1.2072336265884651
1.224828934506354
1.2443792766373412
1.270772238514174
1.313782991202346
1.3851417399804498
1.4926686217008798
1.6392961876832846
1.8191593352883677
2.0205278592375366
2.2267839687194524
2.423264907135875
2.595307917888563
2.720430107526881
2.8084066471163247
2.8797653958944283
2.9286412512218964
2.9550342130987293
2.961876832844575
2.952101661779081
2.930596285434995
2.898338220918866
2.857282502443793
2.8084066471163247
2.7536656891495603
2.6940371456500487
2.636363636363636
2.578690127077224
2.515151515151515
2.44672531769306
2.375366568914956
2.302052785923754
2.2267839687194524
2.1515151515151514
2.0772238514174
2.002932551319648
1.9296187683284456
1.858260019550342
1.796676441837732
1.7419354838709675
1.6823069403714566
1.6217008797653958
1.5620723362658846
1.504398826979472
1.4506353861192571
1.3998044965786902
1.3519061583577712
1.3088954056695992
1.2688172043010753
1.2336265884652982
1.203323558162268
1.181818181818182
1.1681329423264908
1.1544477028347997
1.144672531769306
1.1397849462365592
1.1407624633431086
1.147605083088954
1.1593352883675463
1.1749755620723363
1.1945259042033236
1.2140762463343109
1.2326490713587488
1.249266862170088
1.2658846529814272
1.284457478005865
1.3128054740957966
1.3616813294232648
1.4408602150537635
1.5581622678396871
1.7135874877810362
1.900293255131965
2.103616813294233
2.30791788856305
2.495601173020528
2.654936461388074
2.768328445747801
2.844574780058651
2.902248289345064
2.9374389051808407
2.952101661779081
2.949169110459433
2.9315738025415445
2.902248289345064
2.863147605083089
2.81622678396872
2.7624633431085046
2.7038123167155423
2.64613880742913
2.5884652981427174
2.5249266862170088
2.4565004887585533
2.3841642228739004
2.3098729227761488
2.2346041055718477
2.157380254154448
2.080156402737048
2.002932551319648
1.9257086999022484
1.8494623655913975
1.7741935483870968
1.710654936461388
1.653958944281525
1.5913978494623655
1.5278592375366569
1.4652981427174976
1.4056695992179864
1.348973607038123
1.2942326490713587
1.2434017595307918
1.195503421309873
1.1515151515151516
1.1114369501466277
1.083088954056696
1.06158357771261
1.040078201368524
1.021505376344086
1.007820136852395
1.0
0.9980449657869012
1.0019550342130987
1.0117302052785924
1.0254154447702837
1.0439882697947214
1.0664711632453567
1.0909090909090908
1.1124144672531768
1.1319648093841643
1.1505376344086022
1.173998044965787
1.2121212121212122
1.2766373411534702
1.375366568914956
1.5131964809384164
1.686217008797654
1.884652981427175
2.0928641251221896
2.294232649071359
2.4545454545454546
2.579667644183773
2.6911045943304006
2.777126099706745
2.835777126099707
2.8690127077223853
2.8807429130009776
2.873900293255132
2.852394916911046
2.820136852394917
2.779081133919844
2.730205278592375
2.675464320625611
2.6207233626588464
2.565982404692082
2.505376344086021
2.439882697947214
2.3714565004887587
2.300097751710655
2.2277614858260018
2.1544477028347995
2.081133919843597
2.007820136852395
1.9345063538611929
1.86119257086999
1.7986314760508308
1.7419354838709675
1.6793743890518085
1.6158357771260996
1.5532746823069403
1.4916911045943304
1.4330400782013686
1.3773216031280548
1.324535679374389
1.2766373411534702
1.2316715542521994
1.1915933528836755
1.155425219941349
1.1290322580645162
1.1094819159335287
1.088954056695992
1.0703812316715542
1.056695992179863
1.0488758553274682
1.04594330400782
1.0498533724340176
1.0596285434995112
1.0742913000977516
1.0918866080156402
1.1133919843597262
1.1348973607038124
1.1564027370478984
1.1759530791788857
1.1935483870967742
1.2140762463343109
1.24633431085044
1.300097751710655
1.3851417399804498
1.509286412512219
1.6705767350928642
1.86119257086999
2.067448680351906
2.247311827956989
2.4027370478983383
2.5562072336265884
2.6881720430107525
2.790811339198436
2.863147605083089
2.9071358748778104
2.9266862170087977
2.9257086999022484
2.909090909090909
2.878787878787879
2.8396871945259043
2.792766373411535
2.742913000977517
2.6911045943304006
2.631476050830889
2.567937438905181
2.5004887585532747
2.43108504398827
2.358748778103617
2.2854349951124147
2.2111436950146626
2.1358748778103616
2.059628543499511
1.9833822091886608
1.916911045943304
1.8563049853372435
1.790811339198436
1.7243401759530792
1.6578690127077225
1.5943304007820136
1.5327468230694037
1.4731182795698925
1.4173998044965788
1.364613880742913
1.3157380254154447
1.2697947214076246
1.2287390029325511
1.1974584555229717
1.1730205278592376
1.147605083088954
1.1241446725317692
1.104594330400782
1.0909090909090908
1.0821114369501466
1.0791788856304985
1.083088954056696
1.0928641251221896
1.10752688172043
1.126099706744868
1.1466275659824048
1.1681329423264908
1.1896383186705768
1.209188660801564
1.2287390029325511
1.2512218963831867
1.2854349951124144
1.3421309872922775
1.4301075268817205
1.5571847507331378
1.7204301075268815
1.911045943304008
2.117302052785924
2.297165200391007
2.4516129032258065
2.6041055718475072
2.736070381231672
2.838709677419355
2.911045943304008
2.9550342130987293
2.9745845552297165
2.9745845552297165
2.959921798631476
2.932551319648094
2.895405669599218
2.8533724340175954
2.807429130009776
2.7546432062561097
2.6959921798631474
2.633431085043988
2.5669599217986314
2.498533724340176
2.4271749755620724
2.3548387096774195
2.281524926686217
2.207233626588465
2.132942326490713
2.058651026392962
1.9931573802541545
1.932551319648094
1.8670576735092863
1.8005865102639296
1.7350928641251222
1.6715542521994136
1.6099706744868034
1.5513196480938416
1.495601173020528
1.4428152492668622
1.392961876832845
1.3470185728250244
1.3118279569892473
1.2834799608993157
1.252199413489736
1.2228739002932552
1.198435972629521
1.1788856304985338
1.164222873900293
1.155425219941349
1.152492668621701
1.155425219941349
1.1652003910068427
1.1798631476050832
1.198435972629521
1.2189638318670577
1.2394916911045943
1.2590420332355816
1.2766373411534702
1.2932551319648091
1.313782991202346
1.348973607038123
1.4086021505376345
1.5024437927663734
1.6363636363636365
1.8074291300097751
2.004887585532747
2.1847507331378297
2.3489736070381237
2.520039100684262
2.674486803519061
2.80058651026393
2.8944281524926687
2.956989247311828
2.991202346041056
3.002932551319648
2.995112414467253
2.973607038123167
2.940371456500489
2.898338220918866
2.852394916911046
2.801564027370479
2.7438905180840663
2.6803519061583576
2.611925708699902
2.541544477028348
2.4682306940371457
2.3919843597262958
2.314760508308896
2.2375366568914954
2.1593352883675463
2.081133919843597
2.0117302052785924
1.949169110459433
1.8807429130009776
1.8103616813294232
1.739980449657869
1.6715542521994136
1.6041055718475072
1.5395894428152492
1.47702834799609
1.418377321603128
1.3616813294232648
1.3088954056695992
1.260019550342131
1.2218963831867058
1.1915933528836755
1.1583577712609971
1.1270772238514175
1.099706744868035
1.0762463343108504
1.0586510263929618
1.0469208211143697
1.0410557184750733
1.0420332355816226
1.0478983382209188
1.0596285434995112
1.0762463343108504
1.0948191593352885
1.1143695014662756
1.133919843597263
1.1505376344086022
1.1583577712609971
1.164222873900293
1.1857282502443791
1.2297165200391007
1.3069403714565004
1.423264907135875
1.5777126099706744
1.7644183773216031
1.9413489736070384
2.110459433040078
2.29227761485826
2.462365591397849
2.606060606060606
2.716520039100684
2.793743890518084
2.8396871945259043
2.860215053763441
2.860215053763441
2.843597262952102
2.8152492668621703
2.779081133919844
2.73802541544477
2.689149560117302
2.633431085043988
2.5718475073313782
2.50733137829912
2.4408602150537635
2.3714565004887587
2.2991202346041058
2.225806451612903
2.150537634408602
2.075268817204301
2.007820136852395
1.945259042033236
1.87683284457478
1.8054740957966764
1.7341153470185728
1.6637341153470186
1.5943304007820136
1.5278592375366569
1.4633431085043989
1.4027370478983383
1.3450635386119256
1.2913000977517106
1.241446725317693
1.2023460410557183
1.1700879765395895
1.1358748778103618
1.1026392961876832
1.0713587487781036
1.0439882697947214
1.021505376344086
1.0039100684261977
0.9931573802541545
0.9882697947214076
0.989247311827957
0.9960899315738024
1.0087976539589445
1.0254154447702837
1.0449657869012707
1.0664711632453567
1.088954056695992
1.1094819159335287
1.1280547409579669
1.147605083088954
1.1720430107526882
1.2101661779081134
1.273704789833822
1.3714565004887584
1.5073313782991202
1.6500488758553276
1.804496578690127
1.9931573802541545
2.1925708699902247
2.3812316715542523
2.5454545454545454
2.677419354838709
2.774193548387097
2.8377321603128056
2.8729227761485827
2.884652981427175
2.878787878787879
2.8582600195503423
2.827956989247312
2.788856304985337
2.7419354838709675
