ppg
2.3274682306940373
2.4134897360703813
2.4809384164222874
2.5464320625610948
2.6021505376344085
2.6451612903225805
2.67644183773216
2.6940371456500487
2.6989247311827955
2.6930596285435
2.674486803519061
2.64613880742913
2.6099706744868034
2.570869990224829
2.529814271749756
2.482893450635386
2.432062561094819
2.378299120234604
2.32355816226784
2.267839687194526
2.2130987292277613
2.158357771260997
2.1065493646138806
2.056695992179863
2.0097751710654936
1.9657869012707725
1.927663734115347
1.8944281524926687
1.858260019550342
1.8201368523949168
1.7810361681329423
1.7429130009775171
1.704789833822092
1.667644183773216
1.632453567937439
1.5992179863147604
1.5679374389051808
1.5386119257087
1.5151515151515151
1.4946236559139785
1.4711632453567938
1.4467253176930597
1.4222873900293256
1.3988269794721409
1.3773216031280548
1.3577712609970674
1.3391984359726294
1.3235581622678396
1.310850439882698
1.2991202346041055
1.2883675464320623
1.281524926686217
1.2756598240469208
1.2649071358748778
1.2512218963831867
1.238514173998045
1.2316715542521994
1.2346041055718475
1.252199413489736
1.2864125122189638
1.3411534701857282
1.4173998044965788
1.5151515151515151
1.6129032258064515
1.7145650048875856
1.835777126099707
1.9687194525904204
2.104594330400782
2.236559139784946
2.360703812316716
2.472140762463343
2.570869990224829
2.654936461388074
2.724340175953079
2.779081133919844
2.820136852394917
2.843597262952102
2.852394916911046
2.8533724340175954
2.844574780058651
2.8240469208211145
2.792766373411535
2.7497556207233624
2.696969696969697
2.6373411534701856
2.573802541544477
2.506353861192571
2.436950146627566
2.3743890518084068
2.315738025415445
2.2531769305962857
2.189638318670577
2.126099706744868
2.064516129032258
2.006842619745845
1.9521016617790807
1.900293255131965
1.8504398826979471
1.804496578690127
1.7605083088954057
1.7165200391006843
1.6803519061583578
1.6480938416422288
1.6129032258064515
1.5777126099706744
1.543499511241447
1.5112414467253177
1.4819159335288368
1.452590420332356
1.4252199413489737
1.3978494623655917
1.370478983382209
1.3440860215053765
1.324535679374389
1.3069403714565004
1.2854349951124144
1.2609970674486803
1.2355816226783969
1.2111436950146628
1.1867057673509287
1.1622678396871946
1.13880742913001
1.1163245356793745
1.0948191593352885
1.075268817204301
1.0625610948191593
1.056695992179863
1.053763440860215
1.0606060606060606
1.083088954056696
1.126099706744868
1.1915933528836755
1.2766373411534702
1.3812316715542523
1.501466275659824
1.632453567937439
1.7673509286412512
1.9012707722385145
2.016617790811339
2.117302052785924
2.220918866080156
2.3167155425219943
2.4027370478983383
2.4750733137829912
2.533724340175953
2.5777126099706744
2.6080156402737047
2.624633431085044
2.627565982404692
2.618768328445748
2.601173020527859
2.5747800586510263
2.539589442815249
2.496578690127077
2.4457478005865103
2.389051808406647
2.3274682306940373
2.264907135874878
2.203323558162268
2.142717497556207
2.0840664711632453
2.027370478983382
1.9726295210166176
1.9266862170087975
1.8866080156402736
1.842619745845552
1.796676441837732
1.750733137829912
1.7057673509286413
1.66177908113392
1.6177908113391983
1.5747800586510263
1.533724340175953
1.4936461388074291
1.455522971652004
1.4252199413489737
1.3988269794721409
1.367546432062561
1.3343108504398826
1.2991202346041055
1.2639296187683284
1.23069403714565
1.198435972629521
1.1681329423264908
1.1397849462365592
1.1133919843597262
1.0909090909090908
1.0703812316715542
1.056695992179863
1.0469208211143697
1.0332355816226784
1.0175953079178883
1.0
0.9804496578690128
0.959921798631476
0.9403714565004888
0.9227761485826002
0.9090909090909092
0.9032258064516128
0.9090909090909092
0.927663734115347
0.959921798631476
1.010752688172043
1.0821114369501466
1.1749755620723363
1.2864125122189638
1.4115347018572826
1.5464320625610948
1.683284457478006
1.8162267839687196
1.9413489736070384
2.0547409579667644
2.155425219941349
2.232649071358749
2.29227761485826
2.346041055718475
2.3900293255131966
2.421309872922776
2.4408602150537635
2.44672531769306
2.4408602150537635
2.423264907135875
2.3958944281524928
2.360703812316716
2.317693059628544
2.2737047898338223
2.228739002932551
2.176930596285435
2.1221896383186705
2.065493646138808
2.0087976539589443
1.9530791788856303
1.8983382209188664
1.8455522971652003
1.7927663734115349
1.7419354838709675
1.6930596285434996
1.6480938416422288
1.611925708699902
1.5796676441837731
1.5728250244379276
1.581622678396872
1.5698924731182795
1.5493646138807429
1.5268817204301075
1.504398826979472
1.479960899315738
1.455522971652004
1.43108504398827
1.4056695992179864
1.3861192570869991
1.3695014662756595
1.348973607038123
1.324535679374389
1.2991202346041055
1.2727272727272727
1.2473118279569892
1.2238514173998043
1.2023460410557183
1.181818181818182
1.163245356793744
1.1456500488758554
1.1270772238514175
1.115347018572825
1.1055718475073313
1.0909090909090908
1.072336265884653
1.0518084066471165
1.0342130987292275
1.0224828934506354
1.0205278592375366
1.0342130987292275
1.0684261974584557
1.1251221896383188
1.206256109481916
1.295210166177908
1.393939393939394
1.5161290322580645
1.6529814271749756
1.7947214076246334
1.935483870967742
2.070381231671554
2.1945259042033234
2.3069403714565007
2.4056695992179864
2.489736070381232
2.557184750733138
2.6080156402737047
2.6392961876832843
2.6559139784946235
2.664711632453568
2.66177908113392
2.649071358748778
2.627565982404692
2.5972629521016617
2.5591397849462365
2.5141739980449658
2.463343108504399
2.409579667644184
2.3548387096774195
2.3059628543499517
2.260997067448681
2.212121212121212
2.161290322580645
2.1114369501466275
2.0625610948191597
2.01564027370479
1.970674486803519
1.9266862170087975
1.884652981427175
1.8435972629521016
1.8035190615835777
1.7653958944281525
1.7331378299120237
1.7057673509286413
1.6744868035190617
1.6422287390029326
1.6099706744868034
1.5777126099706744
1.5464320625610948
1.5141739980449658
1.4819159335288368
1.4506353861192571
1.4222873900293256
1.3949169110459434
1.3734115347018572
1.356793743890518
1.3372434017595307
1.3176930596285434
1.2981427174975562
1.2805474095796676
1.2639296187683284
1.2473118279569892
1.2316715542521994
1.2140762463343109
1.195503421309873
1.176930596285435
1.164222873900293
1.1564027370478984
1.1485826001955035
1.147605083088954
1.1583577712609971
1.187683284457478
1.238514173998045
1.313782991202346
1.4115347018572826
1.5278592375366569
1.6588465298142718
1.7996089931573802
1.943304007820137
2.067448680351906
2.179863147605083
2.300097751710655
2.418377321603128
2.5288367546432062
2.6265884652981426
2.7096774193548385
2.7781036168132944
2.831867057673509
2.8699902248289346
2.89247311827957
2.9012707722385143
2.897360703812317
2.881720430107527
2.857282502443793
2.823069403714565
2.7810361681329425
2.732160312805474
2.677419354838709
2.619745845552297
2.558162267839687
2.4946236559139785
2.4301075268817205
2.363636363636364
2.2991202346041058
2.242424242424242
2.1925708699902247
2.1407624633431084
2.088954056695992
2.038123167155425
1.9872922776148585
1.93841642228739
1.89247311827957
1.8484848484848484
1.8074291300097751
1.7683284457478006
1.7302052785923754
1.6989247311827955
1.6715542521994136
1.640273704789834
1.608993157380254
1.5777126099706744
1.5464320625610948
1.5161290322580645
1.4868035190615836
1.457478005865103
1.4291300097751711
1.4007820136852396
1.3734115347018572
1.3479960899315735
1.3294232649071358
1.313782991202346
1.2942326490713587
1.273704789833822
1.2541544477028348
1.2326490713587488
1.2101661779081134
1.187683284457478
1.1652003910068427
1.1456500488758554
1.1290322580645162
1.1202346041055715
1.1231671554252198
1.13880742913001
1.1691104594330402
1.2179863147605083
1.289345063538612
1.3841642228739004
1.498533724340176
1.6285434995112416
1.7683284457478006
1.911045943304008
2.0518084066471163
2.1847507331378297
2.3069403714565007
2.404692082111437
2.4838709677419355
2.5610948191593352
2.6285434995112413
2.684261974584555
2.7262952101661777
2.7536656891495603
2.7673509286412514
2.766373411534702
2.752688172043011
2.729227761485826
2.696969696969697
2.6608015640273703
2.621700879765396
2.5747800586510263
2.5219941348973607
2.4652981427174976
2.4056695992179864
2.3440860215053765
2.281524926686217
2.218963831867057
2.1593352883675463
2.102639296187683
2.048875855327468
1.997067448680352
1.9530791788856303
1.9149560117302051
1.8748778103616808
1.833822091886608
1.7927663734115349
1.75366568914956
1.715542521994135
1.678396871945259
1.6422287390029326
1.6080156402737047
1.5757575757575757
1.544477028347996
1.520039100684262
1.499511241446725
1.4750733137829912
1.4486803519061584
1.4213098729227762
1.392961876832845
1.3636363636363635
1.3343108504398826
1.305962854349951
1.2776148582600195
1.2512218963831867
1.2267839687194526
1.2052785923753666
1.1915933528836755
1.181818181818182
1.1681329423264908
1.1534701857282503
1.1368523949169111
1.118279569892473
1.0987292277614855
1.0801564027370478
1.064516129032258
1.0557184750733135
1.0576735092864125
1.075268817204301
1.10752688172043
1.1564027370478984
1.23069403714565
1.327468230694037
1.4428152492668622
1.5718475073313782
1.7086999022482894
1.8484848484848484
1.986314760508309
2.131964809384164
2.275659824046921
2.396871945259042
2.4975562072336266
2.570869990224829
2.624633431085044
2.670576735092864
2.704789833822092
2.7253176930596283
2.7331378299120237
2.730205278592375
2.717497556207233
2.6940371456500487
2.6608015640273703
2.618768328445748
2.5698924731182795
2.5219941348973607
2.474095796676442
2.419354838709677
2.3626588465298144
2.304985337243402
2.249266862170088
2.1945259042033234
2.1417399804496577
2.09188660801564
2.0439882697947214
1.997067448680352
1.951124144672532
1.9071358748778104
1.870967741935484
1.8387096774193548
1.8025415444770283
1.7673509286412512
1.7341153470185728
1.7018572825024438
1.6705767350928642
1.6412512218963833
1.6129032258064515
1.5835777126099706
1.555229716520039
1.5268817204301075
1.504398826979472
1.4848484848484849
1.4623655913978495
1.4389051808406648
1.414467253176931
1.3900293255131966
1.367546432062561
1.3470185728250244
1.3264907135874875
1.3049853372434017
1.284457478005865
1.2658846529814272
1.2482893450635386
1.2375366568914956
1.227761485826002
1.2121212121212122
1.1935483870967742
1.1749755620723363
1.1573802541544478
1.1466275659824048
1.1456500488758554
1.1593352883675463
1.1935483870967742
1.2502443792766371
1.3313782991202343
1.4203323558162269
1.520039100684262
1.6451612903225807
1.7888563049853372
1.9403714565004888
2.09188660801564
2.239491691104594
2.377321603128055
2.501466275659824
2.611925708699902
2.70772238514174
2.7859237536656893
2.8406647116324537
2.877810361681329
2.90811339198436
2.927663734115347
2.9345063538611926
2.9286412512218964
2.911045943304008
2.8826979472140764
2.8455522971652005
2.7996089931573804
2.747800586510264
2.6930596285435
2.634408602150537
2.579667644183773
2.527859237536657
2.4711632453567938
2.4134897360703813
2.355816226783969
2.300097751710655
2.2453567937438903
2.193548387096774
2.144672531769306
2.0977517106549364
2.053763440860215
2.0127077223851417
1.9775171065493649
1.946236559139785
1.911045943304008
1.873900293255132
1.835777126099707
1.7976539589442817
1.761485826001955
1.7272727272727273
1.6950146627565983
1.6637341153470186
1.6334310850439884
1.6050830889540566
1.576735092864125
1.5532746823069403
1.5327468230694037
1.509286412512219
1.4838709677419355
1.458455522971652
1.434017595307918
1.4115347018572826
1.3890518084066472
1.3665689149560116
1.3440860215053765
1.321603128054741
1.2981427174975562
1.2805474095796676
1.2649071358748778
1.2453567937438903
1.2258064516129032
1.209188660801564
1.2023460410557183
1.2101661779081134
1.2365591397849462
1.2854349951124144
1.359726295210166
1.458455522971652
1.5786901270772238
1.7174975562072337
1.8484848484848484
1.975562072336266
2.118279569892473
2.2639296187683287
2.404692082111437
2.536656891495601
2.6559139784946235
2.7614858260019552
2.850439882697948
2.9227761485826003
2.979472140762464
3.0195503421309877
3.040078201368524
3.0449657869012707
3.042033235581622
3.027370478983382
3.002932551319648
2.9696969696969697
2.9286412512218964
2.8797653958944283
2.8240469208211145
2.763440860215054
2.7008797653958942
2.636363636363636
2.5718475073313782
2.5141739980449658
2.4604105571847508
2.4027370478983383
2.345063538611926
2.289345063538612
2.2346041055718477
2.1818181818181817
2.1309872922776147
2.0840664711632453
2.040078201368524
1.9980449657869013
1.9579667644183771
1.924731182795699
1.895405669599218
1.8631476050830889
1.828934506353861
1.7947214076246334
1.7605083088954057
1.7253176930596286
1.6901270772238517
1.6549364613880744
1.6207233626588464
1.587487781036168
1.5542521994134897
1.52297165200391
1.498533724340176
1.479960899315738
1.4594330400782014
1.4379276637341154
1.4164222873900294
1.393939393939394
1.3724340175953078
1.3519061583577712
1.332355816226784
1.3118279569892473
1.289345063538612
1.2668621700879763
1.252199413489736
1.2424242424242424
1.2336265884652982
1.2326490713587488
1.2453567937438903
1.278592375366569
1.3343108504398826
1.4134897360703813
1.5161290322580645
1.7096774193548387
1.8523949169110456
2.0019550342130987
2.2688172043010755
2.3919843597262958
2.517106549364614
2.69208211143695
2.791788856304985
2.87683284457478
2.946236559139785
3.0
3.038123167155425
3.06158357771261
3.070381231671554
3.065493646138808
3.0498533724340176
3.0254154447702835
2.992179863147605
2.9501466275659824
2.902248289345064
2.8484848484848486
2.791788856304985
2.7331378299120237
2.673509286412512
2.613880742913001
2.5542521994134897
2.4946236559139785
2.441837732160313
2.3929618768328447
2.343108504398827
2.2932551319648096
2.244379276637341
2.1974584555229715
2.15347018572825
2.1114369501466275
2.072336265884653
2.035190615835777
1.9990224828934504
1.963831867057673
1.9345063538611929
1.90811339198436
1.878787878787879
1.782991202346041
1.721407624633431
1.6774193548387095
1.6236559139784943
1.5923753665689149
1.5610948191593352
1.5298142717497556
1.482893450635386
1.456500488758553
1.4349951124144673
1.4027370478983383
1.3792766373411536
1.3558162267839686
1.3313782991202343
1.3079178885630498
1.284457478005865
1.2609970674486803
1.238514173998045
1.2189638318670577
1.2052785923753666
1.203323558162268
1.2140762463343109
1.241446725317693
1.2903225806451613
1.3636363636363635
1.4613880742913
1.5826001955034212
1.721407624633431
1.871945259042033
2.0303030303030303
2.188660801564027
2.343108504398827
2.4887585532746823
2.6070381231671558
2.704789833822092
2.801564027370479
2.8905180840664717
2.9657869012707723
3.027370478983382
3.0733137829912023
3.104594330400782
3.120234604105572
3.121212121212121
3.10752688172043
3.0821114369501466
3.047898338220919
3.005865102639296
2.956011730205278
2.8993157380254155
2.8367546432062563
2.7702834799608995
2.7038123167155423
2.635386119257087
2.567937438905181
2.5024437927663734
2.4379276637341154
2.376344086021505
2.32355816226784
2.274682306940372
2.222873900293255
2.1710654936461387
2.1192570869990224
2.0684261974584555
2.018572825024438
1.970674486803519
1.924731182795699
1.881720430107527
1.8406647116324533
1.8005865102639296
1.7624633431085044
1.7302052785923754
1.7018572825024438
1.6695992179863148
1.6373411534701858
1.6041055718475072
1.5698924731182795
1.5366568914956011
1.504398826979472
1.4711632453567938
1.4389051808406648
1.4086021505376345
1.3782991202346042
1.3548387096774193
1.3362658846529814
1.3147605083088951
1.2932551319648091
1.270772238514174
1.249266862170088
1.2267839687194526
1.203323558162268
1.1788856304985338
1.155425219941349
1.1358748778103618
1.1251221896383188
1.1270772238514175
1.142717497556207
1.173998044965787
1.227761485826002
1.3069403714565004
1.4115347018572826
1.5376344086021505
1.678396871945259
1.827956989247312
1.981427174975562
2.131964809384164
2.2766373411534704
2.410557184750733
2.5161290322580645
2.6021505376344085
2.6852394916911044
2.758553274682307
2.8181818181818183
2.86217008797654
2.8905180840664717
2.903225806451613
2.9012707722385143
2.886608015640274
2.860215053763441
2.823069403714565
2.7781036168132944
2.730205278592375
2.6803519061583576
2.622678396871945
2.560117302052786
2.495601173020528
2.43108504398827
2.366568914956012
2.303030303030303
2.241446725317693
2.1818181818181817
2.1251221896383186
2.071358748778104
2.026392961876833
1.9872922776148585
1.946236559139785
1.9042033235581624
1.8631476050830889
1.822091886608016
1.780058651026393
1.7390029325513197
1.6989247311827955
1.6608015640273706
1.6236559139784943
1.587487781036168
1.5532746823069403
1.525904203323558
1.501466275659824
1.474095796676442
1.4457478005865103
1.418377321603128
1.3919843597262953
1.3665689149560116
1.3401759530791788
1.313782991202346
1.2864125122189638
1.2590420332355816
1.2326490713587488
1.2140762463343109
1.198435972629521
1.1808406647116323
1.1612903225806452
1.1397849462365592
1.118279569892473
1.0957966764418376
1.0742913000977516
1.053763440860215
1.0371456500488758
1.0283479960899315
1.0312805474095796
1.0498533724340176
1.083088954056696
1.133919843597263
1.2101661779081134
1.310850439882698
1.4330400782013686
1.5708699902248289
1.718475073313783
1.8699902248289344
2.0205278592375366
2.1652003910068425
2.2981427174975564
2.419354838709677
2.5131964809384164
2.5865102639296187
2.654936461388074
2.7116324535679373
2.7536656891495603
2.780058651026393
2.792766373411535
2.791788856304985
2.7781036168132944
2.7536656891495603
2.719452590420332
2.678396871945259
2.63049853372434
2.5835777126099706
2.535679374389052
2.4819159335288368
2.426197458455523
2.36950146627566
2.3118279569892475
2.254154447702835
2.1974584555229715
2.1407624633431084
2.0869990224828934
2.035190615835777
1.986314760508309
1.9472140762463344
1.9120234604105573
1.8729227761485825
1.8328445747800584
1.7927663734115349
1.7526881720430108
1.7126099706744868
1.675464320625611
1.640273704789834
1.606060606060606
1.573802541544477
1.541544477028348
1.5102639296187683
1.4868035190615836
1.466275659824047
1.4418377321603129
1.41544477028348
1.388074291300098
1.3587487781036167
1.3284457478005864
1.300097751710655
1.273704789833822
1.2502443792766371
1.2287390029325511
1.2082111436950147
1.1935483870967742
1.181818181818182
1.166177908113392
1.1495601173020529
1.130987292277615
1.1114369501466277
1.0918866080156402
1.0733137829912025
1.0596285434995112
1.0527859237536656
1.0586510263929618
1.0821114369501466
1.126099706744868
1.18475073313783
1.2590420332355816
1.3607038123167154
1.4848484848484849
1.6265884652981428
1.7781036168132942
1.9345063538611929
2.089931573802541
2.239491691104594
2.35386119257087
2.4408602150537635
2.5317693059628543
2.6050830889540566
2.6637341153470184
2.721407624633431
2.7702834799608995
2.806451612903226
2.827956989247312
2.834799608993157
2.8289345063538613
2.8103616813294234
2.780058651026393
2.740957966764418
2.6940371456500487
2.6471163245356792
2.5992179863147604
2.5454545454545454
2.4887585532746823
2.4301075268817205
2.3704789833822093
2.3118279569892475
2.2561094819159337
2.2023460410557183
2.150537634408602
2.099706744868035
2.048875855327468
2.0009775171065494
1.9608993157380252
1.924731182795699
1.8866080156402736
1.847507331378299
1.8084066471163245
1.7702834799608993
1.7331378299120237
1.696969696969697
1.66177908113392
1.6275659824046922
1.5943304007820136
1.563049853372434
1.5376344086021505
1.5161290322580645
1.490713587487781
1.4633431085043989
1.436950146627566
1.4105571847507332
1.3861192570869991
1.3616813294232648
1.33822091886608
1.3157380254154447
1.2932551319648091
1.2727272727272727
1.2531769305962854
1.238514173998045
1.2258064516129032
1.209188660801564
1.1915933528836755
1.1710654936461389
1.1495601173020529
1.130987292277615
1.1192570869990224
1.1163245356793745
1.1270772238514175
1.1544477028347997
1.2023460410557183
1.2619745845552297
1.3362658846529814
1.435972629521017
1.5581622678396871
1.6950146627565983
1.8406647116324533
1.989247311827957
2.134897360703812
2.272727272727273
2.398826979472141
2.5131964809384164
2.6129032258064515
2.6989247311827955
2.760508308895406
2.803519061583578
2.8406647116324537
2.8670576735092865
2.881720430107527
2.8836754643206257
2.8729227761485827
2.850439882697948
2.8181818181818183
2.776148582600196
2.727272727272727
2.673509286412512
2.621700879765396
2.570869990224829
2.515151515151515
2.4565004887585533
2.396871945259042
2.337243401759531
2.27761485826002
2.218963831867057
2.1622678396871944
2.10752688172043
2.0557184750733137
2.006842619745845
1.9589442815249267
1.9178885630498532
1.881720430107527
1.8416422287390029
1.801564027370479
1.761485826001955
1.7233626588465298
1.6871945259042034
1.6520039100684265
1.6187683284457477
1.5865102639296187
1.555229716520039
1.5239491691104594
1.4975562072336266
1.474095796676442
1.447702834799609
1.4193548387096775
1.391006842619746
1.3636363636363635
1.33822091886608
1.313782991202346
1.2903225806451613
1.267839687194526
1.2453567937438903
1.2238514173998043
1.203323558162268
1.1896383186705768
1.1788856304985338
1.164222873900293
1.1466275659824048
1.1270772238514175
1.1094819159335287
1.096774193548387
1.0918866080156402
1.1006842619745845
1.1290322580645162
1.1779081133919844
1.2502443792766371
1.3304007820136852
1.4222873900293256
1.5395894428152492
1.6744868035190617
1.8191593352883677
1.9657869012707725
2.110459433040078
2.2482893450635384
2.375366568914956
2.4887585532746823
2.5884652981427174
2.6725317693059627
2.739980449657869
2.7859237536656893
2.8152492668621703
2.838709677419355
2.8514173998044967
2.852394916911046
2.841642228739003
2.8211143695014664
2.790811339198436
2.752688172043011
2.70772238514174
2.6578690127077222
2.6041055718475072
2.5513196480938416
2.5004887585532747
2.444770283479961
2.386119257086999
2.3284457478005867
2.271749755620724
2.217986314760508
2.166177908113392
2.1163245356793743
2.0684261974584555
2.0234604105571847
1.9804496578690127
1.9393939393939397
1.905180840664712
1.873900293255132
1.8406647116324533
1.8064516129032255
1.7702834799608993
1.7341153470185728
1.7008797653958945
1.667644183773216
1.6344086021505375
1.603128054740958
1.5728250244379276
1.542521994134897
1.5180840664711632
1.4965786901270772
1.4721407624633431
1.447702834799609
1.4242424242424243
1.4007820136852396
1.3782991202346042
1.356793743890518
1.335288367546432
1.313782991202346
1.2913000977517106
1.2697947214076246
1.2482893450635386
1.2316715542521994
1.2179863147605083
1.1994134897360704
1.1798631476050832
1.163245356793744
1.1515151515151516
1.1485826001955035
1.1583577712609971
1.1867057673509287
1.2365591397849462
1.3098729227761483
1.4056695992179864
1.5053763440860215
1.6109481915933528
1.7419354838709675
1.8866080156402736
2.0361681329423265
2.1837732160312804
2.324535679374389
2.453567937438905
2.570869990224829
2.674486803519061
2.7624633431085046
2.835777126099707
2.89345063538612
2.929618768328446
2.9501466275659824
2.963831867057673
2.967741935483871
2.960899315738025
2.943304007820137
2.9149560117302054
2.877810361681329
2.833822091886608
2.782013685239492
2.7253176930596283
2.665689149560117
2.6099706744868034
2.5542521994134897
2.493646138807429
2.432062561094819
2.3714565004887587
2.312805474095797
