ppg
1.544477028347996
1.686217008797654
1.842619745845552
2.0009775171065494
2.134897360703812
2.247311827956989
2.355816226783969
2.4486803519061584
2.5219941348973607
2.5747800586510263
2.6099706744868034
2.632453567937439
2.644183773216031
2.6480938416422286
2.64613880742913
2.641251221896383
2.633431085043988
2.624633431085044
2.6177908113391983
2.608993157380254
2.60019550342131
2.590420332355816
2.5806451612903225
2.5698924731182795
2.557184750733138
2.5425219941348973
2.5249266862170088
2.504398826979472
2.479960899315738
2.453567937438905
2.4242424242424243
2.388074291300098
2.345063538611926
2.2952101661779083
2.239491691104594
2.176930596285435
2.1065493646138806
2.0303030303030303
1.948191593352884
1.866080156402737
1.7898338220918866
1.729227761485826
1.6813294232649072
1.6383186705767352
1.607038123167155
1.587487781036168
1.5777126099706744
1.573802541544477
1.5728250244379276
1.5718475073313782
1.56891495601173
1.564027370478983
1.555229716520039
1.544477028347996
1.5366568914956011
1.5298142717497556
1.520039100684262
1.509286412512219
1.4975562072336266
1.4848484848484849
1.4701857282502444
1.4545454545454546
1.4379276637341154
1.4213098729227762
1.4066471163245358
1.393939393939394
1.3870967741935485
1.383186705767351
1.3792766373411536
1.375366568914956
1.3714565004887584
1.3655913978494625
1.3607038123167154
1.3548387096774193
1.348973607038123
1.3440860215053765
1.3391984359726294
1.3343108504398826
1.3343108504398826
1.3343108504398826
1.3343108504398826
1.3343108504398826
1.3343108504398826
1.3313782991202343
1.332355816226784
1.3333333333333333
1.3343108504398826
1.335288367546432
1.3372434017595307
1.3401759530791788
1.3450635386119256
1.35386119257087
1.3655913978494625
1.3773216031280548
1.388074291300098
1.396871945259042
1.401759530791789
1.404692082111437
1.4076246334310851
1.418377321603128
1.447702834799609
1.509286412512219
1.6109481915933528
1.7556207233626588
1.9090909090909087
2.0733137829912023
2.2737047898338223
2.484848484848485
2.686217008797654
2.8641251221896384
3.0117302052785924
3.1251221896383186
3.2082111436950145
3.2658846529814274
3.303030303030303
3.324535679374389
3.329423264907136
3.3255131964809386
3.320625610948192
3.315738025415445
3.310850439882698
3.30791788856305
3.3069403714565007
3.3059628543499517
3.3059628543499517
3.304007820136853
3.300097751710655
3.2932551319648096
3.281524926686217
3.264907135874878
3.2453567937438903
3.220918866080156
3.1915933528836757
3.155425219941349
3.113391984359726
3.065493646138808
3.010752688172043
2.951124144672532
2.8856304985337244
2.8103616813294234
2.727272727272727
2.6480938416422286
2.5650048875855327
2.4672531769305963
2.358748778103617
2.2453567937438903
2.133919843597263
2.032258064516129
1.945259042033236
1.8748778103616808
1.822091886608016
1.7859237536656891
1.7644183773216031
1.75366568914956
1.747800586510264
1.7438905180840665
1.739980449657869
1.7350928641251222
1.7282502443792769
1.7174975562072337
1.7057673509286413
1.6930596285434996
1.678396871945259
1.6627565982404693
1.6480938416422288
1.632453567937439
1.6207233626588464
1.611925708699902
1.5992179863147604
1.58455522971652
1.56891495601173
1.5542521994134897
1.5395894428152492
1.525904203323558
1.5141739980449658
1.5034213098729228
1.4926686217008798
1.4838709677419355
1.479960899315738
1.478005865102639
1.474095796676442
1.4682306940371457
1.4643206256109482
1.4623655913978495
1.4613880742913
1.4633431085043989
1.4682306940371457
1.474095796676442
1.479960899315738
1.4858260019550342
1.4926686217008798
1.500488758553275
1.5112414467253177
1.52297165200391
1.533724340175953
1.544477028347996
1.5562072336265884
1.5679374389051808
1.5777126099706744
1.5835777126099706
1.5894428152492668
1.6001955034213098
1.6236559139784943
1.6588465298142718
1.7174975562072337
1.81524926686217
1.9560117302052784
2.134897360703812
2.3421309872922778
2.5620723362658846
2.7781036168132944
2.9775171065493646
3.1485826001955037
3.2873900293255134
3.3919843597262958
3.466275659824047
3.509286412512219
3.530791788856305
3.5464320625610948
3.558162267839687
3.5669599217986314
3.573802541544477
3.579667644183773
3.587487781036168
3.5962854349951123
3.6070381231671553
3.6070381231671553
3.6070381231671553
3.6070381231671553
3.6070381231671553
3.6070381231671553
3.6070381231671553
3.6070381231671553
3.625610948191593
3.608993157380254
3.5855327468230693
3.5532746823069403
3.5141739980449658
3.4672531769305963
3.412512218963832
3.350928641251222
3.2873900293255134
3.220918866080156
3.1436950146627565
3.056695992179863
2.9579667644183774
2.8475073313782997
2.729227761485826
2.606060606060606
2.484848484848485
2.3734115347018574
2.2766373411534704
2.198435972629521
2.142717497556207
2.1055718475073317
2.0791788856304985
2.06158357771261
2.048875855327468
2.037145650048876
2.0234604105571847
2.006842619745845
1.9872922776148585
1.9667644183773216
1.945259042033236
1.9227761485826005
1.900293255131965
1.8807429130009776
1.8631476050830889
1.8435972629521016
1.823069403714565
1.8005865102639296
1.7781036168132942
1.7556207233626588
1.7350928641251222
1.715542521994135
1.6979472140762464
1.6813294232649072
1.664711632453568
1.6529814271749756
1.6451612903225807
1.6363636363636365
1.6275659824046922
1.6207233626588464
1.6148582600195502
1.6109481915933528
1.6080156402737047
1.607038123167155
1.6050830889540566
1.6021505376344083
1.6001955034213098
1.5992179863147604
1.6011730205278591
1.6050830889540566
1.608993157380254
1.6129032258064515
1.616813294232649
1.619745845552297
1.6226783968719452
1.6265884652981428
1.629521016617791
1.629521016617791
1.6275659824046922
1.6217008797653958
1.6177908113391983
1.6187683284457477
1.6265884652981428
1.6529814271749756
1.7086999022482894
1.8025415444770283
1.9364613880742916
2.1055718475073317
2.300097751710655
2.504398826979472
2.7038123167155423
2.8826979472140764
3.034213098729228
2.994134897360704
2.844574780058651
2.789833822091887
2.774193548387097
2.774193548387097
2.779081133919844
2.7859237536656893
2.792766373411535
2.7976539589442817
2.8025415444770285
2.8084066471163247
2.814271749755621
2.814271749755621
2.811339198435973
2.811339198435973
2.8132942326490715
2.8152492668621703
2.814271749755621
2.809384164222874
2.80058651026393
2.7869012707722387
2.76930596285435
2.7468230694037143
2.721407624633431
2.6911045943304006
2.6578690127077222
2.6207233626588464
2.578690127077224
2.530791788856305
2.4760508308895406
2.41544477028348
2.347996089931574
2.270772238514174
2.185728250244379
2.0948191593352883
2.0
1.905180840664712
1.825024437927664
1.7565982404692082
1.694037145650049
1.643206256109482
1.607038123167155
1.5826001955034212
1.5669599217986314
1.5571847507331378
1.5483870967741935
1.5395894428152492
1.5288367546432062
1.5141739980449658
1.500488758553275
1.4848484848484849
1.4643206256109482
1.4408602150537635
1.4164222873900294
1.3919843597262953
1.367546432062561
1.343108504398827
1.3196480938416422
1.2971652003910068
1.2766373411534702
1.2561094819159335
1.2355816226783969
1.2209188660801564
1.2082111436950147
1.1945259042033236
1.181818181818182
1.1691104594330402
1.1564027370478984
1.1436950146627567
1.1319648093841643
1.1202346041055715
1.1094819159335287
1.1016617790811338
1.0957966764418376
1.0948191593352885
1.0957966764418376
1.096774193548387
1.096774193548387
1.0987292277614855
1.1026392961876832
1.1065493646138806
1.1094819159335287
1.1133919843597262
1.118279569892473
1.1231671554252198
1.1290322580645162
1.133919843597263
1.13880742913001
1.1436950146627567
1.144672531769306
1.141739980449658
1.1368523949169111
1.1348973607038124
1.144672531769306
1.1759530791788857
1.2375366568914956
1.3372434017595307
1.474095796676442
1.6422287390029326
1.8035190615835777
1.9579667644183771
2.129032258064516
2.2952101661779083
2.441837732160313
2.5610948191593352
2.652003910068426
2.717497556207233
2.7595307917888565
2.78494623655914
2.7976539589442817
2.80058651026393
2.7976539589442817
2.7869012707722387
2.7751710654936463
2.7653958944281527
2.7565982404692084
2.7497556207233624
2.742913000977517
2.7341153470185726
2.724340175953079
2.7126099706744866
2.697947214076246
2.6803519061583576
2.659824046920821
2.635386119257087
2.6070381231671558
2.576735092864125
2.5434995112414467
2.5083088954056696
2.4711632453567938
2.432062561094819
2.389051808406647
2.3411534701857284
2.2883675464320627
2.228739002932551
2.160312805474096
2.0821114369501466
2.006842619745845
1.9315738025415443
1.844574780058651
1.7546432062561097
1.6705767350928642
1.5992179863147604
1.541544477028348
1.501466275659824
1.47702834799609
1.4643206256109482
1.4604105571847508
1.4604105571847508
1.4613880742913
1.4623655913978495
1.4604105571847508
1.4545454545454546
1.444770283479961
1.4320625610948192
1.4173998044965788
1.401759530791789
1.3870967741935485
1.3734115347018572
1.3607038123167154
1.348973607038123
1.3372434017595307
1.3284457478005864
1.321603128054741
1.3118279569892473
1.303030303030303
1.2961876832844574
1.2903225806451613
1.2864125122189638
1.284457478005865
1.2834799608993157
1.2834799608993157
1.2834799608993157
1.2825024437927663
1.281524926686217
1.2825024437927663
1.2825024437927663
1.2825024437927663
1.2825024437927663
1.2825024437927663
1.2825024437927663
1.2825024437927663
1.2834799608993157
1.284457478005865
1.2854349951124144
1.2854349951124144
1.2864125122189638
1.289345063538612
1.2932551319648091
1.295210166177908
1.2961876832844574
1.2961876832844574
1.295210166177908
1.2903225806451613
1.2825024437927663
1.2756598240469208
1.2776148582600195
1.2991202346041055
1.3479960899315735
1.4134897360703813
1.5024437927663734
1.6314760508308896
1.7927663734115349
1.9716520039100685
2.1515151515151514
2.3919843597262958
2.5239491691104594
2.627565982404692
2.735092864125122
2.776148582600196
2.7996089931573804
2.8054740957966766
2.792766373411535
2.780058651026393
2.7653958944281527
2.7331378299120237
2.716520039100684
2.699902248289345
2.67644183773216
2.6608015640273703
2.644183773216031
2.624633431085044
2.6021505376344085
2.578690127077224
2.550342130987292
2.5190615835777126
2.4838709677419355
2.444770283479961
2.404692082111437
2.361681329423265
2.29227761485826
2.243401759530792
2.1915933528836757
2.114369501466276
2.06158357771261
1.9980449657869013
1.9237536656891496
1.8416422287390029
1.75366568914956
1.664711632453568
1.5796676441837731
1.5034213098729228
1.4418377321603129
1.3978494623655917
1.370478983382209
1.3577712609970674
1.3548387096774193
1.3558162267839686
1.3577712609970674
1.3587487781036167
1.3587487781036167
1.356793743890518
1.3401759530791788
1.3147605083088951
1.295210166177908
1.278592375366569
1.262952101661779
1.2473118279569892
1.2346041055718475
1.2228739002932552
1.209188660801564
1.1945259042033236
1.1788856304985338
1.1622678396871946
1.1456500488758554
1.1290322580645162
1.1133919843597262
1.1006842619745845
1.0909090909090908
1.083088954056696
1.0801564027370478
1.0811339198435972
1.0821114369501466
1.0840664711632453
1.086021505376344
1.0879765395894427
1.0899315738025417
1.0909090909090908
1.0918866080156402
1.0918866080156402
1.0918866080156402
1.0918866080156402
1.0948191593352885
1.0987292277614855
1.1026392961876832
1.1085043988269794
1.1173020527859236
1.1300097751710656
1.1466275659824048
1.164222873900293
1.1808406647116323
1.1935483870967742
1.198435972629521
1.1964809384164223
1.1886608015640274
1.1827956989247312
1.1837732160312806
1.1945259042033236
1.2297165200391007
1.300097751710655
1.412512218963832
1.563049853372434
1.7448680351906158
1.9442815249266865
2.145650048875855
2.332355816226784
2.493646138807429
2.610948191593353
2.6930596285435
2.7614858260019552
2.8103616813294234
2.841642228739003
2.8582600195503423
2.863147605083089
2.859237536656892
2.8484848484848486
2.834799608993157
2.820136852394917
2.8044965786901277
2.7869012707722387
2.7653958944281527
2.7438905180840663
2.7223851417399803
2.701857282502444
2.6823069403714563
2.66177908113392
2.6392961876832843
2.613880742913001
2.58455522971652
2.5513196480938416
2.5141739980449658
2.4731182795698925
2.432062561094819
2.389051808406647
2.3411534701857284
2.2883675464320627
2.23069403714565
2.166177908113392
2.0948191593352883
2.0175953079178885
1.9335288367546437
1.8416422287390029
1.7448680351906158
1.6480938416422288
1.555229716520039
1.482893450635386
1.4291300097751711
1.3841642228739004
1.3528836754643203
1.3372434017595307
1.3343108504398826
1.3391984359726294
1.346041055718475
1.3519061583577712
1.3528836754643203
1.348973607038123
1.3391984359726294
1.327468230694037
1.3147605083088951
1.2971652003910068
1.2746823069403714
1.2502443792766371
1.2258064516129032
1.2003910068426198
1.1730205278592376
1.1456500488758554
1.118279569892473
1.0918866080156402
1.0654936461388074
1.040078201368524
1.021505376344086
1.0068426197458455
0.9872922776148584
0.967741935483871
0.9481915933528836
0.9305962854349952
0.9149560117302052
0.9032258064516128
0.895405669599218
0.8914956011730205
0.8895405669599218
0.8885630498533724
0.8914956011730205
0.8963831867057673
0.8993157380254154
0.9012707722385142
0.9032258064516128
0.9081133919843596
0.9159335288367546
0.9247311827956988
0.935483870967742
0.9501466275659824
0.9696969696969696
0.9912023460410556
1.013685239491691
1.035190615835777
1.0557184750733135
1.0742913000977516
1.088954056695992
1.1016617790811338
1.118279569892473
1.147605083088954
1.2013685239491692
1.2883675464320623
1.4134897360703813
1.576735092864125
1.7732160312805474
1.959921798631476
2.1378299120234603
2.332355816226784
2.5190615835777126
2.681329423264907
2.812316715542522
2.9120234604105573
2.983382209188661
3.029325513196481
3.0557184750733137
3.067448680351906
3.0684261974584555
3.060606060606061
3.0449657869012707
3.0254154447702835
3.006842619745845
2.9902248289345064
2.973607038123167
2.9579667644183774
2.9423264907135875
2.9257086999022484
2.906158357771261
2.8836754643206257
2.857282502443793
2.825024437927664
2.788856304985337
2.7497556207233624
2.7067448680351904
2.6608015640273703
2.611925708699902
2.560117302052786
2.506353861192571
2.447702834799609
2.3851417399804498
2.3167155425219943
2.241446725317693
2.157380254154448
2.0635386119257086
1.9745845552297163
1.8866080156402736
1.7859237536656891
1.6823069403714566
1.585532746823069
1.5024437927663734
1.4379276637341154
1.392961876832845
1.367546432062561
1.3558162267839686
1.3519061583577712
1.3528836754643203
1.3548387096774193
1.3558162267839686
1.3528836754643203
1.3470185728250244
1.3372434017595307
1.324535679374389
1.3098729227761483
1.2932551319648091
1.2746823069403714
1.2561094819159335
1.2365591397849462
1.2179863147605083
1.2003910068426198
1.187683284457478
1.176930596285435
1.163245356793744
1.147605083088954
1.1319648093841643
1.1173020527859236
1.1026392961876832
1.088954056695992
1.075268817204301
1.0625610948191593
1.0498533724340176
1.040078201368524
1.035190615835777
1.032258064516129
1.029325513196481
1.0283479960899315
1.0263929618768328
1.024437927663734
1.0234604105571847
1.0224828934506354
1.021505376344086
1.0205278592375366
1.021505376344086
1.0263929618768328
1.035190615835777
1.0469208211143697
1.06158357771261
1.078201368523949
1.096774193548387
1.1143695014662756
1.1319648093841643
1.1485826001955035
1.164222873900293
1.176930596285435
1.1886608015640274
1.203323558162268
1.2297165200391007
1.267839687194526
1.343108504398827
1.4613880742913
1.603128054740958
1.7732160312805474
1.964809384164223
2.164222873900293
2.358748778103617
2.535679374389052
2.684261974584555
2.8025415444770285
2.889540566959922
2.940371456500489
2.964809384164223
2.9765395894428157
2.975562072336266
2.967741935483871
2.95405669599218
2.9345063538611926
2.913000977517106
2.89247311827957
2.8729227761485827
2.8563049853372435
2.8406647116324537
2.823069403714565
2.8044965786901277
2.782991202346041
2.7595307917888565
2.732160312805474
2.699902248289345
2.662756598240469
2.622678396871945
2.579667644183773
2.533724340175953
2.4838709677419355
2.432062561094819
2.376344086021505
2.3225806451612905
2.2688172043010755
2.2082111436950145
2.139784946236559
2.064516129032258
1.9804496578690127
1.8875855327468232
1.7869012707722385
1.6803519061583578
1.5728250244379276
1.4701857282502444
1.3773216031280548
1.2991202346041055
1.2443792766373412
1.2052785923753666
1.1720430107526882
1.1436950146627567
1.1202346041055715
1.0977517106549364
1.0733137829912025
1.0449657869012707
1.0117302052785924
0.975562072336266
0.9364613880742912
0.8944281524926686
0.8602150537634409
0.83088954056696
0.7956989247311828
0.7575757575757576
0.7194525904203324
0.6813294232649071
0.6441837732160313
0.6080156402737048
0.5728250244379277
0.5395894428152492
0.5102639296187683
0.4828934506353861
0.4565004887585532
0.4408602150537634
0.4310850439882698
0.4173998044965787
0.4017595307917888
0.386119257086999
0.3734115347018573
0.3626588465298143
0.35386119257087
0.3470185728250244
0.3411534701857282
0.3372434017595307
0.3333333333333333
0.3362658846529814
0.3421309872922776
0.3450635386119257
0.3450635386119257
0.3450635386119257
0.3460410557184751
0.3470185728250244
0.3499511241446725
0.3548387096774194
0.3597262952101662
0.3665689149560117
0.3763440860215054
0.3880742913000977
0.4046920821114369
0.4222873900293255
0.4359726295210166
0.4467253176930596
0.4565004887585532
0.4701857282502444
0.4965786901270772
0.544477028347996
0.6236559139784946
0.7419354838709677
0.9002932551319648
1.0948191593352885
1.2854349951124144
1.474095796676442
1.6852394916911049
1.895405669599218
2.086021505376344
2.24633431085044
2.3734115347018574
2.469208211143695
2.5376344086021505
2.582600195503421
2.6099706744868034
2.622678396871945
2.625610948191593
2.619745845552297
2.6080156402737047
2.595307917888563
2.582600195503421
2.5698924731182795
2.557184750733138
2.5434995112414467
2.5268817204301075
2.5083088954056696
2.487781036168133
2.463343108504399
2.4349951124144678
2.404692082111437
2.3714565004887587
2.334310850439883
2.294232649071359
2.251221896383187
2.206256109481916
2.156402737047898
2.1006842619745845
2.037145650048876
1.962854349951124
1.878787878787879
1.7859237536656891
1.6871945259042034
1.598240469208211
1.5161290322580645
1.4281524926686218
1.3470185728250244
1.2795698924731185
1.2297165200391007
1.1974584555229717
1.181818181818182
1.1779081133919844
1.181818181818182
1.1886608015640274
1.1935483870967742
1.1974584555229717
1.1994134897360704
1.1974584555229717
1.1935483870967742
1.1906158357771262
1.1886608015640274
1.187683284457478
1.1857282502443791
1.181818181818182
1.176930596285435
1.1710654936461389
1.164222873900293
1.1544477028347997
1.1466275659824048
1.1368523949169111
1.5708699902248289
1.5718475073313782
1.5747800586510263
1.5786901270772238
1.581622678396872
1.581622678396872
1.5786901270772238
1.5728250244379276
1.5679374389051808
1.5620723362658846
1.5542521994134897
1.543499511241447
1.5317693059628543
1.5180840664711632
1.504398826979472
1.4897360703812317
1.474095796676442
1.457478005865103
1.4408602150537635
1.4242424242424243
1.412512218963832
1.4037145650048877
1.3949169110459434
1.3861192570869991
1.3763440860215057
1.3665689149560116
1.3587487781036167
1.3519061583577712
1.346041055718475
1.3411534701857282
1.33822091886608
1.3372434017595307
1.3362658846529814
1.33822091886608
1.343108504398827
1.3479960899315735
1.3548387096774193
1.3636363636363635
1.3734115347018572
1.3841642228739004
1.3949169110459434
1.4066471163245358
1.418377321603128
1.4301075268817205
1.4418377321603129
1.4545454545454546
1.466275659824047
1.474095796676442
1.478983382209189
1.4848484848484849
1.4965786901270772
1.521994134897361
1.5698924731182795
1.6471163245356797
1.7575757575757576
1.8993157380254155
2.0625610948191597
2.236559139784946
2.3870967741935485
2.517106549364614
2.6471163245356792
2.7614858260019552
2.854349951124145
2.9237536656891496
2.9716520039100685
3.0019550342130987
3.0175953079178885
3.0234604105571847
3.021505376344086
3.01564027370479
3.005865102639296
2.9931573802541545
2.981427174975562
2.970674486803519
2.961876832844575
2.9530791788856305
2.945259042033236
2.935483870967742
2.9237536656891496
2.866080156402737
2.782013685239492
2.7262952101661777
2.681329423264907
2.6402737047898337
2.60019550342131
2.5562072336265884
2.509286412512219
2.4594330400782014
2.404692082111437
2.346041055718475
2.2844574780058653
2.218963831867057
2.147605083088954
2.069403714565005
1.9833822091886608
1.903225806451613
1.8269794721407624
1.7419354838709675
1.6588465298142718
1.5835777126099706
1.521016617790811
1.474095796676442
1.4418377321603129
1.423264907135875
1.414467253176931
1.4115347018572826
1.4115347018572826
1.409579667644184
1.4076246334310851
1.404692082111437
1.3978494623655917
1.388074291300098
1.375366568914956
1.3616813294232648
1.3470185728250244
1.3313782991202343
1.316715542521994
1.3020527859237536
1.2864125122189638
1.2717497556207231
1.260019550342131
1.2502443792766371
1.2394916911045943
1.2287390029325511
1.2179863147605083
1.2072336265884651
1.1974584555229717
1.1886608015640274
1.1808406647116323
1.1759530791788857
1.173998044965787
1.1749755620723363
1.1779081133919844
1.1837732160312806
1.1915933528836755
1.1994134897360704
1.209188660801564
1.2189638318670577
1.2287390029325511
1.238514173998045
1.2502443792766371
1.262952101661779
1.2746823069403714
1.2864125122189638
1.2981427174975562
1.3088954056695992
1.3186705767350928
1.3264907135874875
1.332355816226784
1.335288367546432
1.3343108504398826
1.3304007820136852
1.324535679374389
1.3255131964809383
1.3411534701857282
1.3812316715542523
1.4545454545454546
1.5405669599217986
1.64613880742913
1.7898338220918866
1.956989247311828
2.1300097751710654
2.2961876832844577
2.4457478005865103
2.5718475073313782
2.670576735092864
2.744868035190616
2.7976539589442817
2.831867057673509
2.852394916911046
2.859237536656892
2.857282502443793
2.854349951124145
2.8484848484848486
2.8406647116324537
2.83088954056696
2.8211143695014664
2.811339198435973
2.80058651026393
2.787878787878788
2.7751710654936463
2.7595307917888565
2.7390029325513194
2.7145650048875853
2.689149560117302
2.659824046920821
2.627565982404692
2.592375366568915
2.552297165200391
2.509286412512219
2.463343108504399
2.41544477028348
2.364613880742913
2.3088954056695994
2.249266862170088
2.1925708699902247
2.132942326490713
2.06158357771261
1.9804496578690127
1.8944281524926687
1.8054740957966764
1.7194525904203324
1.6422287390029326
1.5786901270772238
1.5317693059628543
1.5024437927663734
1.487781036168133
1.482893450635386
1.4838709677419355
1.4868035190615836
1.4887585532746823
1.4868035190615836
1.4819159335288368
1.4731182795698925
1.4613880742913
1.4467253176930597
1.4301075268817205
1.4134897360703813
1.3978494623655917
1.3822091886608017
1.3714565004887584
1.3636363636363635
1.35386119257087
1.3440860215053765
1.3333333333333333
1.3235581622678396
1.3147605083088951
1.3069403714565004
1.2991202346041055
1.2913000977517106
1.2834799608993157
1.2756598240469208
1.2697947214076246
1.2639296187683284
1.2561094819159335
1.2482893450635386
1.241446725317693
1.2375366568914956
1.2365591397849462
1.2375366568914956
1.2394916911045943
1.241446725317693
1.2434017595307918
1.24633431085044
1.249266862170088
1.2531769305962854
1.2580645161290325
1.262952101661779
1.2688172043010753
1.2756598240469208
