ppg
2.6265884652981426
2.696969696969697
2.7624633431085046
2.819159335288368
2.866080156402737
2.9042033235581624
2.935483870967742
2.959921798631476
2.9775171065493646
2.989247311827957
2.9931573802541545
2.988269794721408
2.972629521016618
2.948191593352884
2.913978494623656
2.8690127077223853
2.814271749755621
2.7497556207233624
2.67644183773216
2.5972629521016617
2.5131964809384164
2.4281524926686218
2.3440860215053765
2.2639296187683287
2.189638318670577
2.129032258064516
2.0791788856304985
2.032258064516129
1.9902248289345064
1.9530791788856303
1.9188660801564028
1.8866080156402736
1.8543499511241448
1.822091886608016
1.7898338220918866
1.7556207233626588
1.7204301075268815
1.6842619745845553
1.6520039100684265
1.6217008797653958
1.587487781036168
1.5532746823069403
1.5190615835777126
1.4848484848484849
1.452590420332356
1.4213098729227762
1.3919843597262953
1.3626588465298142
1.335288367546432
1.3098729227761483
1.2903225806451613
1.2746823069403714
1.2570869990224829
1.2394916911045943
1.2228739002932552
1.209188660801564
1.195503421309873
1.1827956989247312
1.1710654936461389
1.1583577712609971
1.1456500488758554
1.133919843597263
1.1221896383186705
1.115347018572825
1.1114369501466277
1.104594330400782
1.0977517106549364
1.0899315738025417
1.083088954056696
1.0772238514173995
1.0713587487781036
1.0664711632453567
1.0625610948191593
1.0586510263929618
1.0547409579667644
1.053763440860215
1.053763440860215
1.0518084066471165
1.0478983382209188
1.043010752688172
1.0391006842619743
1.035190615835777
1.0312805474095796
1.0273704789833822
1.024437927663734
1.0234604105571847
1.021505376344086
1.0205278592375366
1.0224828934506354
1.0283479960899315
1.0381231671554252
1.0576735092864125
1.093841642228739
1.1515151515151516
1.2355816226783969
1.3479960899315735
1.487781036168133
1.6471163245356797
1.8191593352883677
1.994134897360704
2.142717497556207
2.269794721407625
2.398826979472141
2.517106549364614
2.618768328445748
2.702834799608993
2.771260997067449
2.8260019550342133
2.8699902248289346
2.906158357771261
2.935483870967742
2.956989247311828
2.9716520039100685
2.9745845552297165
2.967741935483871
2.9579667644183774
2.941348973607038
2.9159335288367547
2.8797653958944283
2.833822091886608
2.776148582600196
2.70772238514174
2.63049853372434
2.5454545454545454
2.4574780058651027
2.377321603128055
2.302052785923754
2.222873900293255
2.146627565982405
2.0762463343108504
2.0127077223851417
1.9579667644183771
1.9100684261974583
1.866080156402737
1.825024437927664
1.7859237536656891
1.7468230694037146
1.7126099706744868
1.6813294232649072
1.6451612903225807
1.606060606060606
1.565982404692082
1.5278592375366569
1.490713587487781
1.455522971652004
1.4222873900293256
1.3919843597262953
1.3655913978494625
1.343108504398827
1.324535679374389
1.3118279569892473
1.303030303030303
1.295210166177908
1.289345063538612
1.2854349951124144
1.2834799608993157
1.2834799608993157
1.2834799608993157
1.2834799608993157
1.2834799608993157
1.2834799608993157
1.2825024437927663
1.2825024437927663
1.2766373411534702
1.2639296187683284
1.2502443792766371
1.2346041055718475
1.2160312805474096
1.1935483870967742
1.1681329423264908
1.1407624633431086
1.110459433040078
1.0791788856304985
1.0478983382209188
1.0166177908113392
0.9921798631476052
0.9716520039100685
0.9481915933528836
0.9247311827956988
0.9032258064516128
0.8836754643206256
0.8660801564027371
0.8514173998044966
0.8406647116324536
0.833822091886608
0.8318670576735093
0.8347996089931574
0.8435972629521017
0.8563049853372434
0.8699902248289345
0.8856304985337243
0.9022482893450636
0.9208211143695014
0.9423264907135877
0.9726295210166178
1.0156402737047898
1.078201368523949
1.163245356793744
1.273704789833822
1.4086021505376345
1.5405669599217986
1.6735092864125125
1.8299120234604105
1.994134897360704
2.15347018572825
2.2991202346041058
2.426197458455523
2.530791788856305
2.613880742913001
2.677419354838709
2.7262952101661777
2.7614858260019552
2.780058651026393
2.788856304985337
2.7966764418377323
2.8025415444770285
2.803519061583578
2.7996089931573804
2.790811339198436
2.7751710654936463
2.7517106549364616
2.719452590420332
2.67644183773216
2.6236559139784945
2.5620723362658846
2.4995112414467253
2.4359726295210167
2.363636363636364
2.290322580645161
2.218963831867057
2.1524926686217007
2.0928641251221896
2.040078201368524
1.9960899315738023
1.959921798631476
1.927663734115347
1.8983382209188664
1.8729227761485825
1.8494623655913975
1.822091886608016
1.790811339198436
1.7575757575757576
1.721407624633431
1.683284457478006
1.643206256109482
1.6021505376344083
1.560117302052786
1.520039100684262
1.4809384164222874
1.4437927663734116
1.4134897360703813
1.388074291300098
1.3616813294232648
1.3343108504398826
1.3088954056695992
1.284457478005865
1.2619745845552297
1.2424242424242424
1.2258064516129032
1.2121212121212122
1.2013685239491692
1.1925708699902249
1.187683284457478
1.1857282502443791
1.181818181818182
1.176930596285435
1.1720430107526882
1.1671554252199414
1.1622678396871946
1.1573802541544478
1.1534701857282503
1.1495601173020529
1.1456500488758554
1.142717497556207
1.13880742913001
1.1378299120234605
1.13880742913001
1.1358748778103618
1.1319648093841643
1.1270772238514175
1.1192570869990224
1.1124144672531768
1.10752688172043
1.1016617790811338
1.096774193548387
1.0909090909090908
1.086021505376344
1.083088954056696
1.0821114369501466
1.0791788856304985
1.075268817204301
1.0703812316715542
1.064516129032258
1.0586510263929618
1.053763440860215
1.0518084066471165
1.056695992179863
1.072336265884653
1.1055718475073313
1.163245356793744
1.2326490713587488
1.3206256109481915
1.444770283479961
1.5972629521016617
1.76930596285435
1.9521016617790807
2.134897360703812
2.3069403714565007
2.463343108504399
2.5992179863147604
2.7126099706744866
2.806451612903226
2.870967741935484
2.916911045943304
2.960899315738025
3.0009775171065494
3.035190615835777
3.0635386119257086
3.086021505376344
3.1006842619745845
3.10752688172043
3.1065493646138806
3.0957966764418376
3.074291300097752
3.042033235581622
3.0009775171065494
2.952101661779081
2.89345063538612
2.8240469208211145
2.745845552297165
2.6608015640273703
2.570869990224829
2.4780058651026398
2.386119257086999
2.2981427174975564
2.217986314760508
2.147605083088954
2.090909090909091
2.043010752688172
1.9980449657869013
1.956989247311828
1.919843597262952
1.884652981427175
1.8504398826979471
1.818181818181818
1.7859237536656891
1.75366568914956
1.721407624633431
1.6881720430107527
1.6549364613880744
1.6256109481915937
1.598240469208211
1.565982404692082
1.5317693059628543
1.4975562072336266
1.4633431085043989
1.43108504398827
1.3988269794721409
1.3685239491691104
1.3401759530791788
1.3118279569892473
1.2854349951124144
1.2658846529814272
1.2482893450635386
1.2287390029325511
1.2082111436950147
1.1886608015640274
1.1700879765395895
1.152492668621701
1.1368523949169111
1.1221896383186705
1.110459433040078
1.099706744868035
1.0899315738025417
1.0840664711632453
1.0791788856304985
1.0713587487781036
1.0635386119257086
1.0547409579667644
1.0478983382209188
1.0420332355816226
1.0371456500488758
1.0332355816226784
1.029325513196481
1.0254154447702837
1.0224828934506354
1.0205278592375366
1.0205278592375366
1.0234604105571847
1.0254154447702837
1.0263929618768328
1.0263929618768328
1.0263929618768328
1.0273704789833822
1.0283479960899315
1.0283479960899315
1.0263929618768328
1.0234604105571847
1.0205278592375366
1.021505376344086
1.0283479960899315
1.0439882697947214
1.075268817204301
1.1290322580645162
1.2111436950146628
1.3225806451612905
1.4623655913978495
1.6236559139784943
1.8406647116324533
2.0391006842619745
2.175953079178885
2.315738025415445
2.429130009775171
2.5210166177908118
2.6099706744868034
2.6881720430107525
2.7546432062561097
2.809384164222874
2.809384164222874
2.809384164222874
2.809384164222874
2.809384164222874
2.809384164222874
2.809384164222874
2.873900293255132
2.863147605083089
2.8484848484848486
2.8269794721407626
2.795698924731183
2.755620723362659
2.704789833822092
2.6451612903225805
2.578690127077224
2.506353861192571
2.43108504398827
2.3548387096774195
2.281524926686217
2.217986314760508
2.1622678396871944
2.10850439882698
2.059628543499511
2.016617790811339
1.978494623655914
1.945259042033236
1.9149560117302051
1.8856304985337244
1.8563049853372435
1.826001955034213
1.7947214076246334
1.7673509286412512
1.7419354838709675
1.7145650048875856
1.6852394916911049
1.6549364613880744
1.624633431085044
1.595307917888563
1.5669599217986314
1.5395894428152492
1.5131964809384164
1.4868035190615836
1.4613880742913
1.436950146627566
1.4173998044965788
1.4007820136852396
1.3822091886608017
1.364613880742913
1.3470185728250244
1.3294232649071358
1.313782991202346
1.2991202346041055
1.2864125122189638
1.2746823069403714
1.2649071358748778
1.2541544477028348
1.2473118279569892
1.2424242424242424
1.2365591397849462
1.2297165200391007
1.2218963831867058
1.2140762463343109
1.2072336265884651
1.2003910068426198
1.1945259042033236
1.1886608015640274
1.1827956989247312
1.1779081133919844
1.1730205278592376
1.1720430107526882
1.1730205278592376
1.1720430107526882
1.1700879765395895
1.1681329423264908
1.166177908113392
1.164222873900293
1.163245356793744
1.163245356793744
1.163245356793744
1.163245356793744
1.163245356793744
1.1652003910068427
1.1681329423264908
1.1691104594330402
1.1691104594330402
1.1710654936461389
1.1779081133919844
1.1945259042033236
1.2267839687194526
1.2805474095796676
1.3607038123167154
1.466275659824047
1.5943304007820136
1.7390029325513197
1.8729227761485825
1.9990224828934504
2.136852394916911
2.270772238514174
2.3919843597262958
2.496578690127077
2.5835777126099706
2.653958944281525
2.710654936461388
2.755620723362659
2.791788856304985
2.8211143695014664
2.8377321603128056
2.84652981427175
2.8533724340175954
2.857282502443793
2.855327468230694
2.84652981427175
2.8299120234604107
2.8044965786901277
2.76930596285435
2.724340175953079
2.6695992179863146
2.6070381231671558
2.5249266862170088
2.452590420332356
2.396871945259042
2.332355816226784
2.2668621700879767
2.203323558162268
2.145650048875855
2.093841642228739
2.048875855327468
2.0087976539589443
1.9736070381231672
1.9423264907135875
1.9120234604105573
1.8866080156402736
1.8621700879765395
1.835777126099707
1.8064516129032255
1.775171065493646
1.7429130009775171
1.710654936461388
1.678396871945259
1.64613880742913
1.6158357771260996
1.5865102639296187
1.5581622678396871
1.530791788856305
1.5083088954056696
1.4887585532746823
1.466275659824047
1.4437927663734116
1.4213098729227762
1.3998044965786902
1.380254154447703
1.3626588465298142
1.3470185728250244
1.3333333333333333
1.3206256109481915
1.3098729227761483
1.3020527859237536
1.2971652003910068
1.2913000977517106
1.2854349951124144
1.278592375366569
1.270772238514174
1.2639296187683284
1.2570869990224829
1.2512218963831867
1.24633431085044
1.2434017595307918
1.24633431085044
1.2561094819159335
1.2746823069403714
1.3069403714565004
1.356793743890518
1.4271749755620724
1.517106549364614
1.6236559139784943
1.7429130009775171
1.8670576735092863
1.9902248289345064
2.126099706744868
2.239491691104594
2.3118279569892475
2.367546432062561
2.410557184750733
2.450635386119257
2.4858260019550342
2.5141739980449658
2.536656891495601
2.5532746823069403
2.5650048875855327
2.570869990224829
2.5698924731182795
2.5620723362658846
2.5464320625610948
2.5239491691104594
2.4946236559139785
2.455522971652004
2.407624633431085
2.350928641251222
2.2883675464320627
2.2218963831867056
2.1544477028347995
2.0879765395894427
2.026392961876833
1.9716520039100685
1.924731182795699
1.884652981427175
1.8533724340175952
1.827956989247312
1.804496578690127
1.7820136852394917
1.7605083088954057
1.739980449657869
1.718475073313783
1.6959921798631477
1.672531769305963
1.6471163245356797
1.6217008797653958
1.5943304007820136
1.5708699902248289
1.5493646138807429
1.5239491691104594
1.4965786901270772
1.469208211143695
1.4428152492668622
1.4164222873900294
1.3919843597262953
1.3685239491691104
1.346041055718475
1.324535679374389
1.3049853372434017
1.2873900293255132
1.2746823069403714
1.2658846529814272
1.2561094819159335
1.24633431085044
1.2375366568914956
1.2287390029325511
1.2209188660801564
1.2130987292277615
1.2052785923753666
1.198435972629521
1.1935483870967742
1.1886608015640274
1.1867057673509287
1.1857282502443791
1.1827956989247312
1.1779081133919844
1.173998044965787
1.1700879765395895
1.1652003910068427
1.1593352883675463
1.1544477028347997
1.1495601173020529
1.144672531769306
1.1407624633431086
1.1368523949169111
1.1368523949169111
1.1055718475073313
1.0557184750733135
1.0303030303030305
1.0166177908113392
1.0087976539589445
1.002932551319648
0.9980449657869012
0.9941348973607038
0.9902248289345064
0.9872922776148584
0.9853372434017597
0.9863147605083088
0.9902248289345064
0.9921798631476052
0.9941348973607038
0.9960899315738024
0.9980449657869012
1.0009775171065494
1.0048875855327468
1.007820136852395
1.0097751710654936
1.0117302052785924
1.0127077223851415
1.0146627565982405
1.018572825024438
1.024437927663734
1.0283479960899315
1.0303030303030305
1.032258064516129
1.0332355816226784
1.0342130987292275
1.035190615835777
1.0391006842619743
1.0518084066471165
1.0791788856304985
1.1300097751710656
1.195503421309873
1.2834799608993157
1.412512218963832
1.5777126099706744
1.76930596285435
1.9775171065493649
2.189638318670577
2.3919843597262958
2.575757575757576
2.736070381231672
2.8699902248289346
2.979472140762464
3.0684261974584555
3.139784946236559
3.1955034213098727
3.231671554252199
3.2561094819159337
3.278592375366569
3.294232649071359
3.3010752688172045
3.2981427174975564
3.2844574780058653
3.2580645161290325
3.218963831867057
3.16911045943304
3.112414467253177
3.0498533724340176
2.9765395894428157
2.8944281524926687
2.779081133919844
2.670576735092864
2.590420332355816
2.5004887585532747
2.3870967741935485
2.2873900293255134
2.220918866080156
2.155425219941349
2.0948191593352883
2.0449657869012707
2.0019550342130987
1.9618768328445748
1.9237536656891496
1.8885630498533723
1.8533724340175952
1.8103616813294232
1.7634408602150538
1.732160312805474
1.7096774193548387
1.683284457478006
1.6529814271749756
1.6275659824046922
1.6080156402737047
1.58455522971652
1.5581622678396871
1.530791788856305
1.5024437927663734
1.4643206256109482
1.4291300097751711
1.4027370478983383
1.3743890518084063
1.3401759530791788
1.3040078201368523
1.2805474095796676
1.267839687194526
1.2561094819159335
1.2394916911045943
1.2218963831867058
1.2101661779081134
1.2023460410557183
1.1964809384164223
1.1925708699902249
1.1906158357771262
1.1886608015640274
1.1857282502443791
1.18475073313783
1.1857282502443791
1.181818181818182
1.1730205278592376
1.163245356793744
1.1534701857282503
1.142717497556207
1.1319648093841643
1.1251221896383188
1.1173020527859236
1.1065493646138806
1.096774193548387
1.0869990224828934
1.0811339198435972
1.0791788856304985
1.0762463343108504
1.0742913000977516
1.072336265884653
1.072336265884653
1.0742913000977516
1.078201368523949
1.0840664711632453
1.0918866080156402
1.1016617790811338
1.1114369501466277
1.1221896383186705
1.133919843597263
1.1466275659824048
1.164222873900293
1.1915933528836755
1.2326490713587488
1.2932551319648091
1.3743890518084063
1.4750733137829912
1.5884652981427174
1.7086999022482894
1.8299120234604105
1.9305962854349952
2.0175953079178885
2.1055718475073317
2.189638318670577
2.2688172043010755
2.345063538611926
2.420332355816227
2.4975562072336266
2.579667644183773
2.6666666666666665
2.758553274682307
2.854349951124145
2.949169110459433
3.024437927663734
3.085043988269794
3.144672531769306
3.1925708699902247
3.219941348973607
3.2238514173998043
3.201368523949169
3.1544477028347995
3.0869990224828934
3.0009775171065494
2.9012707722385143
2.792766373411535
2.6911045943304006
2.593352883675464
2.4887585532746823
2.386119257086999
2.289345063538612
2.20039100684262
2.121212121212121
2.0518084066471163
1.991202346041056
1.93841642228739
1.8905180840664717
1.847507331378299
1.8074291300097751
1.7732160312805474
1.7419354838709675
1.70772238514174
1.672531769305963
1.6363636363636365
1.5992179863147604
1.5620723362658846
1.5249266862170088
1.487781036168133
1.4506353861192571
1.4134897360703813
1.3773216031280548
1.3479960899315735
1.3225806451612905
1.2942326490713587
1.2649071358748778
1.2375366568914956
1.2121212121212122
1.1886608015640274
1.1671554252199414
1.1485826001955035
1.1329423264907137
1.118279569892473
1.104594330400782
1.0928641251221896
1.086021505376344
1.0811339198435972
1.075268817204301
1.0684261974584557
1.06158357771261
1.0547409579667644
1.0469208211143697
1.0391006842619743
1.0312805474095796
1.024437927663734
1.0175953079178883
1.0127077223851415
1.0127077223851415
1.013685239491691
1.0127077223851415
1.0117302052785924
1.0097751710654936
1.0087976539589445
1.0068426197458455
1.0048875855327468
1.0039100684261977
1.0048875855327468
1.0058651026392962
1.0068426197458455
1.0068426197458455
1.0087976539589445
1.0117302052785924
1.0117302052785924
1.010752688172043
1.0097751710654936
1.010752688172043
1.0156402737047898
1.0303030303030305
1.0596285434995112
1.1094819159335287
1.18475073313783
1.2873900293255132
1.3958944281524928
1.5141739980449658
1.66177908113392
1.825024437927664
1.992179863147605
2.15347018572825
2.3010752688172045
2.43108504398827
2.484848484848485
2.4887585532746823
2.515151515151515
2.549364613880743
2.58455522971652
2.6099706744868034
2.63049853372434
2.654936461388074
2.679374389051808
2.7008797653958942
2.718475073313783
2.730205278592375
2.735092864125122
2.732160312805474
2.719452590420332
2.6959921798631474
2.662756598240469
2.6236559139784945
2.576735092864125
2.520039100684262
2.453567937438905
2.3812316715542523
2.304007820136853
2.225806451612903
2.1485826001955037
2.075268817204301
2.007820136852395
1.9472140762463344
1.8934506353861196
1.8465298142717497
1.8093841642228736
1.7781036168132942
1.747800586510264
1.7194525904203324
1.6920821114369502
1.6637341153470186
1.6363636363636365
1.6099706744868034
1.5826001955034212
1.555229716520039
1.5278592375366569
1.500488758553275
1.478005865102639
1.458455522971652
1.436950146627566
1.414467253176931
1.393939393939394
1.3734115347018572
1.3528836754643203
1.3343108504398826
1.3157380254154447
1.2961876832844574
1.2776148582600195
1.2590420332355816
1.2404692082111437
1.2267839687194526
1.2140762463343109
1.1974584555229717
1.1788856304985338
1.1593352883675463
1.13880742913001
1.118279569892473
1.0987292277614855
1.0801564027370478
1.0625610948191593
1.0469208211143697
1.032258064516129
1.0224828934506354
1.0166177908113392
1.0097751710654936
1.002932551319648
0.9960899315738024
0.9912023460410556
0.989247311827957
0.9882697947214076
0.9882697947214076
0.9902248289345064
0.9931573802541545
0.997067448680352
1.0019550342130987
1.0097751710654936
1.018572825024438
1.0254154447702837
1.0303030303030305
1.0342130987292275
1.0371456500488758
1.0381231671554252
1.0381231671554252
1.0391006842619743
1.0449657869012707
1.0586510263929618
1.0869990224828934
1.126099706744868
1.1808406647116323
1.262952101661779
1.370478983382209
1.498533724340176
1.640273704789834
1.7888563049853372
1.9364613880742916
2.075268817204301
2.20039100684262
2.3098729227761488
2.4027370478983383
2.4809384164222874
2.536656891495601
2.576735092864125
2.6148582600195502
2.650048875855328
2.6803519061583576
2.705767350928641
2.7253176930596283
2.73802541544477
2.744868035190616
2.7438905180840663
2.7341153470185726
2.713587487781036
2.6852394916911044
2.649071358748778
2.6021505376344085
2.5454545454545454
2.4809384164222874
2.410557184750733
2.337243401759531
2.2639296187683287
2.1915933528836757
2.12316715542522
2.060606060606061
2.004887585532747
1.959921798631476
1.9227761485826005
1.8875855327468232
1.8543499511241448
1.8240469208211143
1.7956989247311828
1.7673509286412512
1.739980449657869
1.7116324535679377
1.6823069403714566
1.651026392961877
1.619745845552297
1.587487781036168
1.5591397849462365
1.5327468230694037
1.5034213098729228
1.4731182795698925
1.4428152492668622
1.4134897360703813
1.3851417399804498
1.3587487781036167
1.3333333333333333
1.3098729227761483
1.2883675464320623
1.267839687194526
1.252199413489736
1.2404692082111437
1.2267839687194526
1.2130987292277615
1.2003910068426198
1.1896383186705768
1.1798631476050832
1.1720430107526882
1.1652003910068427
1.1573802541544478
1.1495601173020529
1.1407624633431086
1.1329423264907137
1.1280547409579669
1.1251221896383188
1.121212121212121
1.115347018572825
1.1094819159335287
1.1036168132942326
1.0977517106549364
1.0909090909090908
1.0840664711632453
1.078201368523949
1.0733137829912025
1.0694037145650048
1.0684261974584557
1.0684261974584557
1.0664711632453567
1.0635386119257086
1.0596285434995112
1.0557184750733135
1.0527859237536656
1.0498533724340176
1.0469208211143697
1.0439882697947214
1.0410557184750733
1.0391006842619743
1.0410557184750733
1.050830889540567
1.0703812316715542
1.1055718475073313
1.1622678396871946
1.2443792766373412
1.3528836754643203
1.4848484848484849
1.6334310850439884
1.790811339198436
1.949169110459433
2.099706744868035
2.2375366568914954
2.3440860215053765
2.4271749755620724
2.506353861192571
2.575757575757576
2.636363636363636
2.686217008797654
2.7282502443792764
2.763440860215054
2.791788856304985
2.814271749755621
2.8299120234604107
2.838709677419355
2.8396871945259043
2.8299120234604107
2.811339198435973
2.7869012707722387
2.7536656891495603
2.7116324535679373
2.6608015640273703
2.601173020527859
2.532746823069404
2.458455522971652
2.380254154447703
2.300097751710655
2.220918866080156
2.1515151515151514
2.090909090909091
2.03128054740958
1.9765395894428155
1.9286412512218964
1.8866080156402736
1.8494623655913975
1.8162267839687196
1.7869012707722385
1.7575757575757576
1.729227761485826
1.7018572825024438
1.6735092864125125
1.6480938416422288
1.6236559139784943
1.5962854349951123
1.565982404692082
1.5347018572825024
1.5034213098729228
1.4721407624633431
1.4408602150537635
1.4105571847507332
1.3812316715542523
1.35386119257087
1.3284457478005864
1.3088954056695992
1.2913000977517106
1.2805474095796676
1.2727272727272727
1.2590420332355816
1.2434017595307918
1.227761485826002
1.2130987292277615
1.1994134897360704
1.1857282502443791
1.1710654936461389
1.1573802541544478
1.144672531769306
1.1368523949169111
1.130987292277615
1.1221896383186705
1.1133919843597262
1.1055718475073313
1.099706744868035
1.0948191593352885
1.0909090909090908
1.0869990224828934
1.083088954056696
1.0801564027370478
1.0772238514173995
1.0772238514173995
1.0791788856304985
1.0791788856304985
1.0772238514173995
1.0742913000977516
1.0713587487781036
1.0684261974584557
1.0654936461388074
1.06158357771261
1.056695992179863
1.0518084066471165
1.0478983382209188
1.0439882697947214
1.043010752688172
1.0449657869012707
1.04594330400782
1.0527859237536656
1.0703812316715542
1.104594330400782
1.1612903225806452
1.2443792766373412
1.35386119257087
1.4868035190615836
1.6383186705767352
1.8005865102639296
1.9442815249266865
2.072336265884653
2.2082111436950145
2.337243401759531
2.452590420332356
2.5513196480938416
2.634408602150537
2.702834799608993
2.758553274682307
2.803519061583578
2.838709677419355
2.866080156402737
2.8856304985337244
2.89345063538612
2.89345063538612
2.8914956011730206
