ppg
1.7859237536656891
1.989247311827957
2.179863147605083
2.355816226783969
2.5376344086021505
2.6989247311827955
2.8240469208211145
2.9100684261974585
2.960899315738025
2.9824046920821115
2.981427174975562
2.964809384164223
2.935483870967742
2.895405669599218
2.850439882697948
2.80058651026393
2.7438905180840663
2.6823069403714563
2.6158357771261
2.5464320625610948
2.4750733137829912
2.403714565004888
2.3313782991202348
2.259042033235582
2.187683284457478
2.117302052785924
2.047898338220919
1.9872922776148585
1.932551319648094
1.8729227761485825
1.812316715542522
1.7517106549364614
1.6920821114369502
1.6334310850439884
1.576735092864125
1.52297165200391
1.4711632453567938
1.4213098729227762
1.3743890518084063
1.3372434017595307
1.305962854349951
1.2727272727272727
1.2394916911045943
1.2082111436950147
1.1808406647116323
1.1573802541544478
1.13880742913001
1.1251221896383188
1.1173020527859236
1.115347018572825
1.1192570869990224
1.1290322580645162
1.1436950146627567
1.1622678396871946
1.18475073313783
1.2111436950146628
1.2394916911045943
1.267839687194526
1.2961876832844574
1.3235581622678396
1.348973607038123
1.3714565004887584
1.391006842619746
1.4076246334310851
1.4222873900293256
1.434017595307918
1.444770283479961
1.4535679374389052
1.4613880742913
1.4672531769305963
1.4682306940371457
1.4633431085043989
1.4535679374389052
1.4437927663734116
1.4457478005865103
1.4731182795698925
1.541544477028348
1.632453567937439
1.7546432062561097
1.924731182795699
2.1251221896383186
2.340175953079179
2.5434995112414467
2.716520039100684
2.849462365591398
2.940371456500489
2.994134897360704
3.016617790811339
3.01564027370479
2.997067448680352
2.9657869012707723
2.924731182795699
2.874877810361681
2.817204301075269
2.752688172043011
2.684261974584555
2.611925708699902
2.5376344086021505
2.4613880742913
2.383186705767351
2.304007820136853
2.225806451612903
2.155425219941349
2.089931573802541
2.0195503421309877
1.9472140762463344
1.8758553274682308
1.8054740957966764
1.737047898338221
1.6705767350928642
1.6050830889540566
1.542521994134897
1.4819159335288368
1.4242424242424243
1.3773216031280548
1.3372434017595307
1.2942326490713587
1.2502443792766371
1.209188660801564
1.1700879765395895
1.1329423264907137
1.099706744868035
1.0694037145650048
1.043010752688172
1.021505376344086
1.0048875855327468
0.9941348973607038
0.9921798631476052
0.9960899315738024
1.002932551319648
1.0146627565982405
1.0312805474095796
1.0527859237536656
1.0791788856304985
1.10752688172043
1.1378299120234605
1.1681329423264908
1.1964809384164223
1.2228739002932552
1.24633431085044
1.2668621700879763
1.284457478005865
1.300097751710655
1.3128054740957966
1.3235581622678396
1.332355816226784
1.3411534701857282
1.3479960899315735
1.3528836754643203
1.3528836754643203
1.3470185728250244
1.3362658846529814
1.327468230694037
1.327468230694037
1.346041055718475
1.3988269794721409
1.499511241446725
1.6500488758553276
1.8435972629521016
2.0635386119257086
2.286412512218964
2.490713587487781
2.6608015640273703
2.787878787878788
2.866080156402737
2.906158357771261
2.924731182795699
2.9227761485826003
2.905180840664712
2.873900293255132
2.83088954056696
2.779081133919844
2.720430107526881
2.6559139784946235
2.5865102639296187
2.5141739980449658
2.44672531769306
2.3812316715542523
2.310850439882698
2.2375366568914954
2.164222873900293
2.090909090909091
2.0175953079178885
1.945259042033236
1.8748778103616808
1.8054740957966764
1.7380254154447703
1.672531769305963
1.608993157380254
1.5562072336265884
1.509286412512219
1.457478005865103
1.404692082111437
1.3528836754643203
1.3020527859237536
1.2541544477028348
1.209188660801564
1.1671554252199414
1.1280547409579669
1.0928641251221896
1.06158357771261
1.040078201368524
1.0234604105571847
1.0068426197458455
0.9931573802541545
0.9824046920821116
0.9765395894428152
0.9775171065493646
0.9843597262952102
0.997067448680352
1.0156402737047898
1.0391006842619743
1.0654936461388074
1.093841642228739
1.1221896383186705
1.1495601173020529
1.176930596285435
1.203323558162268
1.227761485826002
1.2502443792766371
1.2697947214076246
1.2864125122189638
1.3010752688172045
1.313782991202346
1.3255131964809383
1.335288367546432
1.3450635386119256
1.3528836754643203
1.3548387096774193
1.3499511241446724
1.3401759530791788
1.332355816226784
1.33822091886608
1.3724340175953078
1.4506353861192571
1.581622678396872
1.761485826001955
1.9765395894428155
2.206256109481916
2.401759530791789
2.5620723362658846
2.7116324535679373
2.8299120234604107
2.9100684261974585
2.956011730205278
2.973607038123167
2.967741935483871
2.9442815249266863
2.9071358748778104
2.859237536656892
2.8025415444770285
2.744868035190616
2.6852394916911044
2.618768328445748
2.547409579667644
2.474095796676442
2.3978494623655915
2.321603128054741
2.244379276637341
2.1681329423264906
2.0928641251221896
2.018572825024438
1.946236559139785
1.8758553274682308
1.81524926686217
1.7605083088954057
1.7018572825024438
1.6412512218963833
1.581622678396872
1.521994134897361
1.4643206256109482
1.4086021505376345
1.3558162267839686
1.305962854349951
1.2590420332355816
1.2150537634408602
1.1808406647116323
1.152492668621701
1.1221896383186705
1.0928641251221896
1.0654936461388074
1.043010752688172
1.024437927663734
1.0117302052785924
1.0039100684261977
1.0019550342130987
1.0068426197458455
1.018572825024438
1.0361681329423265
1.056695992179863
1.0811339198435972
1.1094819159335287
1.1407624633431086
1.1730205278592376
1.2043010752688172
1.2336265884652982
1.2609970674486803
1.2854349951124144
1.3069403714565004
1.3255131964809383
1.3421309872922775
1.356793743890518
1.3695014662756595
1.3812316715542523
1.391006842619746
1.3978494623655917
1.3998044965786902
1.393939393939394
1.3841642228739004
1.3773216031280548
1.3851417399804498
1.4242424242424243
1.509286412512219
1.64613880742913
1.7996089931573802
1.9726295210166176
2.187683284457478
2.4115347018572826
2.6177908113391983
2.787878787878788
2.9149560117302054
2.99902248289345
3.0449657869012707
3.060606060606061
3.0527859237536656
3.027370478983382
2.991202346041056
2.946236559139785
2.8914956011730206
2.8299120234604107
2.7614858260019552
2.689149560117302
2.6129032258064515
2.533724340175953
2.453567937438905
2.3626588465298144
2.2668621700879767
2.1818181818181817
2.102639296187683
2.0361681329423265
1.975562072336266
1.911045943304008
1.8455522971652003
1.7810361681329423
1.7165200391006843
1.653958944281525
1.5933528836754642
1.533724340175953
1.47702834799609
1.4222873900293256
1.370478983382209
1.3284457478005864
1.29227761485826
1.2531769305962854
1.2140762463343109
1.176930596285435
1.141739980449658
1.110459433040078
1.0821114369501466
1.0586510263929618
1.0391006842619743
1.024437927663734
1.0146627565982405
1.0117302052785924
1.0156402737047898
1.024437927663734
1.0381231671554252
1.056695992179863
1.0791788856304985
1.1036168132942326
1.130987292277615
1.1583577712609971
1.1857282502443791
1.2121212121212122
1.2365591397849462
1.2580645161290325
1.2776148582600195
1.2942326490713587
1.3088954056695992
1.3206256109481915
1.3313782991202343
1.3401759530791788
1.3479960899315735
1.3548387096774193
1.3587487781036167
1.356793743890518
1.348973607038123
1.33822091886608
1.3333333333333333
1.3401759530791788
1.370478983382209
1.4408602150537635
1.560117302052786
1.7272727272727273
1.9305962854349952
2.1485826001955037
2.3597262952101663
2.544477028347996
2.6901270772238512
2.791788856304985
2.854349951124145
2.881720430107527
2.8836754643206257
2.870967741935484
2.8455522971652005
2.809384164222874
2.763440860215054
2.7096774193548385
2.650048875855328
2.58455522971652
2.515151515151515
2.443792766373412
2.3704789833822093
2.304007820136853
2.2404692082111435
2.1710654936461387
2.099706744868035
2.0283479960899315
1.956989247311828
1.8875855327468232
1.8191593352883677
1.7526881720430108
1.6881720430107527
1.624633431085044
1.563049853372434
1.504398826979472
1.455522971652004
1.4115347018572826
1.3636363636363635
1.3157380254154447
1.2688172043010753
1.2238514173998043
1.181818181818182
1.142717497556207
1.10752688172043
1.075268817204301
1.0469208211143697
1.0224828934506354
1.0068426197458455
0.997067448680352
0.9882697947214076
0.981427174975562
0.9794721407624634
0.9833822091886608
0.9931573802541545
1.0087976539589445
1.029325513196481
1.053763440860215
1.0811339198435972
1.110459433040078
1.1407624633431086
1.1681329423264908
1.1935483870967742
1.2189638318670577
1.2424242424242424
1.262952101661779
1.2805474095796676
1.295210166177908
1.3079178885630498
1.3196480938416422
1.3294232649071358
1.33822091886608
1.3440860215053765
1.3479960899315735
1.3479960899315735
1.3411534701857282
1.3313782991202343
1.3264907135874875
1.33822091886608
1.383186705767351
1.4731182795698925
1.6129032258064515
1.7976539589442817
2.0117302052785924
2.231671554252199
2.436950146627566
2.592375366568915
2.704789833822092
2.7947214076246336
2.854349951124145
2.884652981427175
2.8905180840664717
2.87683284457478
2.849462365591398
2.809384164222874
2.760508308895406
2.7038123167155423
2.6422287390029324
2.581622678396872
2.5210166177908118
2.453567937438905
2.3822091886608017
2.3088954056695994
2.2355816226783967
2.1251221896383186
2.0527859237536656
1.981427174975562
1.87683284457478
1.8093841642228736
1.7438905180840665
1.689149560117302
1.6109481915933528
1.555229716520039
1.498533724340176
1.4164222873900294
1.364613880742913
1.3147605083088951
1.2668621700879763
1.2218963831867058
1.1798631476050832
1.141739980449658
1.1133919843597262
1.0909090909090908
1.0664711632453567
1.0439882697947214
1.024437927663734
1.007820136852395
0.9960899315738024
0.989247311827957
0.9882697947214076
0.9941348973607038
1.0048875855327468
1.021505376344086
1.043010752688172
1.0664711632453567
1.0918866080156402
1.1202346041055715
1.1495601173020529
1.1788856304985338
1.206256109481916
1.2326490713587488
1.2570869990224829
1.278592375366569
1.2981427174975562
1.3147605083088951
1.3304007820136852
1.3440860215053765
1.3558162267839686
1.3665689149560116
1.3743890518084063
1.3763440860215057
1.3714565004887584
1.3626588465298142
1.3558162267839686
1.3626588465298142
1.3978494623655917
1.47702834799609
1.606060606060606
1.7839687194525904
1.964809384164223
2.145650048875855
2.3489736070381237
2.5425219941348973
2.704789833822092
2.8269794721407626
2.9071358748778104
2.951124144672532
2.9667644183773216
2.960899315738025
2.9374389051808407
2.9012707722385143
2.8582600195503423
2.8103616813294234
2.7546432062561097
2.659824046920821
2.591397849462365
2.5190615835777126
2.3714565004887587
2.2961876832844577
2.2218963831867056
2.110459433040078
2.038123167155425
1.9745845552297163
1.9159335288367547
1.8533724340175952
1.7888563049853372
1.7253176930596286
1.6627565982404693
1.6011730205278591
1.541544477028348
1.4848484848484849
1.4291300097751711
1.3763440860215057
1.3264907135874875
1.2864125122189638
1.2531769305962854
1.217008797653959
1.187683284457478
1.163245356793744
1.1368523949169111
1.1114369501466277
1.088954056695992
1.0703812316715542
1.0557184750733135
1.0469208211143697
1.0439882697947214
1.0478983382209188
1.0576735092864125
1.072336265884653
1.0918866080156402
1.115347018572825
1.141739980449658
1.1710654936461389
1.2013685239491692
1.2316715542521994
1.2609970674486803
1.2883675464320623
1.3128054740957966
1.3343108504398826
1.3519061583577712
1.3665689149560116
1.380254154447703
1.3919843597262953
1.401759530791789
1.4105571847507332
1.4173998044965788
1.4193548387096775
1.4164222873900294
1.4076246334310851
1.3978494623655917
1.3958944281524928
1.4164222873900294
1.457478005865103
1.5317693059628543
1.6598240469208212
1.836754643206256
2.046920821114369
2.2688172043010755
2.479960899315738
2.659824046920821
2.798631476050831
2.8944281524926687
2.9501466275659824
2.973607038123167
2.9716520039100685
2.952101661779081
2.919843597262952
2.877810361681329
2.8260019550342133
2.766373411534702
2.7008797653958942
2.631476050830889
2.558162267839687
2.482893450635386
2.4056695992179864
2.3284457478005867
2.2580645161290325
2.1925708699902247
2.12316715542522
2.0518084066471163
1.9804496578690127
1.9100684261974583
1.8406647116324533
1.7732160312805474
1.7086999022482894
1.6451612903225807
1.5835777126099706
1.5239491691104594
1.4652981427174976
1.4173998044965788
1.375366568914956
1.3294232649071358
1.2825024437927663
1.2375366568914956
1.195503421309873
1.1564027370478984
1.1202346041055715
1.0879765395894427
1.0586510263929618
1.0332355816226784
1.0117302052785924
0.9990224828934506
0.9931573802541545
0.9882697947214076
0.9872922776148584
0.9912023460410556
1.0019550342130987
1.0175953079178883
1.0381231671554252
1.0625610948191593
1.0899315738025417
1.118279569892473
1.147605083088954
1.1759530791788857
1.2013685239491692
1.2258064516129032
1.249266862170088
1.2697947214076246
1.2883675464320623
1.3040078201368523
1.3186705767350928
1.3313782991202343
1.343108504398827
1.3528836754643203
1.359726295210166
1.3626588465298142
1.3626588465298142
1.3587487781036167
1.3499511241446724
1.343108504398827
1.348973607038123
1.3822091886608017
1.458455522971652
1.58455522971652
1.7575757575757576
1.9657869012707725
2.1867057673509285
2.3978494623655915
2.5806451612903225
2.710654936461388
2.795698924731183
2.8582600195503423
2.89345063538612
2.9042033235581624
2.895405669599218
2.870967741935484
2.834799608993157
2.788856304985337
2.735092864125122
2.674486803519061
2.6099706744868034
2.547409579667644
2.4858260019550342
2.418377321603128
2.347018572825025
2.2737047898338223
2.19941348973607
2.1251221896383186
2.0518084066471163
1.9804496578690127
1.9100684261974583
1.8416422287390029
1.775171065493646
1.710654936461388
1.6549364613880744
1.6050830889540566
1.5503421309872922
1.495601173020528
1.4408602150537635
1.3870967741935485
1.3362658846529814
1.2873900293255132
1.241446725317693
1.198435972629521
1.1593352883675463
1.1231671554252198
1.096774193548387
1.0762463343108504
1.0547409579667644
1.0342130987292275
1.0175953079178883
1.0048875855327468
0.997067448680352
0.9941348973607038
0.9980449657869012
1.007820136852395
1.0224828934506354
1.043010752688172
1.067448680351906
1.093841642228739
1.1202346041055715
1.1485826001955035
1.1779081133919844
1.206256109481916
1.2326490713587488
1.2570869990224829
1.2795698924731185
1.2991202346041055
1.3157380254154447
1.3304007820136852
1.343108504398827
1.35386119257087
1.3636363636363635
1.3724340175953078
1.3782991202346042
1.3773216031280548
1.370478983382209
1.3616813294232648
1.3577712609970674
1.3714565004887584
1.4193548387096775
1.5141739980449658
1.6598240469208212
1.8504398826979471
2.037145650048876
2.218963831867057
2.4164222873900294
2.598240469208211
2.7468230694037143
2.8533724340175954
2.920821114369501
2.9550342130987293
2.961876832844575
2.948191593352884
2.919843597262952
2.8797653958944283
2.833822091886608
2.782991202346041
2.724340175953079
2.659824046920821
2.591397849462365
2.520039100684262
2.44672531769306
2.372434017595308
2.297165200391007
2.222873900293255
2.1485826001955037
2.0762463343108504
2.004887585532747
1.9423264907135875
1.884652981427175
1.823069403714565
1.7605083088954057
1.6979472140762464
1.6373411534701858
1.5777126099706744
1.520039100684262
1.4643206256109482
1.4105571847507332
1.359726295210166
1.310850439882698
1.2727272727272727
1.2404692082111437
1.2052785923753666
1.1710654936461389
1.13880742913001
1.1094819159335287
1.0840664711632453
1.0625610948191593
1.0469208211143697
1.0361681329423265
1.0312805474095796
1.0332355816226784
1.0410557184750733
1.0547409579667644
1.072336265884653
1.0948191593352885
1.1202346041055715
1.1485826001955035
1.1788856304985338
1.209188660801564
1.238514173998045
1.2668621700879763
1.295210166177908
1.3225806451612905
1.3450635386119256
1.3636363636363635
1.3792766373411536
1.392961876832845
1.4056695992179864
1.4164222873900294
1.4252199413489737
1.4301075268817205
1.4301075268817205
1.423264907135875
1.4134897360703813
1.409579667644184
1.423264907135875
1.455522971652004
1.5190615835777126
1.632453567937439
1.7956989247311828
1.9951124144672527
2.212121212121212
2.4222873900293256
2.6070381231671558
2.7536656891495603
2.857282502443793
2.920821114369501
2.951124144672532
2.956011730205278
2.941348973607038
2.913000977517106
2.874877810361681
2.8269794721407626
2.771260997067449
2.7096774193548385
2.643206256109482
2.572825024437928
2.5004887585532747
2.426197458455523
2.350928641251222
2.275659824046921
2.209188660801564
2.146627565982405
2.078201368523949
2.0097751710654936
1.9413489736070384
1.8729227761485825
1.8064516129032255
1.7419354838709675
1.6793743890518085
1.6187683284457477
1.5591397849462365
1.501466275659824
1.4467253176930597
1.401759530791789
1.3626588465298142
1.3196480938416422
1.2766373411534702
1.2346041055718475
1.1945259042033236
1.1573802541544478
1.1221896383186705
1.0909090909090908
1.0635386119257086
1.040078201368524
1.0224828934506354
1.0127077223851415
1.0097751710654936
1.0097751710654936
1.0146627565982405
1.0254154447702837
1.0410557184750733
1.06158357771261
1.086021505376344
1.1133919843597262
1.141739980449658
1.1710654936461389
1.198435972629521
1.2238514173998043
1.24633431085044
1.2649071358748778
1.281524926686217
1.2961876832844574
1.3069403714565004
1.3157380254154447
1.3225806451612905
1.3284457478005864
1.3343108504398826
1.3372434017595307
1.3372434017595307
1.3313782991202343
1.324535679374389
1.3176930596285434
1.3128054740957966
1.321603128054741
1.3577712609970674
1.4349951124144673
1.5562072336265884
1.718475073313783
1.9071358748778104
2.102639296187683
2.2854349951124147
2.4389051808406648
2.555229716520039
2.627565982404692
2.6666666666666665
2.686217008797654
2.687194525904203
2.674486803519061
2.649071358748778
2.6148582600195502
2.5718475073313782
2.52297165200391
2.4682306940371457
2.409579667644184
2.347996089931574
2.290322580645161
2.233626588465298
2.172043010752688
2.10752688172043
2.043010752688172
1.978494623655914
1.9149560117302051
1.8523949169110456
1.7917888563049853
1.7331378299120237
1.6764418377321604
1.619745845552297
1.5650048875855327
1.520039100684262
1.478983382209189
1.4349951124144673
1.3890518084066472
1.3440860215053765
1.300097751710655
1.2580645161290325
1.217008797653959
1.1788856304985338
1.144672531769306
1.1133919843597262
1.0850439882697946
1.0654936461388074
1.050830889540567
1.0342130987292275
1.0205278592375366
1.0097751710654936
1.0039100684261977
1.002932551319648
1.007820136852395
1.0175953079178883
1.032258064516129
1.0498533724340176
1.0703812316715542
1.0928641251221896
1.1143695014662756
1.1358748778103618
1.1573802541544478
1.176930596285435
1.1945259042033236
1.209188660801564
1.2218963831867058
1.2326490713587488
1.2424242424242424
1.2502443792766371
1.2580645161290325
1.2649071358748778
1.2717497556207231
1.2766373411534702
1.2766373411534702
1.270772238514174
1.262952101661779
1.2570869990224829
1.2619745845552297
1.2903225806451613
1.3528836754643203
1.4545454545454546
1.5923753665689149
1.7546432062561097
1.9257086999022484
2.070381231671554
2.187683284457478
2.2932551319648096
2.375366568914956
2.429130009775171
2.4574780058651027
2.4652981427174976
2.4574780058651027
2.4379276637341154
2.409579667644184
2.3734115347018574
2.332355816226784
2.290322580645161
2.2482893450635384
2.201368523949169
2.150537634408602
2.0977517106549364
2.0439882697947214
1.989247311827957
1.935483870967742
1.881720430107527
1.828934506353861
1.7771260997067448
1.726295210166178
1.6774193548387095
1.635386119257087
1.598240469208211
1.5571847507331378
1.5151515151515151
1.4731182795698925
1.4320625610948192
1.3919843597262953
1.35386119257087
1.3176930596285434
1.2834799608993157
1.2512218963831867
1.2218963831867058
1.1994134897360704
1.1808406647116323
1.1593352883675463
1.13880742913001
1.1192570869990224
1.1026392961876832
1.0879765395894427
1.0772238514173995
1.0703812316715542
1.0684261974584557
1.0703812316715542
1.0762463343108504
1.086021505376344
1.0987292277614855
1.115347018572825
1.1329423264907137
1.1515151515151516
1.1710654936461389
1.1896383186705768
1.206256109481916
1.2218963831867058
1.2355816226783969
1.2473118279569892
1.2570869990224829
1.2668621700879763
1.2756598240469208
1.2854349951124144
1.2932551319648091
1.300097751710655
1.3049853372434017
1.3049853372434017
1.3010752688172045
1.2942326490713587
1.29227761485826
1.3040078201368523
1.3401759530791788
1.409579667644184
1.4946236559139785
1.6001955034213098
1.7409579667644184
1.8973607038123168
2.053763440860215
2.193548387096774
2.303030303030303
2.3812316715542523
2.429130009775171
2.452590420332356
2.4574780058651027
2.4486803519061584
2.429130009775171
2.404692082111437
2.375366568914956
2.340175953079179
2.300097751710655
2.2551319648093844
2.2082111436950145
2.1593352883675463
2.1094819159335287
2.058651026392962
2.007820136852395
1.9579667644183771
1.9090909090909087
1.866080156402737
1.827956989247312
1.7869012707722385
1.7448680351906158
1.7038123167155426
1.6627565982404693
1.6236559139784943
1.585532746823069
1.5483870967741935
1.5131964809384164
1.478983382209189
1.4457478005865103
1.414467253176931
1.3890518084066472
1.3665689149560116
1.3421309872922775
1.3176930596285434
1.2932551319648091
1.270772238514174
1.2502443792766371
1.2316715542521994
1.2160312805474096
1.203323558162268
1.1935483870967742
1.187683284457478
1.1867057673509287
1.1906158357771262
1.1964809384164223
1.2043010752688172
1.2150537634408602
1.2287390029325511
1.2443792766373412
1.260019550342131
1.2766373411534702
1.29227761485826
1.3069403714565004
1.3196480938416422
1.3304007820136852
1.3411534701857282
1.3499511241446724
1.356793743890518
1.3616813294232648
1.3665689149560116
1.370478983382209
1.3734115347018572
1.3743890518084063
1.3724340175953078
1.3665689149560116
1.3587487781036167
1.3548387096774193
1.359726295210166
1.3812316715542523
1.4301075268817205
1.512218963831867
1.6275659824046922
1.7673509286412512
1.9188660801564028
2.065493646138808
2.1945259042033234
2.2961876832844577
2.367546432062561
2.410557184750733
2.43108504398827
2.434017595307918
2.4242424242424243
2.406647116324536
2.3812316715542523
2.3499511241446727
2.313782991202346
2.2737047898338223
2.23069403714565
2.185728250244379
2.1388074291300097
2.090909090909091
2.0439882697947214
2.0019550342130987
1.9618768328445748
1.9188660801564028
1.8748778103616808
1.83088954056696
1.7878787878787878
1.7468230694037146
1.7067448680351909
1.667644183773216
1.6304985337243405
1.5943304007820136
1.5581622678396871
1.5239491691104594
1.4965786901270772
1.4721407624633431
1.4457478005865103
1.418377321603128
1.391006842619746
1.3655913978494625
1.3411534701857282
1.3186705767350928
1.2971652003910068
1.278592375366569
1.2609970674486803
1.24633431085044
1.2365591397849462
1.23069403714565
1.2258064516129032
1.2238514173998043
1.2238514173998043
1.227761485826002
1.2355816226783969
1.2453567937438903
1.2570869990224829
1.270772238514174
1.284457478005865
1.2991202346041055
1.3128054740957966
1.3255131964809383
1.33822091886608
1.348973607038123
1.3577712609970674
1.3655913978494625
1.3714565004887584
1.3773216031280548
1.3822091886608017
1.3870967741935485
1.3900293255131966
1.3900293255131966
1.3870967741935485
1.383186705767351
1.3782991202346042
1.3714565004887584
1.370478983382209
1.3841642228739004
