ppg
1.3450635386119256
1.33822091886608
1.3304007820136852
1.3225806451612905
1.313782991202346
1.303030303030303
1.2942326490713587
1.2873900293255132
1.2756598240469208
1.2619745845552297
1.249266862170088
1.2365591397849462
1.224828934506354
1.2130987292277615
1.2023460410557183
1.1925708699902249
1.18475073313783
1.181818181818182
1.1886608015640274
1.2101661779081134
1.2551319648093842
1.3343108504398826
1.4516129032258065
1.606060606060606
1.7927663734115349
2.0
2.2140762463343107
2.421309872922776
2.608993157380254
2.7702834799608995
2.898338220918866
2.98435972629521
3.037145650048876
3.0733137829912023
3.090909090909091
3.0879765395894427
3.0684261974584555
3.035190615835777
2.9902248289345064
2.9374389051808407
2.877810361681329
2.8132942326490715
2.745845552297165
2.6823069403714563
2.619745845552297
2.552297165200391
2.4809384164222874
2.407624633431085
2.332355816226784
2.254154447702835
2.1739980449657867
2.093841642228739
2.013685239491691
1.9364613880742916
1.8631476050830889
1.7976539589442817
1.7458455522971652
1.704789833822092
1.6666666666666667
1.635386119257087
1.6129032258064515
1.598240469208211
1.590420332355816
1.587487781036168
1.5894428152492668
1.595307917888563
1.6041055718475072
1.6138807429130009
1.6236559139784943
1.6314760508308896
1.6383186705767352
1.643206256109482
1.64613880742913
1.64613880742913
1.6441837732160314
1.6412512218963833
1.6373411534701858
1.6344086021505375
1.6314760508308896
1.6285434995112416
1.6265884652981428
1.624633431085044
1.6207233626588464
1.6138807429130009
1.603128054740958
1.5894428152492668
1.5728250244379276
1.5513196480938416
1.5268817204301075
1.499511241446725
1.4721407624633431
1.4486803519061584
1.435972629521017
1.4389051808406648
1.4633431085043989
1.5190615835777126
1.611925708699902
1.7419354838709675
1.903225806451613
2.086021505376344
2.27761485826002
2.4652981427174976
2.638318670576735
2.789833822091887
2.9159335288367547
3.002932551319648
3.059628543499511
3.102639296187683
3.1270772238514173
3.1309872922776147
3.114369501466276
3.078201368523949
3.026392961876833
2.961876832844575
2.887585532746823
2.807429130009776
2.724340175953079
2.638318670576735
2.5610948191593352
2.4887585532746823
2.410557184750733
2.3313782991202348
2.2502443792766376
2.16911045943304
2.0879765395894427
2.007820136852395
1.9305962854349952
1.857282502443793
1.790811339198436
1.7311827956989247
1.686217008797654
1.651026392961877
1.619745845552297
1.5923753665689149
1.5708699902248289
1.5513196480938416
1.5347018572825024
1.5190615835777126
1.5024437927663734
1.4868035190615836
1.4711632453567938
1.456500488758553
1.4437927663734116
1.4349951124144673
1.4291300097751711
1.4213098729227762
1.412512218963832
1.4027370478983383
1.3919843597262953
1.380254154447703
1.3665689149560116
1.3519061583577712
1.3362658846529814
1.3206256109481915
1.3040078201368523
1.2913000977517106
1.2805474095796676
1.2658846529814272
1.249266862170088
1.2297165200391007
1.2101661779081134
1.1896383186705768
1.1681329423264908
1.1466275659824048
1.126099706744868
1.1094819159335287
1.1026392961876832
1.1124144672531768
1.13880742913001
1.1906158357771262
1.2795698924731185
1.409579667644184
1.5777126099706744
1.775171065493646
1.9902248289345064
2.2082111436950145
2.3812316715542523
2.5141739980449658
2.644183773216031
2.7565982404692084
2.834799608993157
2.884652981427175
2.921798631476051
2.940371456500489
2.940371456500489
2.9237536656891496
2.8914956011730206
2.8455522971652005
2.787878787878788
2.7223851417399803
2.650048875855328
2.573802541544477
2.495601173020528
2.423264907135875
2.3548387096774195
2.2795698924731185
2.20039100684262
2.118279569892473
2.0332355816226784
1.946236559139785
1.857282502443793
1.7702834799608993
1.686217008797654
1.6080156402737047
1.5366568914956011
1.4809384164222874
1.436950146627566
1.396871945259042
1.3626588465298142
1.3362658846529814
1.3157380254154447
1.3010752688172045
1.2903225806451613
1.2834799608993157
1.2776148582600195
1.2717497556207231
1.2668621700879763
1.262952101661779
1.2609970674486803
1.260019550342131
1.2551319648093842
1.249266862170088
1.241446725317693
1.2316715542521994
1.219941348973607
1.2072336265884651
1.1935483870967742
1.1798631476050832
1.166177908113392
1.152492668621701
1.142717497556207
1.1348973607038124
1.1241446725317692
1.1114369501466277
1.0987292277614855
1.0850439882697946
1.0703812316715542
1.053763440860215
1.0361681329423265
1.0175953079178883
1.002932551319648
1.0
1.0166177908113392
1.0527859237536656
1.1143695014662756
1.217008797653959
1.3607038123167154
1.5395894428152492
1.7429130009775171
1.9589442815249267
2.172043010752688
2.36950146627566
2.5434995112414467
2.689149560117302
2.803519061583578
2.878787878787879
2.924731182795699
2.9550342130987293
2.967741935483871
2.962854349951124
2.9393939393939394
2.900293255131965
2.8484848484848486
2.78494623655914
2.7145650048875853
2.638318670576735
2.557184750733138
2.474095796676442
2.398826979472141
2.326490713587488
2.24633431085044
2.161290322580645
2.072336265884653
1.9804496578690127
1.8875855327468232
1.7947214076246334
1.7038123167155426
1.616813294232649
1.5356793743890518
1.4643206256109482
1.409579667644184
1.3665689149560116
1.3264907135874875
1.2932551319648091
1.2668621700879763
1.24633431085044
1.2326490713587488
1.2228739002932552
1.217008797653959
1.2130987292277615
1.2101661779081134
1.2082111436950147
1.206256109481916
1.2072336265884651
1.209188660801564
1.2082111436950147
1.2043010752688172
1.1994134897360704
1.1945259042033236
1.1886608015640274
1.1827956989247312
1.1779081133919844
1.173998044965787
1.1691104594330402
1.164222873900293
1.1622678396871946
1.160312805474096
1.155425219941349
1.147605083088954
1.1378299120234605
1.1270772238514175
1.115347018572825
1.1026392961876832
1.0869990224828934
1.0713587487781036
1.0606060606060606
1.06158357771261
1.0772238514173995
1.1143695014662756
1.187683284457478
1.3010752688172045
1.4535679374389052
1.6392961876832846
1.8484848484848484
2.065493646138808
2.275659824046921
2.4672531769305963
2.633431085043988
2.76930596285435
2.8729227761485827
2.93841642228739
2.975562072336266
2.99902248289345
3.005865102639296
2.995112414467253
2.967741935483871
2.9266862170087977
2.8729227761485827
2.809384164222874
2.7390029325513194
2.6637341153470184
2.5855327468230693
2.512218963831867
2.4408602150537635
2.3626588465298144
2.2795698924731185
2.193548387096774
2.104594330400782
2.0127077223851417
1.920821114369501
1.8299120234604105
1.7429130009775171
1.66177908113392
1.5894428152492668
1.5268817204301075
1.479960899315738
1.4467253176930597
1.418377321603128
1.3978494623655917
1.3841642228739004
1.3782991202346042
1.3782991202346042
1.383186705767351
1.391006842619746
1.3998044965786902
1.4086021505376345
1.4173998044965788
1.4252199413489737
1.4320625610948192
1.4379276637341154
1.4428152492668622
1.4457478005865103
1.447702834799609
1.4486803519061584
1.447702834799609
1.4457478005865103
1.4418377321603129
1.435972629521017
1.4271749755620724
1.4173998044965788
1.409579667644184
1.4027370478983383
1.392961876832845
1.380254154447703
1.3655913978494625
1.348973607038123
1.3294232649071358
1.3069403714565004
1.2825024437927663
1.260019550342131
1.2482893450635386
1.2570869990224829
1.2854349951124144
1.3411534701857282
1.4379276637341154
1.573802541544477
1.7429130009775171
1.935483870967742
2.1388074291300097
2.3382209188660803
2.5219941348973607
2.6823069403714563
2.814271749755621
2.9159335288367547
2.989247311827957
3.03128054740958
3.047898338220919
3.050830889540567
3.037145650048876
3.007820136852395
2.963831867057673
2.9071358748778104
2.838709677419355
2.7614858260019552
2.678396871945259
2.589442815249267
2.4975562072336266
2.4144672531769307
2.334310850439883
2.247311827956989
2.156402737047898
2.064516129032258
1.9726295210166176
1.8826979472140764
1.7956989247311828
1.7135874877810362
1.6383186705767352
1.5708699902248289
1.512218963831867
1.4643206256109482
1.4301075268817205
1.404692082111437
1.380254154447703
1.359726295210166
1.3440860215053765
1.3304007820136852
1.3186705767350928
1.3069403714565004
1.295210166177908
1.2834799608993157
1.2717497556207231
1.2580645161290325
1.2482893450635386
1.2394916911045943
1.2287390029325511
1.217008797653959
1.2043010752688172
1.1915933528836755
1.1788856304985338
1.1652003910068427
1.1515151515151516
1.1368523949169111
1.1221896383186705
1.1085043988269794
1.0948191593352885
1.086021505376344
1.0791788856304985
1.0694037145650048
1.0586510263929618
1.0469208211143697
1.0342130987292275
1.0195503421309873
1.0039100684261977
0.9902248289345064
0.9853372434017597
0.997067448680352
1.0332355816226784
1.0869990224828934
1.1681329423264908
1.2932551319648091
1.458455522971652
1.6529814271749756
1.865102639296188
2.0821114369501466
2.2883675464320627
2.4731182795698925
2.63049853372434
2.7565982404692084
2.850439882697948
2.913978494623656
2.9472140762463344
2.956989247311828
2.9530791788856305
2.936461388074292
2.905180840664712
2.8611925708699903
2.806451612903226
2.742913000977517
2.6715542521994133
2.593352883675464
2.5102639296187683
2.4252199413489737
2.347018572825025
2.272727272727273
2.190615835777126
2.103616813294233
2.0127077223851417
1.9188660801564028
1.823069403714565
1.7282502443792769
1.635386119257087
1.5483870967741935
1.469208211143695
1.401759530791789
1.346041055718475
1.3069403714565004
1.2805474095796676
1.2590420332355816
1.2424242424242424
1.2316715542521994
1.2238514173998043
1.2189638318670577
1.2140762463343109
1.209188660801564
1.203323558162268
1.1974584555229717
1.1915933528836755
1.1886608015640274
1.1867057673509287
1.181818181818182
1.1749755620723363
1.1681329423264908
1.160312805474096
1.1505376344086022
1.1397849462365592
1.1270772238514175
1.1124144672531768
1.096774193548387
1.0801564027370478
1.067448680351906
1.0576735092864125
1.0449657869012707
1.032258064516129
1.0205278592375366
1.0087976539589445
0.9980449657869012
0.9872922776148584
0.978494623655914
0.9745845552297164
0.9833822091886608
1.0127077223851415
1.0733137829912025
1.152492668621701
1.2580645161290325
1.409579667644184
1.5972629521016617
1.8064516129032255
2.022482893450636
2.23069403714565
2.419354838709677
2.5806451612903225
2.7096774193548385
2.807429130009776
2.875855327468231
2.913000977517106
2.927663734115347
2.929618768328446
2.916911045943304
2.8914956011730206
2.8533724340175954
2.803519061583578
2.742913000977517
2.6725317693059627
2.5962854349951123
2.5161290322580645
2.432062561094819
2.3440860215053765
2.2629521016617797
2.1847507331378297
2.096774193548387
2.002932551319648
1.905180840664712
1.8064516129032255
1.7086999022482894
1.6148582600195502
1.5268817204301075
1.4486803519061584
1.380254154447703
1.3235581622678396
1.2834799608993157
1.2551319648093842
1.23069403714565
1.2121212121212122
1.198435972629521
1.187683284457478
1.1798631476050832
1.1730205278592376
1.1681329423264908
1.164222873900293
1.160312805474096
1.155425219941349
1.1495601173020529
1.1466275659824048
1.144672531769306
1.1397849462365592
1.133919843597263
1.1270772238514175
1.1202346041055715
1.1133919843597262
1.10752688172043
1.1016617790811338
1.0957966764418376
1.088954056695992
1.0811339198435972
1.0762463343108504
1.072336265884653
1.0654936461388074
1.0586510263929618
1.050830889540567
1.043010752688172
1.032258064516129
1.0195503421309873
1.0087976539589445
1.007820136852395
1.024437927663734
1.0684261974584557
1.147605083088954
1.2453567937438903
1.367546432062561
1.5356793743890518
1.7341153470185728
1.948191593352884
2.163245356793744
2.364613880742913
2.5425219941348973
2.6911045943304006
2.8084066471163247
2.8944281524926687
2.951124144672532
2.9775171065493646
2.9824046920821115
2.973607038123167
2.951124144672532
2.9159335288367547
2.870967741935484
2.817204301075269
2.7565982404692084
2.6911045943304006
2.619745845552297
2.544477028347996
2.4652981427174976
2.3812316715542523
2.304007820136853
2.228739002932551
2.1436950146627565
2.053763440860215
1.9608993157380252
1.8670576735092863
1.775171065493646
1.6881720430107527
1.607038123167155
1.5347018572825024
1.4731182795698925
1.4213098729227762
1.3851417399804498
1.359726295210166
1.3401759530791788
1.3284457478005864
1.3235581622678396
1.324535679374389
1.3304007820136852
1.3401759530791788
1.3528836754643203
1.3665689149560116
1.380254154447703
1.393939393939394
1.4056695992179864
1.4164222873900294
1.426197458455523
1.4349951124144673
1.4418377321603129
1.4467253176930597
1.4467253176930597
1.4418377321603129
1.4330400782013686
1.4193548387096775
1.4027370478983383
1.3822091886608017
1.359726295210166
1.3411534701857282
1.324535679374389
1.3040078201368523
1.2825024437927663
1.2609970674486803
1.238514173998045
1.2189638318670577
1.2043010752688172
1.2023460410557183
1.23069403714565
1.29227761485826
1.3851417399804498
1.512218963831867
1.6451612903225807
1.7888563049853372
1.9667644183773216
2.158357771260997
2.347018572825025
2.520039100684262
2.668621700879765
2.788856304985337
2.878787878787879
2.9393939393939394
2.972629521016618
2.983382209188661
2.9745845552297165
2.952101661779081
2.918866080156403
2.875855327468231
2.825024437927664
2.7673509286412514
2.704789833822092
2.6373411534701856
2.5650048875855327
2.4887585532746823
2.4086021505376345
2.3255131964809386
2.2385141739980448
2.158357771260997
2.081133919843597
1.9931573802541545
1.900293255131965
1.8074291300097751
1.7174975562072337
1.6334310850439884
1.5581622678396871
1.4936461388074291
1.4408602150537635
1.3998044965786902
1.3695014662756595
1.3499511241446724
1.33822091886608
1.3294232649071358
1.3225806451612905
1.3176930596285434
1.313782991202346
1.3098729227761483
1.305962854349951
1.300097751710655
1.29227761485826
1.2805474095796676
1.2649071358748778
1.24633431085044
1.23069403714565
1.217008797653959
1.1994134897360704
1.1788856304985338
1.1593352883675463
1.141739980449658
1.1251221896383188
1.1094819159335287
1.0957966764418376
1.083088954056696
1.072336265884653
1.0635386119257086
1.0596285434995112
1.0576735092864125
1.053763440860215
1.0478983382209188
1.0391006842619743
1.0312805474095796
1.0273704789833822
1.0332355816226784
1.0557184750733135
1.104594330400782
1.187683284457478
1.3079178885630498
1.4389051808406648
1.58455522971652
1.7673509286412512
1.9667644183773216
2.16911045943304
2.360703812316716
2.5317693059628543
2.67644183773216
2.791788856304985
2.878787878787879
2.93841642228739
2.9716520039100685
2.981427174975562
2.9716520039100685
2.946236559139785
2.909090909090909
2.860215053763441
2.801564027370479
2.736070381231672
2.662756598240469
2.58455522971652
2.5024437927663734
2.4173998044965788
2.329423264907136
2.239491691104594
2.158357771260997
2.080156402737048
1.994134897360704
1.903225806451613
1.8113391984359728
1.721407624633431
1.6363636363636365
1.5571847507331378
1.4868035190615836
1.4252199413489737
1.3724340175953078
1.3294232649071358
1.2942326490713587
1.270772238514174
1.2551319648093842
1.2404692082111437
1.227761485826002
1.2179863147605083
1.2101661779081134
1.2052785923753666
1.2013685239491692
1.1994134897360704
1.1964809384164223
1.1935483870967742
1.1886608015640274
1.1857282502443791
1.1837732160312806
1.1788856304985338
1.1710654936461389
1.1612903225806452
1.1515151515151516
1.141739980449658
1.1319648093841643
1.1202346041055715
1.10752688172043
1.0948191593352885
1.0821114369501466
1.0703812316715542
1.0635386119257086
1.0586510263929618
1.0498533724340176
1.0391006842619743
1.0283479960899315
1.0205278592375366
1.021505376344086
1.0381231671554252
1.0801564027370478
1.1544477028347997
1.2668621700879763
1.41544477028348
1.5669599217986314
1.7253176930596286
1.9149560117302051
2.112414467253177
2.302052785923754
2.4731182795698925
2.618768328445748
2.735092864125122
2.822091886608016
2.881720430107527
2.9159335288367547
2.9286412512218964
2.920821114369501
2.897360703812317
2.86217008797654
2.814271749755621
2.755620723362659
2.689149560117302
2.616813294232649
2.539589442815249
2.458455522971652
2.375366568914956
2.290322580645161
2.201368523949169
2.110459433040078
2.029325513196481
1.9521016617790807
1.8641251221896384
1.772238514173998
1.6803519061583578
1.5923753665689149
1.5102639296187683
1.436950146627566
1.375366568914956
1.3255131964809383
1.2854349951124144
1.2531769305962854
1.224828934506354
1.2052785923753666
1.1886608015640274
1.1681329423264908
1.1466275659824048
1.1280547409579669
1.1133919843597262
1.1055718475073313
1.1026392961876832
1.1036168132942326
1.1065493646138806
1.1094819159335287
1.1094819159335287
1.110459433040078
1.110459433040078
1.1055718475073313
1.0987292277614855
1.0899315738025417
1.0791788856304985
1.0684261974584557
1.0576735092864125
1.0469208211143697
1.0381231671554252
1.0303030303030305
1.0234604105571847
1.018572825024438
1.0166177908113392
1.0166177908113392
1.013685239491691
1.007820136852395
1.0019550342130987
1.0
1.0087976539589445
1.0381231671554252
1.096774193548387
1.1925708699902249
1.3264907135874875
1.495601173020528
1.66177908113392
1.828934506353861
2.0205278592375366
2.2140762463343107
2.393939393939394
2.5513196480938416
2.6803519061583576
2.779081133919844
2.8484848484848486
2.8914956011730206
2.9100684261974585
2.90811339198436
2.8885630498533725
2.857282502443793
2.8152492668621703
2.763440860215054
2.702834799608993
2.638318670576735
2.56891495601173
2.496578690127077
2.4222873900293256
2.347018572825025
2.270772238514174
2.1925708699902247
2.112414467253177
2.0391006842619745
1.9687194525904204
1.889540566959922
1.8064516129032255
1.7233626588465298
1.6441837732160314
1.5708699902248289
1.5063538611925709
1.4506353861192571
1.404692082111437
1.3695014662756595
1.343108504398827
1.324535679374389
1.313782991202346
1.3079178885630498
1.303030303030303
1.2981427174975562
1.29227761485826
1.2854349951124144
1.278592375366569
1.2717497556207231
1.2649071358748778
1.2580645161290325
1.252199413489736
1.24633431085044
1.2434017595307918
1.2434017595307918
1.2424242424242424
1.2404692082111437
1.238514173998045
1.2346041055718475
1.23069403714565
1.2267839687194526
1.2228739002932552
1.2179863147605083
1.2130987292277615
1.2082111436950147
1.2023460410557183
1.1994134897360704
1.1964809384164223
1.1896383186705768
1.1808406647116323
1.176930596285435
1.1857282502443791
1.217008797653959
1.2795698924731185
1.3782991202346042
1.5131964809384164
1.6803519061583578
1.869012707722385
2.040078201368524
2.198435972629521
2.367546432062561
2.527859237536657
2.668621700879765
2.7839687194525906
2.870967741935484
2.929618768328446
2.962854349951124
2.973607038123167
2.961876832844575
2.932551319648094
2.89247311827957
2.843597262952102
2.782991202346041
2.713587487781036
2.638318670576735
2.5591397849462365
2.4789833822091887
2.396871945259042
2.314760508308896
2.23069403714565
2.145650048875855
2.059628543499511
1.9726295210166176
1.895405669599218
1.823069403714565
1.7458455522971652
1.6695992179863148
1.5972629521016617
1.5317693059628543
1.4760508308895406
1.4301075268817205
1.392961876832845
1.364613880742913
1.3421309872922775
1.324535679374389
1.313782991202346
1.305962854349951
1.2961876832844574
1.2854349951124144
1.2746823069403714
1.2649071358748778
1.2561094819159335
1.2482893450635386
1.241446725317693
1.2355816226783969
1.2287390029325511
1.2218963831867058
1.2140762463343109
1.209188660801564
1.206256109481916
1.2013685239491692
1.195503421309873
1.1886608015640274
1.1808406647116323
1.1720430107526882
1.1622678396871946
1.1515151515151516
1.1397849462365592
1.1270772238514175
1.1133919843597262
1.1026392961876832
1.093841642228739
1.083088954056696
1.0733137829912025
1.0694037145650048
1.0801564027370478
1.1124144672531768
1.1749755620723363
1.2746823069403714
1.4105571847507332
1.5796676441837731
1.7712609970674489
1.9745845552297163
2.1524926686217007
2.3088954056695994
2.4711632453567938
2.619745845552297
2.7468230694037143
2.8475073313782997
2.920821114369501
2.967741935483871
2.989247311827957
2.988269794721408
2.967741935483871
2.929618768328446
2.8826979472140764
2.8269794721407626
2.7614858260019552
2.6881720430107525
2.610948191593353
2.530791788856305
2.4486803519061584
2.367546432062561
2.2844574780058653
2.20039100684262
2.115347018572825
2.027370478983382
1.93841642228739
1.8592375366568916
1.7859237536656891
1.7067448680351909
1.6285434995112416
1.555229716520039
1.4897360703812317
1.4330400782013686
1.3861192570869991
1.348973607038123
1.3206256109481915
1.300097751710655
1.2854349951124144
1.2766373411534702
1.2717497556207231
1.267839687194526
1.2639296187683284
1.2619745845552297
1.2609970674486803
1.2609970674486803
1.2619745845552297
1.2619745845552297
1.260019550342131
1.2551319648093842
1.2473118279569892
1.2365591397849462
1.227761485826002
1.2179863147605083
1.2043010752688172
1.1886608015640274
1.1730205278592376
1.1583577712609971
1.144672531769306
1.1319648093841643
1.1202346041055715
1.1094819159335287
1.0987292277614855
1.0869990224828934
1.0801564027370478
1.0733137829912025
1.0635386119257086
1.0557184750733135
1.0576735092864125
1.078201368523949
1.1270772238514175
1.2121212121212122
1.3362658846529814
1.4965786901270772
1.6852394916911049
1.8914956011730208
2.102639296187683
2.280547409579668
2.4301075268817205
2.578690127077224
2.7096774193548385
2.81622678396872
2.895405669599218
2.948191593352884
2.975562072336266
2.9804496578690127
2.9657869012707723
2.932551319648094
2.884652981427175
2.83088954056696
2.7702834799608995
2.6989247311827955
2.621700879765396
2.5405669599217986
2.4574780058651027
2.3714565004887587
2.2854349951124147
2.196480938416422
2.1055718475073317
2.0127077223851417
1.9178885630498532
1.822091886608016
1.7390029325513197
1.664711632453568
1.587487781036168
1.5131964809384164
1.4457478005865103
1.3870967741935485
1.3391984359726294
1.3010752688172045
1.2717497556207231
1.2502443792766371
1.2346041055718475
1.2228739002932552
1.217008797653959
1.2150537634408602
1.2130987292277615
1.2111436950146628
1.2101661779081134
1.209188660801564
1.2082111436950147
1.2072336265884651
1.206256109481916
1.2043010752688172
1.2023460410557183
1.2013685239491692
1.2003910068426198
1.2013685239491692
1.2023460410557183
1.1994134897360704
1.1945259042033236
1.1886608015640274
1.1808406647116323
1.1710654936461389
1.1612903225806452
1.152492668621701
1.1319648093841643
1.1055718475073313
1.086021505376344
1.072336265884653
1.0606060606060606
1.0469208211143697
1.0381231671554252
1.0410557184750733
1.0654936461388074
1.121212121212121
1.2150537634408602
1.3499511241446724
1.521994134897361
1.7223851417399805
1.9374389051808407
2.126099706744868
2.29227761485826
2.463343108504399
2.618768328445748
2.748778103616813
2.849462365591398
2.919843597262952
2.961876832844575
2.979472140762464
2.9765395894428157
2.956011730205278
2.921798631476051
2.87683284457478
2.8269794721407626
2.7751710654936463
2.717497556207233
2.6559139784946235
2.590420332355816
2.52297165200391
2.452590420332356
2.380254154447703
2.304985337243402
2.225806451612903
2.142717497556207
2.056695992179863
1.978494623655914
1.906158357771261
1.8269794721407624
1.7487781036168133
1.675464320625611
1.6080156402737047
1.5503421309872922
1.5024437927663734
1.4643206256109482
1.434017595307918
