ppg
0.863147605083089
0.8807429130009775
0.9051808406647116
0.9393939393939394
0.9843597262952102
1.043010752688172
1.1163245356793745
1.2052785923753666
1.3079178885630498
1.423264907135875
1.547409579667644
1.6598240469208212
1.7653958944281525
1.8836754643206255
2.004887585532747
2.126099706744868
2.242424242424242
2.3519061583577714
2.4545454545454546
2.549364613880743
2.636363636363636
2.7155425219941347
2.7859237536656893
2.8475073313782997
2.8905180840664717
2.920821114369501
2.9501466275659824
2.973607038123167
2.989247311827957
2.9960899315738025
2.9931573802541545
2.9804496578690127
2.959921798631476
2.930596285434995
2.8944281524926687
2.850439882697948
2.803519061583578
2.7546432062561097
2.702834799608993
2.6480938416422286
2.5943304007820136
2.541544477028348
2.490713587487781
2.441837732160313
2.3958944281524928
2.35386119257087
2.313782991202346
2.274682306940372
2.2375366568914954
2.204301075268817
2.1710654936461387
2.136852394916911
2.101661779081134
2.0664711632453567
2.0303030303030303
1.992179863147605
1.9530791788856303
1.9120234604105573
1.8699902248289344
1.827956989247312
1.7869012707722385
1.750733137829912
1.718475073313783
1.683284457478006
1.6471163245356797
1.6099706744868034
1.5728250244379276
1.5356793743890518
1.500488758553275
1.4672531769305963
1.435972629521017
1.404692082111437
1.3734115347018572
1.348973607038123
1.3284457478005864
1.3049853372434017
1.2805474095796676
1.2561094819159335
1.2326490713587488
1.2101661779081134
1.1896383186705768
1.1710654936461389
1.1544477028347997
1.1397849462365592
1.1270772238514175
1.1163245356793745
1.1114369501466277
1.1094819159335287
1.1055718475073313
1.1006842619745845
1.096774193548387
1.093841642228739
1.0928641251221896
1.0928641251221896
1.0948191593352885
1.099706744868035
1.1094819159335287
1.1251221896383188
1.1456500488758554
1.173998044965787
1.2150537634408602
1.2697947214076246
1.3372434017595307
1.418377321603128
1.5102639296187683
1.6109481915933528
1.718475073313783
1.828934506353861
1.9393939393939397
2.046920821114369
2.1495601173020527
2.231671554252199
2.3010752688172045
2.372434017595308
2.441837732160313
2.504398826979472
2.5591397849462365
2.6050830889540566
2.6422287390029324
2.6695992179863146
2.687194525904203
2.6940371456500487
2.6911045943304006
2.677419354838709
2.6578690127077222
2.632453567937439
2.601173020527859
2.565982404692082
2.527859237536657
2.4858260019550342
2.441837732160313
2.3978494623655915
2.3528836754643208
2.3098729227761488
2.270772238514174
2.233626588465298
2.20039100684262
2.16911045943304
2.1388074291300097
2.110459433040078
2.083088954056696
2.0557184750733137
2.0283479960899315
2.0009775171065494
1.9726295210166176
1.943304007820137
1.9130009775171064
1.8807429130009776
1.8523949169110456
1.825024437927664
1.7927663734115349
1.7575757575757576
1.721407624633431
1.6842619745845553
1.6471163245356797
1.6109481915933528
1.5757575757575757
1.5395894428152492
1.5034213098729228
1.4672531769305963
1.4320625610948192
1.4037145650048877
1.3792766373411536
1.3499511241446724
1.3196480938416422
1.289345063538612
1.260019550342131
1.23069403714565
1.2023460410557183
1.1749755620723363
1.1485826001955035
1.1231671554252198
1.0977517106549364
1.0801564027370478
1.0664711632453567
1.0498533724340176
1.032258064516129
1.0146627565982405
1.0
0.9872922776148584
0.9765395894428152
0.967741935483871
0.9608993157380256
0.9550342130987292
0.9481915933528836
0.9413489736070382
0.9393939393939394
0.9393939393939394
0.9824046920821116
1.0498533724340176
1.088954056695992
1.118279569892473
1.147605083088954
1.181818181818182
1.2258064516129032
1.281524926686217
1.3479960899315735
1.4271749755620724
1.504398826979472
1.5835777126099706
1.675464320625611
1.775171065493646
1.8778103616813293
1.9804496578690127
2.080156402737048
2.175953079178885
2.264907135874878
2.347018572825025
2.4222873900293256
2.490713587487781
2.5513196480938416
2.5943304007820136
2.625610948191593
2.653958944281525
2.67644183773216
2.689149560117302
2.6930596285435
2.6901270772238512
2.678396871945259
2.658846529814272
2.633431085043988
2.6021505376344085
2.5669599217986314
2.530791788856305
2.4946236559139785
2.455522971652004
2.41544477028348
2.376344086021505
2.3382209188660803
2.302052785923754
2.267839687194526
2.2375366568914954
2.209188660801564
2.182795698924731
2.158357771260997
2.133919843597263
2.112414467253177
2.090909090909091
2.0664711632453567
2.0410557184750733
2.013685239491691
1.9843597262952104
1.95405669599218
1.9227761485826005
1.8914956011730208
1.858260019550342
1.8240469208211143
1.7898338220918866
1.7605083088954057
1.7341153470185728
1.7038123167155426
1.6715542521994136
1.6383186705767352
1.6050830889540566
1.5728250244379276
1.5405669599217986
1.5083088954056696
1.478005865102639
1.4496578690127078
1.426197458455523
1.4086021505376345
1.3998044965786902
1.3998044965786902
1.4066471163245358
1.423264907135875
1.4516129032258065
1.4916911045943304
1.543499511241447
1.6050830889540566
1.6735092864125125
1.747800586510264
1.825024437927664
1.902248289345064
1.9667644183773216
2.022482893450636
2.0791788856304985
2.132942326490713
2.179863147605083
2.218963831867057
2.249266862170088
2.271749755620724
2.2873900293255134
2.2952101661779083
2.2961876832844577
2.289345063538612
2.27761485826002
2.260997067448681
2.2385141739980448
2.2111436950146626
2.179863147605083
2.147605083088954
2.113391984359726
2.080156402737048
2.048875855327468
2.0205278592375366
1.9951124144672527
1.9736070381231672
1.95405669599218
1.93841642228739
1.9237536656891496
1.90811339198436
1.89247311827957
1.8758553274682308
1.858260019550342
1.8377321603128052
1.8172043010752688
1.7956989247311828
1.772238514173998
1.7468230694037146
1.7204301075268815
1.696969696969697
1.6735092864125125
1.6471163245356797
1.619745845552297
1.5913978494623655
1.563049853372434
1.533724340175953
1.504398826979472
1.4750733137829912
1.444770283479961
1.41544477028348
1.3870967741935485
1.3587487781036167
1.3372434017595307
1.3196480938416422
1.2991202346041055
1.2776148582600195
1.2551319648093842
1.2346041055718475
1.2150537634408602
1.198435972629521
1.1837732160312806
1.1720430107526882
1.163245356793744
1.1583577712609971
1.1583577712609971
1.1593352883675463
1.160312805474096
1.1622678396871946
1.164222873900293
1.1671554252199414
1.1710654936461389
1.176930596285435
1.1837732160312806
1.1935483870967742
1.206256109481916
1.2209188660801564
1.2365591397849462
1.2541544477028348
1.273704789833822
1.2961876832844574
1.3235581622678396
1.3577712609970674
1.3998044965786902
1.452590420332356
1.517106549364614
1.5923753665689149
1.678396871945259
1.772238514173998
1.8729227761485825
1.963831867057673
2.0498533724340176
2.145650048875855
2.244379276637341
2.3411534701857284
2.4330400782013686
2.5190615835777126
2.598240469208211
2.668621700879765
2.730205278592375
2.782991202346041
2.8289345063538613
2.8670576735092865
2.89247311827957
2.909090909090909
2.9266862170087977
2.941348973607038
2.9501466275659824
2.952101661779081
2.9472140762463344
2.935483870967742
2.916911045943304
2.8914956011730206
2.860215053763441
2.823069403714565
2.78494623655914
2.7438905180840663
2.6989247311827955
2.652003910068426
2.603128054740958
2.552297165200391
2.5024437927663734
2.455522971652004
2.410557184750733
2.36950146627566
2.3304007820136854
2.2932551319648096
2.259042033235582
2.228739002932551
2.19941348973607
2.1681329423264906
2.136852394916911
2.1065493646138806
2.075268817204301
2.043010752688172
2.010752688172043
1.9775171065493649
1.943304007820137
1.9090909090909087
1.8758553274682308
1.8465298142717497
1.8191593352883677
1.7878787878787878
1.7556207233626588
1.7233626588465298
1.6911045943304008
1.6608015640273706
1.6304985337243405
1.6001955034213098
1.5698924731182795
1.5405669599217986
1.5112414467253177
1.482893450635386
1.4604105571847508
1.4428152492668622
1.4222873900293256
1.4027370478983383
1.3870967741935485
1.3773216031280548
1.3743890518084063
1.380254154447703
1.396871945259042
1.4252199413489737
1.4633431085043989
1.512218963831867
1.563049853372434
1.6158357771260996
1.6803519061583578
1.7517106549364614
1.826001955034213
1.900293255131965
1.9716520039100685
2.038123167155425
2.0987292277614857
2.146627565982405
2.185728250244379
2.222873900293255
2.2551319648093844
2.2766373411534704
2.289345063538612
2.2981427174975564
2.300097751710655
2.2952101661779083
2.2844574780058653
2.2658846529814274
2.2404692082111435
2.2111436950146626
2.1788856304985336
2.144672531769306
2.110459433040078
2.080156402737048
2.0518084066471163
2.0234604105571847
1.9960899315738023
1.9696969696969695
1.9442815249266865
1.919843597262952
1.8973607038123168
1.87683284457478
1.857282502443793
1.836754643206256
1.8172043010752688
1.7956989247311828
1.7761485826001957
1.7575757575757576
1.7331378299120237
1.704789833822092
1.6735092864125125
1.640273704789834
1.6080156402737047
1.5747800586510263
1.5405669599217986
1.5073313782991202
1.4731182795698925
1.4389051808406648
1.4105571847507332
1.3841642228739004
1.35386119257087
1.321603128054741
1.2883675464320623
1.2561094819159335
1.2238514173998043
1.1915933528836755
1.1612903225806452
1.1319648093841643
1.1036168132942326
1.0762463343108504
1.0498533724340176
1.0303030303030305
1.0146627565982405
1.0381231671554252
1.050830889540567
1.067448680351906
1.0869990224828934
1.110459433040078
1.1378299120234605
1.1671554252199414
1.2013685239491692
1.24633431085044
1.3010752688172045
1.3665689149560116
1.4437927663734116
1.5317693059628543
1.6275659824046922
1.729227761485826
1.836754643206256
1.946236559139785
2.0557184750733137
2.1485826001955037
2.231671554252199
2.3225806451612905
2.4134897360703813
2.5004887585532747
2.5806451612903225
2.653958944281525
2.718475073313783
2.776148582600196
2.825024437927664
2.866080156402737
2.8993157380254155
2.9266862170087977
2.941348973607038
2.9472140762463344
2.952101661779081
2.9530791788856305
2.9472140762463344
2.932551319648094
2.909090909090909
2.877810361681329
2.8396871945259043
2.7966764418377323
2.748778103616813
2.6989247311827955
2.652003910068426
2.6070381231671558
2.5610948191593352
2.5161290322580645
2.4731182795698925
2.432062561094819
2.393939393939394
2.358748778103617
2.3255131964809386
2.2932551319648096
2.2629521016617797
2.233626588465298
2.204301075268817
2.176930596285435
2.150537634408602
2.1221896383186705
2.09188660801564
2.058651026392962
2.0234604105571847
1.986314760508309
1.946236559139785
1.905180840664712
1.8641251221896384
1.823069403714565
1.7820136852394917
1.747800586510264
1.7165200391006843
1.683284457478006
1.6490713587487782
1.6148582600195502
1.5826001955034212
1.555229716520039
1.533724340175953
1.521016617790811
1.5190615835777126
1.525904203323558
1.542521994134897
1.5650048875855327
1.5923753665689149
1.6285434995112416
1.6695992179863148
1.7135874877810362
1.758553274682307
1.804496578690127
1.8504398826979471
1.8944281524926687
1.935483870967742
1.9726295210166176
2.003910068426197
2.029325513196481
2.046920821114369
2.0576735092864125
2.064516129032258
2.064516129032258
2.058651026392962
2.046920821114369
2.03128054740958
2.010752688172043
1.9872922776148585
1.9618768328445748
1.935483870967742
1.9100684261974583
1.8885630498533723
1.868035190615836
1.8465298142717497
1.825024437927664
1.804496578690127
1.7839687194525904
1.7653958944281525
1.7468230694037146
1.7282502443792769
1.710654936461388
1.694037145650049
1.678396871945259
1.6627565982404693
1.6490713587487782
1.635386119257087
1.6187683284457477
1.6001955034213098
1.5786901270772238
1.5571847507331378
1.5356793743890518
1.512218963831867
1.487781036168133
1.4623655913978495
1.4349951124144673
1.4076246334310851
1.3841642228739004
1.3626588465298142
1.3372434017595307
1.3088954056695992
1.278592375366569
1.2473118279569892
1.2160312805474096
1.1837732160312806
1.1515151515151516
1.118279569892473
1.0850439882697946
1.0527859237536656
1.021505376344086
0.997067448680352
0.9775171065493646
0.95405669599218
0.9286412512218964
0.9042033235581622
0.8797653958944281
0.855327468230694
0.8318670576735093
0.8103616813294232
0.7888563049853372
0.7683284457478006
0.7497556207233627
0.7390029325513197
0.7311827956989247
0.7214076246334311
0.7106549364613881
0.7008797653958945
0.6911045943304008
0.6832844574780058
0.6764418377321603
0.6705767350928641
0.667644183773216
0.6656891495601173
0.6666666666666666
0.6695992179863147
0.6774193548387096
0.6871945259042033
0.6959921798631477
0.7047898338220919
0.7145650048875856
0.7282502443792767
0.7478005865102639
0.7771260997067448
0.8191593352883676
0.8758553274682307
0.9481915933528836
1.0391006842619743
1.1319648093841643
1.23069403714565
1.3499511241446724
1.4819159335288368
1.6207233626588464
1.7644183773216031
1.9071358748778104
2.04594330400782
2.2052785923753664
2.3421309872922778
2.4359726295210167
2.529814271749756
2.618768328445748
2.6881720430107525
2.744868035190616
2.8044965786901277
2.8611925708699903
2.9120234604105573
2.9550342130987293
2.9902248289345064
3.016617790811339
3.035190615835777
3.04594330400782
3.047898338220919
3.0410557184750733
3.024437927663734
3.0009775171065494
2.972629521016618
2.9393939393939394
2.900293255131965
2.8563049853372435
2.809384164222874
2.7614858260019552
2.713587487781036
2.665689149560117
2.619745845552297
2.5747800586510263
2.532746823069404
2.4946236559139785
2.4594330400782014
2.423264907135875
2.3870967741935485
2.3519061583577714
2.315738025415445
2.280547409579668
2.24633431085044
2.2111436950146626
2.175953079178885
2.139784946236559
2.103616813294233
2.069403714565005
2.0361681329423265
1.9990224828934504
1.9589442815249267
1.916911045943304
1.8748778103616808
1.8328445747800584
1.7917888563049853
1.7526881720430108
1.7135874877810362
1.6744868035190617
1.635386119257087
1.5962854349951123
1.564027370478983
1.5356793743890518
1.5034213098729228
1.4701857282502444
1.4379276637341154
1.4633431085043989
1.520039100684262
1.5376344086021505
1.5347018572825024
1.52297165200391
1.5073313782991202
1.490713587487781
1.4760508308895406
1.4643206256109482
1.4496578690127078
1.434017595307918
1.418377321603128
1.404692082111437
1.392961876832845
1.383186705767351
1.375366568914956
1.3695014662756595
1.3655913978494625
1.3616813294232648
1.359726295210166
1.3626588465298142
1.3695014662756595
1.3792766373411536
1.393939393939394
1.4164222873900294
1.4486803519061584
1.490713587487781
1.543499511241447
1.607038123167155
1.6774193548387095
1.75366568914956
1.835777126099707
1.9100684261974583
1.9794721407624636
2.056695992179863
2.1358748778103616
2.2140762463343107
2.2883675464320627
2.358748778103617
2.4242424242424243
2.482893450635386
2.5347018572825024
2.578690127077224
2.613880742913001
2.636363636363636
2.650048875855328
2.66177908113392
2.667644183773216
2.6666666666666665
2.6608015640273703
2.649071358748778
2.631476050830889
2.6080156402737047
2.5806451612903225
2.550342130987292
2.5190615835777126
2.4858260019550342
2.455522971652004
2.4271749755620724
2.398826979472141
2.3704789833822093
2.343108504398827
2.315738025415445
2.289345063538612
2.264907135874878
2.239491691104594
2.21505376344086
2.190615835777126
2.1622678396871944
2.1388074291300097
2.120234604105572
2.096774193548387
2.070381231671554
2.043010752688172
2.013685239491691
1.9843597262952104
1.9550342130987293
1.9257086999022484
1.895405669599218
1.865102639296188
1.8347996089931573
1.804496578690127
1.7771260997067448
1.7526881720430108
1.7253176930596286
1.696969696969697
1.6686217008797657
1.6392961876832846
1.6099706744868034
1.581622678396872
1.5542521994134897
1.5288367546432062
1.504398826979472
1.4809384164222874
1.4633431085043989
1.4486803519061584
1.4301075268817205
1.4115347018572826
1.392961876832845
1.375366568914956
1.3577712609970674
1.3411534701857282
1.3264907135874875
1.3128054740957966
1.3010752688172045
1.2913000977517106
1.2825024437927663
1.2776148582600195
1.273704789833822
1.267839687194526
1.2609970674486803
1.2551319648093842
1.2502443792766371
1.2473118279569892
1.2473118279569892
1.252199413489736
1.2619745845552297
1.2795698924731185
1.305962854349951
1.33822091886608
1.3782991202346042
1.4330400782013686
1.499511241446725
1.5747800586510263
1.6578690127077225
1.7468230694037146
1.8387096774193548
1.9305962854349952
2.021505376344086
2.1094819159335287
2.193548387096774
2.2737047898338223
2.3382209188660803
2.3919843597262958
2.44672531769306
2.498533724340176
2.544477028347996
2.5835777126099706
2.6148582600195502
2.6373411534701856
2.652003910068426
2.6578690127077222
2.6559139784946235
2.6471163245356792
2.631476050830889
2.610948191593353
2.5855327468230693
2.555229716520039
2.52297165200391
2.487781036168133
2.452590420332356
2.4173998044965788
2.3851417399804498
2.3548387096774195
2.3255131964809386
2.297165200391007
2.270772238514174
2.2482893450635384
2.2277614858260018
2.206256109481916
2.1847507331378297
2.1622678396871944
2.139784946236559
2.118279569892473
2.0957966764418376
2.0733137829912023
2.0498533724340176
2.0254154447702835
1.9990224828934504
1.9736070381231672
1.949169110459433
1.920821114369501
1.8905180840664717
1.858260019550342
1.826001955034213
1.7927663734115349
1.7605083088954057
1.729227761485826
1.6979472140762464
1.6666666666666667
1.635386119257087
1.6041055718475072
1.5796676441837731
1.5591397849462365
1.5356793743890518
1.5112414467253177
1.4858260019550342
1.4613880742913
1.4379276637341154
1.41544477028348
1.393939393939394
1.3734115347018572
1.3528836754643203
1.3343108504398826
1.3235581622678396
1.3157380254154447
1.3040078201368523
1.2942326490713587
1.2864125122189638
1.278592375366569
1.2717497556207231
1.2658846529814272
1.2609970674486803
1.2570869990224829
1.2541544477028348
1.2531769305962854
1.2531769305962854
1.2580645161290325
1.2668621700879763
1.2795698924731185
1.2981427174975562
1.3255131964809383
1.3616813294232648
1.409579667644184
1.4701857282502444
1.542521994134897
1.6256109481915937
1.7165200391006843
1.812316715542522
1.8983382209188664
1.9794721407624636
2.0684261974584555
2.1593352883675463
2.2482893450635384
2.332355816226784
2.409579667644184
2.4789833822091887
2.5405669599217986
2.595307917888563
2.643206256109482
2.684261974584555
2.719452590420332
2.7419354838709675
2.7565982404692084
2.76930596285435
2.779081133919844
2.7839687194525906
2.782991202346041
2.777126099706745
2.764418377321604
2.744868035190616
2.720430107526881
2.6911045943304006
2.656891495601173
2.6236559139784945
2.589442815249267
2.552297165200391
2.515151515151515
2.4789833822091887
2.444770283479961
2.4115347018572826
2.380254154447703
2.3499511241446727
2.321603128054741
2.294232649071359
2.267839687194526
2.24633431085044
2.233626588465298
2.218963831867057
2.1945259042033234
2.164222873900293
2.1309872922776147
2.093841642228739
2.053763440860215
2.010752688172043
1.9667644183773216
1.9237536656891496
1.8807429130009776
1.839687194525904
1.804496578690127
1.7732160312805474
1.7390029325513197
1.7018572825024438
1.6637341153470186
1.624633431085044
1.5865102639296187
1.5493646138807429
1.5151515151515151
1.4819159335288368
1.4496578690127078
1.4193548387096775
1.3958944281524928
1.3763440860215057
1.35386119257087
1.3304007820136852
1.3079178885630498
1.2873900293255132
1.267839687194526
1.2482893450635386
1.2326490713587488
1.2218963831867058
1.2101661779081134
1.1994134897360704
1.1886608015640274
1.1837732160312806
1.1808406647116323
1.176930596285435
1.1730205278592376
1.1700879765395895
1.1671554252199414
1.1652003910068427
1.1671554252199414
1.1720430107526882
1.1808406647116323
1.1964809384164223
1.2209188660801564
1.252199413489736
1.2903225806451613
1.343108504398827
1.4115347018572826
1.4916911045943304
1.581622678396872
1.6793743890518085
1.782991202346041
1.8885630498533723
1.9931573802541545
2.093841642228739
2.1915933528836757
2.2844574780058653
2.3597262952101663
2.4252199413489737
2.493646138807429
2.560117302052786
2.621700879765396
2.684261974584555
2.735092864125122
2.766373411534702
2.793743890518084
2.8132942326490715
2.823069403714565
2.823069403714565
2.8132942326490715
2.795698924731183
2.773216031280548
2.744868035190616
2.710654936461388
2.673509286412512
2.633431085043988
2.590420332355816
2.5464320625610948
2.5034213098729228
2.462365591397849
2.4242424242424243
2.389051808406647
2.358748778103617
2.332355816226784
2.30791788856305
2.2844574780058653
2.260019550342131
2.2346041055718477
2.207233626588465
2.177908113391984
2.147605083088954
2.115347018572825
2.081133919843597
2.04594330400782
2.013685239491691
1.9824046920821117
1.946236559139785
1.906158357771261
1.865102639296188
1.8240469208211143
1.7820136852394917
1.7390029325513197
1.6959921798631477
1.6549364613880744
1.6148582600195502
1.5747800586510263
1.5356793743890518
1.504398826979472
1.478005865102639
1.447702834799609
1.41544477028348
1.3851417399804498
1.356793743890518
1.3304007820136852
1.3049853372434017
1.281524926686217
1.2580645161290325
1.2365591397849462
1.2160312805474096
1.2023460410557183
1.1945259042033236
1.1886608015640274
1.1915933528836755
1.1994134897360704
1.2121212121212122
1.238514173998045
1.2805474095796676
1.33822091886608
1.4086021505376345
1.4916911045943304
1.58455522971652
1.683284457478006
1.7732160312805474
1.858260019550342
1.9530791788856303
2.050830889540567
2.146627565982405
2.236559139784946
2.333333333333333
2.4144672531769307
2.4672531769305963
2.515151515151515
2.5542521994134897
2.5835777126099706
2.60019550342131
2.6050830889540566
2.5992179863147604
2.5884652981427174
2.576735092864125
2.5562072336265884
2.5288367546432062
2.4946236559139785
2.455522971652004
2.4144672531769307
2.3626588465298144
2.3167155425219943
2.2844574780058653
2.254154447702835
2.220918866080156
2.1915933528836757
2.1700879765395893
2.147605083088954
2.1251221896383186
2.1006842619745845
2.075268817204301
2.050830889540567
2.0254154447702835
1.9990224828934504
1.970674486803519
1.943304007820137
1.906158357771261
1.869012707722385
1.839687194525904
1.7956989247311828
1.75366568914956
1.7223851417399805
1.6852394916911049
1.6363636363636365
1.5923753665689149
1.5610948191593352
1.5268817204301075
1.487781036168133
1.455522971652004
1.4291300097751711
1.396871945259042
1.35386119257087
1.305962854349951
1.273704789833822
1.241446725317693
1.2043010752688172
1.1730205278592376
1.1466275659824048
1.1251221896383188
1.1143695014662756
1.1124144672531768
1.1163245356793745
1.1280547409579669
1.1505376344086022
1.1827956989247312
1.2238514173998043
1.2727272727272727
1.3128054740957966
1.3655913978494625
1.4418377321603129
1.5131964809384164
1.5806451612903225
1.6392961876832846
1.6920821114369502
1.747800586510264
1.8025415444770283
1.8533724340175952
1.9012707722385145
1.943304007820137
1.9794721407624636
2.0097751710654936
2.0332355816226784
2.0498533724340176
2.060606060606061
2.065493646138808
2.065493646138808
2.060606060606061
2.0518084066471163
2.040078201368524
2.0254154447702835
2.0087976539589443
1.992179863147605
1.9775171065493649
1.964809384164223
1.9521016617790807
1.9413489736070384
1.932551319648094
1.9266862170087975
1.920821114369501
1.9149560117302051
1.9100684261974583
1.905180840664712
1.900293255131965
1.895405669599218
1.8914956011730208
1.8866080156402736
