ppg
1.9345063538611929
2.070381231671554
2.2385141739980448
2.4115347018572826
2.5219941348973607
2.598240469208211
2.6725317693059627
2.73802541544477
2.782991202346041
2.812316715542522
2.838709677419355
2.8582600195503423
2.8699902248289346
2.873900293255132
2.8699902248289346
2.859237536656892
2.8406647116324537
2.8152492668621703
2.782991202346041
2.742913000977517
2.7008797653958942
2.653958944281525
2.58455522971652
2.5180840664711632
2.4672531769305963
2.406647116324536
2.3196480938416424
2.2385141739980448
2.1788856304985336
2.1114369501466275
2.0234604105571847
1.9442815249266865
1.8885630498533723
1.836754643206256
1.7761485826001957
1.7194525904203324
1.6803519061583578
1.6392961876832846
1.5923753665689149
1.5542521994134897
1.5278592375366569
1.501466275659824
1.47702834799609
1.455522971652004
1.435972629521017
1.4213098729227762
1.409579667644184
1.396871945259042
1.383186705767351
1.3695014662756595
1.3558162267839686
1.33822091886608
1.3225806451612905
1.310850439882698
1.2981427174975562
1.2854349951124144
1.2717497556207231
1.2570869990224829
1.24633431085044
1.2375366568914956
1.227761485826002
1.217008797653959
1.2052785923753666
1.1935483870967742
1.1808406647116323
1.1691104594330402
1.155425219941349
1.1407624633431086
1.1290322580645162
1.121212121212121
1.115347018572825
1.110459433040078
1.1055718475073313
1.0977517106549364
1.0879765395894427
1.0772238514173995
1.0684261974584557
1.0606060606060606
1.053763440860215
1.0488758553274682
1.0449657869012707
1.0420332355816226
1.0410557184750733
1.0420332355816226
1.043010752688172
1.043010752688172
1.0420332355816226
1.0420332355816226
1.0410557184750733
1.040078201368524
1.0381231671554252
1.0361681329423265
1.0342130987292275
1.032258064516129
1.0312805474095796
1.0342130987292275
1.0381231671554252
1.0410557184750733
1.0439882697947214
1.04594330400782
1.0469208211143697
1.0469208211143697
1.04594330400782
1.0439882697947214
1.0420332355816226
1.0410557184750733
1.0420332355816226
1.0498533724340176
1.0635386119257086
1.0869990224828934
1.1241446725317692
1.203323558162268
1.2883675464320623
1.3616813294232648
1.498533724340176
1.675464320625611
1.801564027370479
1.902248289345064
2.058651026392962
2.2052785923753664
2.291300097751711
2.3743890518084068
2.486803519061584
2.5865102639296187
2.6510263929618767
2.7155425219941347
2.7702834799608995
2.8025415444770285
2.819159335288368
2.825024437927664
2.8181818181818183
2.8044965786901277
2.782991202346041
2.755620723362659
2.7233626588465296
2.6852394916911044
2.641251221896383
2.592375366568915
2.5376344086021505
2.4780058651026398
2.4144672531769307
2.347018572825025
2.2766373411534704
2.204301075268817
2.1378299120234603
2.0762463343108504
2.010752688172043
1.9472140762463344
1.884652981427175
1.825024437927664
1.76930596285435
1.7174975562072337
1.6803519061583578
1.643206256109482
1.598240469208211
1.5620723362658846
1.5327468230694037
1.5102639296187683
1.4916911045943304
1.474095796676442
1.458455522971652
1.4437927663734116
1.4301075268817205
1.4173998044965788
1.4066471163245358
1.3949169110459434
1.383186705767351
1.370478983382209
1.3577712609970674
1.3479960899315735
1.33822091886608
1.3264907135874875
1.313782991202346
1.3010752688172045
1.289345063538612
1.278592375366569
1.2658846529814272
1.2531769305962854
1.2404692082111437
1.2267839687194526
1.2140762463343109
1.2013685239491692
1.1915933528836755
1.1827956989247312
1.1730205278592376
1.1622678396871946
1.1505376344086022
1.1397849462365592
1.1300097751710656
1.1202346041055715
1.110459433040078
1.1016617790811338
1.0928641251221896
1.0840664711632453
1.0772238514173995
1.0713587487781036
1.064516129032258
1.0557184750733135
1.0478983382209188
1.040078201368524
1.0332355816226784
1.0273704789833822
1.021505376344086
1.0166177908113392
1.013685239491691
1.0117302052785924
1.0097751710654936
1.0097751710654936
1.010752688172043
1.010752688172043
1.0097751710654936
1.0087976539589445
1.0068426197458455
1.0048875855327468
1.002932551319648
1.0019550342130987
1.0019550342130987
1.0009775171065494
1.0009775171065494
1.002932551319648
1.0048875855327468
1.0048875855327468
1.0039100684261977
1.002932551319648
1.002932551319648
1.0068426197458455
1.0175953079178883
1.0391006842619743
1.0742913000977516
1.1270772238514175
1.198435972629521
1.2903225806451613
1.3841642228739004
1.4838709677419355
1.624633431085044
1.7917888563049853
1.9589442815249267
2.124144672531769
2.283479960899316
2.4330400782013686
2.567937438905181
2.686217008797654
2.7869012707722387
2.8699902248289346
2.9257086999022484
2.960899315738025
2.991202346041056
3.0117302052785924
3.022482893450636
3.024437927663734
3.018572825024438
3.005865102639296
2.9872922776148583
2.962854349951124
2.932551319648094
2.897360703812317
2.8582600195503423
2.8152492668621703
2.7673509286412514
2.713587487781036
2.6529814271749754
2.587487781036168
2.5161290322580645
2.4408602150537635
2.3626588465298144
2.283479960899316
2.204301075268817
2.1280547409579667
2.0547409579667644
1.991202346041056
1.9345063538611929
1.87683284457478
1.822091886608016
1.7712609970674489
1.7243401759530792
1.683284457478006
1.64613880742913
1.6138807429130009
1.58455522971652
1.5581622678396871
1.5347018572825024
1.5161290322580645
1.500488758553275
1.4848484848484849
1.469208211143695
1.4545454545454546
1.4408602150537635
1.426197458455523
1.4105571847507332
1.3949169110459434
1.3792766373411536
1.3636363636363635
1.3479960899315735
1.332355816226784
1.3206256109481915
1.310850439882698
1.2981427174975562
1.284457478005865
1.270772238514174
1.2570869990224829
1.2424242424242424
1.227761485826002
1.2140762463343109
1.2003910068426198
1.187683284457478
1.1759530791788857
1.1681329423264908
1.1612903225806452
1.152492668621701
1.1436950146627567
1.1329423264907137
1.1221896383186705
1.110459433040078
1.099706744868035
1.088954056695992
1.0791788856304985
1.0694037145650048
1.0606060606060606
1.053763440860215
1.0498533724340176
1.0478983382209188
1.0439882697947214
1.0391006842619743
1.0342130987292275
1.029325513196481
1.0263929618768328
1.0254154447702837
1.024437927663734
1.024437927663734
1.024437927663734
1.024437927663734
1.0263929618768328
1.0283479960899315
1.0283479960899315
1.0273704789833822
1.0263929618768328
1.0263929618768328
1.0263929618768328
1.0263929618768328
1.0263929618768328
1.0263929618768328
1.0263929618768328
1.0254154447702837
1.024437927663734
1.0263929618768328
1.029325513196481
1.0332355816226784
1.0439882697947214
1.0635386119257086
1.096774193548387
1.147605083088954
1.2179863147605083
1.3098729227761483
1.4213098729227762
1.5513196480938416
1.6959921798631477
1.827956989247312
1.9530791788856303
2.0948191593352883
2.2404692082111435
2.380254154447703
2.509286412512219
2.6236559139784945
2.720430107526881
2.798631476050831
2.859237536656892
2.9042033235581624
2.9345063538611926
2.952101661779081
2.9550342130987293
2.948191593352884
2.93841642228739
2.924731182795699
2.905180840664712
2.8807429130009776
2.850439882697948
2.8152492668621703
2.7751710654936463
2.7282502443792764
2.674486803519061
2.6158357771261
2.557184750733138
2.4975562072336266
2.4301075268817205
2.356793743890518
2.281524926686217
2.206256109481916
2.131964809384164
2.059628543499511
1.989247311827957
1.9237536656891496
1.8621700879765395
1.804496578690127
1.750733137829912
1.7067448680351909
1.6686217008797657
1.6304985337243405
1.595307917888563
1.564027370478983
1.5366568914956011
1.5141739980449658
1.495601173020528
1.478005865102639
1.4623655913978495
1.447702834799609
1.4330400782013686
1.4213098729227762
1.4115347018572826
1.3988269794721409
1.3851417399804498
1.370478983382209
1.3548387096774193
1.3401759530791788
1.3255131964809383
1.310850439882698
1.295210166177908
1.2795698924731185
1.2639296187683284
1.2482893450635386
1.2355816226783969
1.224828934506354
1.2121212121212122
1.198435972629521
1.18475073313783
1.1710654936461389
1.1573802541544478
1.144672531769306
1.1329423264907137
1.121212121212121
1.1094819159335287
1.0977517106549364
1.0899315738025417
1.083088954056696
1.0742913000977516
1.064516129032258
1.053763440860215
1.043010752688172
1.0332355816226784
1.0254154447702837
1.0195503421309873
1.0146627565982405
1.010752688172043
1.0068426197458455
1.002932551319648
1.0019550342130987
1.0019550342130987
1.0
0.997067448680352
0.9941348973607038
0.9912023460410556
0.9882697947214076
0.9843597262952102
0.981427174975562
0.9794721407624634
0.9775171065493646
0.9765395894428152
0.978494623655914
0.981427174975562
0.9833822091886608
0.9843597262952102
0.9843597262952102
0.9824046920821116
0.9794721407624634
0.9765395894428152
0.9726295210166178
0.9696969696969696
0.967741935483871
0.9687194525904204
0.975562072336266
0.9902248289345064
1.0146627565982405
1.0527859237536656
1.1085043988269794
1.18475073313783
1.2825024437927663
1.3998044965786902
1.5327468230694037
1.6793743890518085
1.8328445747800584
1.9872922776148585
2.136852394916911
2.259042033235582
2.3626588465298144
2.4672531769305963
2.563049853372434
2.64613880742913
2.7145650048875853
2.768328445747801
2.806451612903226
2.83088954056696
2.835777126099707
2.827956989247312
2.817204301075269
2.7996089931573804
2.777126099706745
2.750733137829912
2.720430107526881
2.684261974584555
2.6422287390029324
2.5943304007820136
2.5405669599217986
2.4819159335288368
2.418377321603128
2.350928641251222
2.2795698924731185
2.207233626588465
2.142717497556207
2.0821114369501466
2.018572825024438
1.95405669599218
1.8914956011730208
1.8318670576735088
1.7761485826001957
1.7253176930596286
1.6793743890518085
1.6392961876832846
1.6050830889540566
1.5747800586510263
1.5513196480938416
1.5317693059628543
1.512218963831867
1.4936461388074291
1.478005865102639
1.4652981427174976
1.4545454545454546
1.444770283479961
1.436950146627566
1.4281524926686218
1.4203323558162269
1.412512218963832
1.4037145650048877
1.3958944281524928
1.3890518084066472
1.3792766373411536
1.3695014662756595
1.359726295210166
1.3509286412512218
1.3421309872922775
1.3333333333333333
1.3225806451612905
1.310850439882698
1.2991202346041055
1.2873900293255132
1.278592375366569
1.270772238514174
1.2609970674486803
1.249266862170088
1.238514173998045
1.2267839687194526
1.2150537634408602
1.2043010752688172
1.1925708699902249
1.1827956989247312
1.1730205278592376
1.163245356793744
1.1534701857282503
1.1466275659824048
1.142717497556207
1.1368523949169111
1.1300097751710656
1.1241446725317692
1.1192570869990224
1.115347018572825
1.1114369501466277
1.10752688172043
1.1026392961876832
1.0987292277614855
1.0957966764418376
1.0957966764418376
1.096774193548387
1.096774193548387
1.0977517106549364
1.0987292277614855
1.0987292277614855
1.0987292277614855
1.0987292277614855
1.0977517106549364
1.0977517106549364
1.0977517106549364
1.0977517106549364
1.0977517106549364
1.0987292277614855
1.1006842619745845
1.1006842619745845
1.099706744868035
1.096774193548387
1.093841642228739
1.0918866080156402
1.0928641251221896
1.099706744868035
1.115347018572825
1.1436950146627567
1.187683284457478
1.2394916911045943
1.303030303030303
1.3900293255131966
1.4965786901270772
1.6207233626588464
1.7575757575757576
1.902248289345064
2.0498533724340176
2.1945259042033234
2.3313782991202348
2.4574780058651027
2.5698924731182795
2.665689149560117
2.7341153470185726
2.782991202346041
2.8269794721407626
2.8611925708699903
2.884652981427175
2.898338220918866
2.902248289345064
2.897360703812317
2.8856304985337244
2.868035190615836
2.844574780058651
2.817204301075269
2.78494623655914
2.748778103616813
2.7067448680351904
2.658846529814272
2.6050830889540566
2.5464320625610948
2.482893450635386
2.41544477028348
2.345063538611926
2.272727272727273
2.20039100684262
2.129032258064516
2.058651026392962
1.997067448680352
1.9423264907135875
1.8866080156402736
1.8328445747800584
1.7820136852394917
1.7350928641251222
1.694037145650049
1.656891495601173
1.6236559139784943
1.5943304007820136
1.56891495601173
1.5464320625610948
1.5298142717497556
1.5161290322580645
1.5024437927663734
1.4887585532746823
1.47702834799609
1.466275659824047
1.4545454545454546
1.4418377321603129
1.4291300097751711
1.4164222873900294
1.4027370478983383
1.388074291300098
1.3734115347018572
1.3616813294232648
1.3519061583577712
1.3411534701857282
1.3304007820136852
1.3186705767350928
1.3069403714565004
1.295210166177908
1.2834799608993157
1.2717497556207231
1.2590420332355816
1.2453567937438903
1.2316715542521994
1.2218963831867058
1.2140762463343109
1.2043010752688172
1.1925708699902249
1.181818181818182
1.1720430107526882
1.1622678396871946
1.1534701857282503
1.144672531769306
1.1368523949169111
1.1290322580645162
1.1221896383186705
1.115347018572825
1.110459433040078
1.10752688172043
1.1026392961876832
1.096774193548387
1.0899315738025417
1.083088954056696
1.0772238514173995
1.072336265884653
1.0694037145650048
1.0664711632453567
1.064516129032258
1.0625610948191593
1.0625610948191593
1.064516129032258
1.064516129032258
1.064516129032258
1.064516129032258
1.0635386119257086
1.06158357771261
1.0606060606060606
1.0596285434995112
1.0596285434995112
1.0596285434995112
1.0596285434995112
1.06158357771261
1.0654936461388074
1.0664711632453567
1.0664711632453567
1.0654936461388074
1.0635386119257086
1.06158357771261
1.06158357771261
1.064516129032258
1.075268817204301
1.0977517106549364
1.1358748778103618
1.1925708699902249
1.2570869990224829
1.3333333333333333
1.434017595307918
1.555229716520039
1.6920821114369502
1.8387096774193548
1.9902248289345064
2.1407624633431084
2.286412512218964
2.421309872922776
2.5434995112414467
2.6510263929618767
2.729227761485826
2.7859237536656893
2.838709677419355
2.881720430107527
2.913000977517106
2.932551319648094
2.940371456500489
2.93841642228739
2.9286412512218964
2.9120234604105573
2.8905180840664717
2.8641251221896384
2.832844574780059
2.798631476050831
2.760508308895406
2.717497556207233
2.67644183773216
2.632453567937439
2.575757575757576
2.512218963831867
2.443792766373412
2.3704789833822093
2.294232649071359
2.2170087976539588
2.1407624633431084
2.074291300097752
2.013685239491691
1.9501466275659824
1.8885630498533723
1.8299120234604105
1.775171065493646
1.726295210166178
1.6823069403714566
1.643206256109482
1.6080156402737047
1.576735092864125
1.5493646138807429
1.5239491691104594
1.504398826979472
1.487781036168133
1.4701857282502444
1.4545454545454546
1.439882697947214
1.426197458455523
1.412512218963832
1.3988269794721409
1.3851417399804498
1.370478983382209
1.3548387096774193
1.3391984359726294
1.3264907135874875
1.3157380254154447
1.303030303030303
1.2903225806451613
1.2766373411534702
1.262952101661779
1.2502443792766371
1.238514173998045
1.2267839687194526
1.2140762463343109
1.2023460410557183
1.1915933528836755
1.181818181818182
1.1749755620723363
1.1681329423264908
1.1583577712609971
1.1466275659824048
1.1348973607038124
1.1221896383186705
1.1094819159335287
1.096774193548387
1.0840664711632453
1.0713587487781036
1.0606060606060606
1.050830889540567
1.0449657869012707
1.0420332355816226
1.0381231671554252
1.0332355816226784
1.0273704789833822
1.021505376344086
1.0156402737047898
1.0097751710654936
1.0039100684261977
0.9990224828934506
0.9960899315738024
0.9941348973607038
0.9931573802541545
0.9951124144672532
0.9980449657869012
0.9990224828934506
1.0
1.0
1.0
1.0
1.0
1.0
1.0
1.0
1.0
1.0019550342130987
1.0058651026392962
1.007820136852395
1.0087976539589445
1.0087976539589445
1.0068426197458455
1.0048875855327468
1.002932551319648
1.0019550342130987
1.0009775171065494
1.0019550342130987
1.0058651026392962
1.0156402737047898
1.032258064516129
1.0596285434995112
1.1036168132942326
1.1671554252199414
1.2502443792766371
1.3548387096774193
1.478983382209189
1.619745845552297
1.7732160312805474
1.932551319648094
2.0928641251221896
2.2482893450635384
2.375366568914956
2.482893450635386
2.592375366568915
2.69208211143695
2.777126099706745
2.84652981427175
2.8993157380254155
2.9374389051808407
2.960899315738025
2.9716520039100685
2.972629521016618
2.964809384164223
2.9501466275659824
2.9266862170087977
2.897360703812317
2.865102639296188
2.827956989247312
2.7859237536656893
2.73802541544477
2.6852394916911044
2.625610948191593
2.5620723362658846
2.493646138807429
2.420332355816227
2.3440860215053765
2.2737047898338223
2.206256109481916
2.134897360703812
2.0625610948191597
1.991202346041056
1.921798631476051
1.855327468230694
1.793743890518084
1.7380254154447703
1.6881720430107527
1.643206256109482
1.6041055718475072
1.5708699902248289
1.544477028347996
1.52297165200391
1.5024437927663734
1.4819159335288368
1.4633431085043989
1.4467253176930597
1.4320625610948192
1.4173998044965788
1.4027370478983383
1.3890518084066472
1.375366568914956
1.3616813294232648
1.3499511241446724
1.3391984359726294
1.3255131964809383
1.3118279569892473
1.2981427174975562
1.284457478005865
1.270772238514174
1.2570869990224829
1.2443792766373412
1.2316715542521994
1.2179863147605083
1.2052785923753666
1.195503421309873
1.187683284457478
1.1779081133919844
1.1652003910068427
1.152492668621701
1.1397849462365592
1.1270772238514175
1.1143695014662756
1.1026392961876832
1.0909090909090908
1.0791788856304985
1.0694037145650048
1.06158357771261
1.0576735092864125
1.0547409579667644
1.0488758553274682
1.0420332355816226
1.0342130987292275
1.0263929618768328
1.0195503421309873
1.0127077223851415
1.0068426197458455
1.0019550342130987
0.9980449657869012
0.9941348973607038
0.9931573802541545
0.9941348973607038
0.9921798631476052
0.9902248289345064
0.989247311827957
0.989247311827957
0.989247311827957
0.9902248289345064
0.9921798631476052
0.9931573802541545
0.9931573802541545
0.9921798631476052
0.9902248289345064
0.9912023460410556
0.9931573802541545
0.9941348973607038
0.9951124144672532
0.997067448680352
0.9990224828934506
1.0
1.0009775171065494
1.0009775171065494
1.0009775171065494
1.0009775171065494
1.002932551319648
1.007820136852395
1.0166177908113392
1.0312805474095796
1.0557184750733135
1.093841642228739
1.1495601173020529
1.2258064516129032
1.3225806451612905
1.439882697947214
1.573802541544477
1.7204301075268815
1.8758553274682308
2.0332355816226784
2.166177908113392
2.283479960899316
2.4086021505376345
2.5288367546432062
2.6373411534701856
2.729227761485826
2.803519061583578
2.860215053763441
2.900293255131965
2.924731182795699
2.936461388074292
2.9374389051808407
2.9266862170087977
2.90811339198436
2.886608015640274
2.8611925708699903
2.8299120234604107
2.792766373411535
2.750733137829912
2.7038123167155423
2.6510263929618767
2.592375366568915
2.530791788856305
2.4672531769305963
2.3978494623655915
2.332355816226784
2.2688172043010755
2.19941348973607
2.1280547409579667
2.0576735092864125
1.9902248289345064
1.9257086999022484
1.866080156402737
1.8113391984359728
1.7624633431085044
1.7194525904203324
1.6823069403714566
1.6529814271749756
1.6285434995112416
1.6041055718475072
1.5826001955034212
1.563049853372434
1.543499511241447
1.525904203323558
1.5112414467253177
1.4975562072336266
1.4848484848484849
1.4721407624633431
1.458455522971652
1.444770283479961
1.4330400782013686
1.423264907135875
1.4105571847507332
1.3949169110459434
1.3792766373411536
1.3636363636363635
1.3479960899315735
1.3333333333333333
1.3206256109481915
1.3079178885630498
1.295210166177908
1.2825024437927663
1.2727272727272727
1.2649071358748778
1.2551319648093842
1.2434017595307918
1.2316715542521994
1.2189638318670577
1.206256109481916
1.1935483870967742
1.1827956989247312
1.1720430107526882
1.1622678396871946
1.152492668621701
1.1436950146627567
1.1378299120234605
1.133919843597263
1.1280547409579669
1.1202346041055715
1.1114369501466277
1.1026392961876832
1.0948191593352885
1.0869990224828934
1.0801564027370478
1.0742913000977516
1.0684261974584557
1.0625610948191593
1.0606060606060606
1.0596285434995112
1.0576735092864125
1.0547409579667644
1.0527859237536656
1.050830889540567
1.0478983382209188
1.04594330400782
1.0439882697947214
1.043010752688172
1.043010752688172
1.0439882697947214
1.0439882697947214
1.0469208211143697
1.050830889540567
1.0527859237536656
1.053763440860215
1.0547409579667644
1.0557184750733135
1.056695992179863
1.0586510263929618
1.0606060606060606
1.0625610948191593
1.0635386119257086
1.0625610948191593
1.0635386119257086
1.0664711632453567
1.0684261974584557
1.0713587487781036
1.0772238514173995
1.0909090909090908
1.118279569892473
1.163245356793744
1.227761485826002
1.313782991202346
1.4203323558162269
1.5464320625610948
1.689149560117302
1.8211143695014664
1.949169110459433
2.0957966764418376
2.2482893450635384
2.398826979472141
2.5405669599217986
2.6695992179863146
2.782013685239492
2.874877810361681
2.952101661779081
3.0127077223851417
3.0576735092864125
3.081133919843597
3.090909090909091
3.096774193548387
3.096774193548387
3.089931573802541
3.078201368523949
3.059628543499511
3.035190615835777
3.003910068426197
2.967741935483871
2.9266862170087977
2.878787878787879
2.8260019550342133
2.771260997067449
2.713587487781036
2.649071358748778
2.579667644183773
2.50733137829912
2.4330400782013686
2.357771260997068
2.283479960899316
2.210166177908113
2.139784946236559
2.072336265884653
2.0087976539589443
1.95405669599218
1.906158357771261
1.8592375366568916
1.8162267839687196
1.7790811339198436
1.7458455522971652
1.7174975562072337
1.6930596285434996
1.6715542521994136
1.6520039100684265
1.6344086021505375
1.6177908113391983
1.603128054740958
1.590420332355816
1.5777126099706744
1.565982404692082
1.5542521994134897
1.542521994134897
1.530791788856305
1.5180840664711632
1.5063538611925709
1.4936461388074291
1.4819159335288368
1.4701857282502444
1.458455522971652
1.4496578690127078
1.4428152492668622
1.434017595307918
1.4242424242424243
1.414467253176931
1.4037145650048877
1.3919843597262953
1.380254154447703
1.3685239491691104
1.3587487781036167
1.3499511241446724
1.3411534701857282
1.3343108504398826
1.3294232649071358
1.324535679374389
1.3186705767350928
1.3128054740957966
1.3069403714565004
1.3010752688172045
1.2961876832844574
1.29227761485826
1.2883675464320623
1.2854349951124144
1.2834799608993157
1.281524926686217
1.2805474095796676
1.2795698924731185
1.278592375366569
1.2766373411534702
1.2756598240469208
1.2766373411534702
1.2776148582600195
1.2795698924731185
1.2834799608993157
1.2873900293255132
1.2913000977517106
1.295210166177908
1.300097751710655
1.305962854349951
1.3118279569892473
1.316715542521994
1.321603128054741
1.3255131964809383
1.3294232649071358
1.3343108504398826
1.33822091886608
1.3421309872922775
1.346041055718475
1.3509286412512218
1.356793743890518
1.3626588465298142
1.3685239491691104
1.3734115347018572
1.3773216031280548
1.3822091886608017
1.3900293255131966
1.4037145650048877
1.4271749755620724
1.4652981427174976
1.521994134897361
1.5992179863147604
1.696969696969697
1.7956989247311828
1.8993157380254155
2.0303030303030303
2.1788856304985336
2.335288367546432
2.493646138807429
2.6480938416422286
2.792766373411535
2.924731182795699
3.042033235581622
3.1417399804496577
3.2248289345063537
3.29227761485826
3.333333333333333
3.355816226783969
3.375366568914956
3.3870967741935485
3.391006842619746
3.3870967741935485
3.376344086021505
3.358748778103617
