ppg
2.877810361681329
2.859237536656892
2.8367546432062563
2.8103616813294234
2.782013685239492
2.7517106549364616
2.716520039100684
2.674486803519061
2.6265884652981426
2.572825024437928
2.5141739980449658
2.4516129032258065
2.386119257086999
2.3196480938416424
2.2551319648093844
2.1915933528836757
2.129032258064516
2.0762463343108504
2.0283479960899315
1.9765395894428155
1.9237536656891496
1.871945259042033
1.823069403714565
1.7790811339198436
1.7409579667644184
1.7126099706744868
1.6950146627565983
1.689149560117302
1.6950146627565983
1.7086999022482894
1.7311827956989247
1.7634408602150538
1.804496578690127
1.8514173998044965
1.905180840664712
1.963831867057673
2.0254154447702835
2.0879765395894427
2.15347018572825
2.220918866080156
2.289345063538612
2.3597262952101663
2.420332355816227
2.4760508308895406
2.539589442815249
2.6080156402737047
2.67644183773216
2.740957966764418
2.801564027370479
2.855327468230694
2.902248289345064
2.941348973607038
2.970674486803519
2.9931573802541545
3.004887585532747
3.0097751710654936
3.01564027370479
3.021505376344086
3.026392961876833
3.032258064516129
3.038123167155425
3.0439882697947214
3.048875855327468
3.0518084066471163
3.053763440860215
3.053763440860215
3.050830889540567
3.042033235581622
3.0283479960899315
3.0117302052785924
2.992179863147605
2.9687194525904204
2.9393939393939394
2.9042033235581624
2.863147605083089
2.81622678396872
2.7653958944281527
2.710654936461388
2.6510263929618767
2.595307917888563
2.541544477028348
2.4809384164222874
2.41544477028348
2.347018572825025
2.2737047898338223
2.198435972629521
2.120234604105572
2.040078201368524
1.9589442815249267
1.8807429130009776
1.8054740957966764
1.7331378299120237
1.6735092864125125
1.6207233626588464
1.563049853372434
1.504398826979472
1.4467253176930597
1.392961876832845
1.3450635386119256
1.3040078201368523
1.270772238514174
1.2473118279569892
1.2365591397849462
1.238514173998045
1.2512218963831867
1.2727272727272727
1.3040078201368523
1.3440860215053765
1.392961876832845
1.4506353861192571
1.5141739980449658
1.5806451612903225
1.6500488758553276
1.7223851417399805
1.7956989247311828
1.870967741935484
1.946236559139785
2.0117302052785924
2.0733137829912023
2.1417399804496577
2.2111436950146626
2.2795698924731185
2.3440860215053765
2.404692082111437
2.4613880742913
2.5112414467253177
2.5542521994134897
2.591397849462365
2.6207233626588464
2.6402737047898337
2.654936461388074
2.670576735092864
2.686217008797654
2.699902248289345
2.7126099706744866
2.724340175953079
2.7341153470185726
2.742913000977517
2.7517106549364616
2.760508308895406
2.766373411534702
2.76930596285435
2.7673509286412514
2.760508308895406
2.7497556207233624
2.7341153470185726
2.7126099706744866
2.686217008797654
2.653958944281525
2.6158357771261
2.5718475073313782
2.52297165200391
2.4701857282502444
2.4144672531769307
2.3626588465298144
2.312805474095797
2.257086999022483
2.196480938416422
2.131964809384164
2.0635386119257086
1.992179863147605
1.916911045943304
1.8387096774193548
1.7595307917888563
1.6803519061583578
1.6021505376344083
1.5249266862170088
1.4613880742913
1.4056695992179864
1.343108504398827
1.278592375366569
1.2140762463343109
1.152492668621701
1.0948191593352885
1.0449657869012707
1.002932551319648
0.9706744868035192
0.9501466275659824
0.9413489736070382
0.9442815249266864
0.9560117302052786
0.9736070381231672
0.9990224828934506
1.032258064516129
1.0733137829912025
1.1202346041055715
1.1720430107526882
1.227761485826002
1.2873900293255132
1.3509286412512218
1.4173998044965788
1.4858260019550342
1.5493646138807429
1.6109481915933528
1.678396871945259
1.747800586510264
1.8172043010752688
1.884652981427175
1.948191593352884
2.005865102639296
2.0576735092864125
2.103616813294233
2.1436950146627565
2.1788856304985336
2.206256109481916
2.228739002932551
2.2531769305962857
2.278592375366569
2.304007820136853
2.3284457478005867
2.350928641251222
2.372434017595308
2.3919843597262958
2.4115347018572826
2.4301075268817205
2.447702834799609
2.464320625610948
2.4760508308895406
2.4838709677419355
2.490713587487781
2.4946236559139785
2.49266862170088
2.484848484848485
2.4701857282502444
2.449657869012708
2.423264907135875
2.3919843597262958
2.358748778103617
2.3225806451612905
2.289345063538612
2.257086999022483
2.218963831867057
2.175953079178885
2.1280547409579667
2.0762463343108504
2.021505376344086
1.964809384164223
1.90811339198436
1.8514173998044965
1.7976539589442817
1.7458455522971652
1.7038123167155426
1.6666666666666667
1.624633431085044
1.581622678396872
1.5405669599217986
1.5024437927663734
1.4682306940371457
1.439882697947214
1.418377321603128
1.4056695992179864
1.4037145650048877
1.4115347018572826
1.43108504398827
1.457478005865103
1.4897360703812317
1.5317693059628543
1.581622678396872
1.6373411534701858
1.6989247311827955
1.7653958944281525
1.8347996089931573
1.905180840664712
1.9775171065493649
2.0518084066471163
2.126099706744868
2.190615835777126
2.2502443792766376
2.317693059628544
2.388074291300098
2.4604105571847508
2.5317693059628543
2.60019550342131
2.664711632453568
2.724340175953079
2.779081133919844
2.8269794721407626
2.868035190615836
2.9012707722385143
2.9237536656891496
2.93841642228739
2.9550342130987293
2.9716520039100685
2.9872922776148583
3.0009775171065494
3.0127077223851417
3.022482893450636
3.029325513196481
3.034213098729228
3.038123167155425
3.040078201368524
3.0361681329423265
3.029325513196481
3.024437927663734
3.0175953079178885
3.0087976539589443
2.997067448680352
2.981427174975562
2.960899315738025
2.936461388074292
2.90811339198436
2.875855327468231
2.8396871945259043
2.7996089931573804
2.7595307917888565
2.717497556207233
2.668621700879765
2.613880742913001
2.555229716520039
2.493646138807429
2.4281524926686218
2.360703812316716
2.290322580645161
2.219941348973607
2.150537634408602
2.0821114369501466
2.0234604105571847
1.9716520039100685
1.9159335288367547
1.858260019550342
1.8005865102639296
1.7458455522971652
1.6950146627565983
1.6490713587487782
1.6099706744868034
1.5786901270772238
1.5571847507331378
1.5454545454545454
1.5454545454545454
1.5542521994134897
1.5718475073313782
1.5972629521016617
1.632453567937439
1.6764418377321604
1.7282502443792769
1.7859237536656891
1.8465298142717497
1.9100684261974583
1.9765395894428155
2.042033235581622
2.10850439882698
2.166177908113392
2.218963831867057
2.278592375366569
2.3411534701857284
2.403714565004888
2.4652981427174976
2.5239491691104594
2.5777126099706744
2.6265884652981426
2.670576735092864
2.70772238514174
2.73802541544477
2.764418377321604
2.782013685239492
2.793743890518084
2.807429130009776
2.822091886608016
2.834799608993157
2.8455522971652005
2.854349951124145
2.863147605083089
2.870967741935484
2.878787878787879
2.887585532746823
2.8944281524926687
2.895405669599218
2.89345063538612
2.8905180840664717
2.8836754643206257
2.8719452590420333
2.854349951124145
2.831867057673509
2.8025415444770285
2.7673509286412514
2.7262952101661777
2.6803519061583576
2.6295210166177907
2.5747800586510263
2.5239491691104594
2.472140762463343
2.412512218963832
2.3489736070381237
2.281524926686217
2.210166177908113
2.136852394916911
2.06158357771261
1.9853372434017595
1.9090909090909087
1.833822091886608
1.761485826001955
1.7008797653958945
1.6471163245356797
1.5894428152492668
1.530791788856305
1.4731182795698925
1.418377321603128
1.367546432062561
1.321603128054741
1.2834799608993157
1.2541544477028348
1.2336265884652982
1.224828934506354
1.2287390029325511
1.2424242424242424
1.2649071358748778
1.295210166177908
1.3333333333333333
1.3773216031280548
1.4271749755620724
1.482893450635386
1.542521994134897
1.606060606060606
1.6744868035190617
1.7458455522971652
1.818181818181818
1.884652981427175
1.9472140762463344
2.016617790811339
2.0879765395894427
2.158357771260997
2.228739002932551
2.297165200391007
2.361681329423265
2.420332355816227
2.472140762463343
2.5161290322580645
2.552297165200391
2.5806451612903225
2.60019550342131
2.611925708699902
2.6236559139784945
2.634408602150537
2.6451612903225805
2.6559139784946235
2.6637341153470184
2.668621700879765
2.6725317693059627
2.675464320625611
2.675464320625611
2.674486803519061
2.6715542521994133
2.6666666666666665
2.659824046920821
2.650048875855328
2.635386119257087
2.613880742913001
2.5855327468230693
2.5513196480938416
2.5083088954056696
2.458455522971652
2.401759530791789
2.340175953079179
2.274682306940372
2.21505376344086
2.160312805474096
2.0977517106549364
2.0303030303030303
1.9589442815249267
1.8836754643206255
1.7653958944281525
1.6226783968719452
1.5083088954056696
1.409579667644184
1.3206256109481915
1.2375366568914956
1.1710654936461389
1.1143695014662756
1.0498533724340176
0.9824046920821116
0.9149560117302052
0.8494623655913979
0.7888563049853372
0.7331378299120235
0.6832844574780058
0.6412512218963832
0.6089931573802542
0.5884652981427175
0.5835777126099707
0.5913978494623656
0.6050830889540567
0.6275659824046921
0.6588465298142717
0.6989247311827957
0.7478005865102639
0.8025415444770283
0.863147605083089
0.927663734115347
0.997067448680352
1.0703812316715542
1.147605083088954
1.219941348973607
1.2913000977517106
1.370478983382209
1.452590420332356
1.5347018572825024
1.6158357771260996
1.6950146627565983
1.772238514173998
1.8455522971652003
1.9120234604105573
1.9716520039100685
2.024437927663734
2.065493646138808
2.0987292277614857
2.132942326490713
2.1681329423264906
2.2023460410557183
2.236559139784946
2.271749755620724
2.3069403714565007
2.3421309872922778
2.376344086021505
2.407624633431085
2.4379276637341154
2.466275659824047
2.486803519061584
2.5034213098729228
2.52297165200391
2.541544477028348
2.5562072336265884
2.565982404692082
2.570869990224829
2.570869990224829
2.565982404692082
2.5562072336265884
2.541544477028348
2.5219941348973607
2.501466275659824
2.4780058651026398
2.4486803519061584
2.4134897360703813
2.3734115347018574
2.3284457478005867
2.2795698924731185
2.2267839687194524
2.1700879765395893
2.112414467253177
2.0527859237536656
1.994134897360704
1.93841642228739
1.8914956011730208
1.8494623655913975
1.8025415444770283
1.7565982404692082
1.7135874877810362
1.672531769305963
1.635386119257087
1.603128054740958
1.5786901270772238
1.563049853372434
1.5571847507331378
1.563049853372434
1.576735092864125
1.5962854349951123
1.6265884652981428
1.667644183773216
1.7165200391006843
1.7732160312805474
1.835777126099707
1.902248289345064
1.9716520039100685
2.043010752688172
2.117302052785924
2.1925708699902247
2.2688172043010755
2.333333333333333
2.391006842619746
2.455522971652004
2.5210166177908118
2.5865102639296187
2.6510263929618767
2.7126099706744866
2.771260997067449
2.8260019550342133
2.875855327468231
2.917888563049853
2.951124144672532
2.9696969696969697
2.979472140762464
2.989247311827957
2.99902248289345
3.007820136852395
3.016617790811339
3.024437927663734
3.0303030303030303
3.0361681329423265
3.0410557184750733
3.0439882697947214
3.04594330400782
3.046920821114369
3.043010752688172
3.038123167155425
3.0332355816226784
3.0254154447702835
3.0117302052785924
2.992179863147605
2.9667644183773216
2.935483870967742
2.898338220918866
2.855327468230694
2.806451612903226
2.752688172043011
2.699902248289345
2.64613880742913
2.5855327468230693
2.520039100684262
2.450635386119257
2.378299120234604
2.303030303030303
2.2248289345063537
2.142717497556207
2.058651026392962
1.9726295210166176
1.8866080156402736
1.8025415444770283
1.7331378299120237
1.6715542521994136
1.607038123167155
1.542521994134897
1.47702834799609
1.4134897360703813
1.3528836754643203
1.2932551319648091
1.2375366568914956
1.187683284457478
1.1466275659824048
1.1143695014662756
1.0977517106549364
1.0928641251221896
1.096774193548387
1.1114369501466277
1.1378299120234605
1.173998044965787
1.219941348973607
1.2727272727272727
1.3304007820136852
1.392961876832845
1.4594330400782014
1.5298142717497556
1.603128054740958
1.6695992179863148
1.7341153470185728
1.8064516129032255
1.8807429130009776
1.9550342130987293
2.0283479960899315
2.099706744868035
2.166177908113392
2.225806451612903
2.278592375366569
2.3255131964809386
2.3655913978494625
2.3949169110459434
2.4164222873900294
2.4379276637341154
2.4594330400782014
2.4789833822091887
2.495601173020528
2.5112414467253177
2.5268817204301075
2.541544477028348
2.5542521994134897
2.565982404692082
2.576735092864125
2.5855327468230693
2.589442815249267
2.589442815249267
2.5884652981427174
2.5855327468230693
2.578690127077224
2.5650048875855327
2.5434995112414467
2.515151515151515
2.479960899315738
2.4379276637341154
2.3919843597262958
2.3421309872922778
2.2952101661779083
2.2482893450635384
2.193548387096774
2.133919843597263
2.069403714565005
2.0009775171065494
1.9305962854349952
1.8563049853372435
1.7810361681329423
1.704789833822092
1.6275659824046922
1.552297165200391
1.4897360703812317
1.4349951124144673
1.375366568914956
1.313782991202346
1.252199413489736
1.1915933528836755
1.133919843597263
1.0811339198435972
1.032258064516129
0.989247311827957
0.95405669599218
0.927663734115347
0.9120234604105572
0.9081133919843596
0.9149560117302052
0.9296187683284456
0.9530791788856304
0.9853372434017597
1.0273704789833822
1.0762463343108504
1.1329423264907137
1.1964809384164223
1.2639296187683284
1.3343108504398826
1.4086021505376345
1.47702834799609
1.6011730205278591
1.7575757575757576
1.869012707722385
1.956989247311828
2.032258064516129
2.099706744868035
2.163245356793744
2.2218963831867056
2.275659824046921
2.324535679374389
2.366568914956012
2.4027370478983383
2.4301075268817205
2.450635386119257
2.4701857282502444
2.4887585532746823
2.505376344086021
2.5219941348973607
2.5386119257087
2.552297165200391
2.5640273704789838
2.5747800586510263
2.58455522971652
2.592375366568915
2.5962854349951123
2.598240469208211
2.60019550342131
2.601173020527859
2.5992179863147604
2.5943304007820136
2.58455522971652
2.570869990224829
2.552297165200391
2.527859237536657
2.4995112414467253
2.4652981427174976
2.4271749755620724
2.391006842619746
2.35386119257087
2.3098729227761488
2.26197458455523
2.2111436950146626
2.157380254154448
2.102639296187683
2.04594330400782
1.988269794721408
1.9286412512218964
1.868035190615836
1.8064516129032255
1.7546432062561097
1.7086999022482894
1.656891495601173
1.603128054740958
1.5493646138807429
1.4965786901270772
1.4457478005865103
1.3958944281524928
1.3479960899315735
1.3049853372434017
1.2668621700879763
1.2355816226783969
1.2130987292277615
1.203323558162268
1.2023460410557183
1.2072336265884651
1.2189638318670577
1.2375366568914956
1.262952101661779
1.2942326490713587
1.3304007820136852
1.3714565004887584
1.41544477028348
1.4623655913978495
1.512218963831867
1.5591397849462365
1.6041055718475072
1.6549364613880744
1.7086999022482894
1.7634408602150538
1.8191593352883677
1.873900293255132
1.927663734115347
1.9794721407624636
2.0283479960899315
2.071358748778104
2.1094819159335287
2.1417399804496577
2.167155425219941
2.187683284457478
2.2082111436950145
2.228739002932551
2.247311827956989
2.2639296187683287
2.278592375366569
2.294232649071359
2.3098729227761488
2.324535679374389
2.3391984359726297
2.35386119257087
2.364613880742913
2.3734115347018574
2.3841642228739004
2.3929618768328447
2.39980449657869
2.401759530791789
2.39980449657869
2.3919843597262958
2.378299120234604
2.358748778103617
2.335288367546432
2.30791788856305
2.2766373411534704
2.247311827956989
2.218963831867057
2.185728250244379
2.1495601173020527
2.110459433040078
2.069403714565005
2.024437927663734
1.9775171065493649
1.9286412512218964
1.878787878787879
1.8299120234604105
1.7820136852394917
1.7419354838709675
1.7067448680351909
1.667644183773216
1.6275659824046922
1.5884652981427174
1.5503421309872922
1.5141739980449658
1.4819159335288368
1.4545454545454546
1.4330400782013686
1.4173998044965788
1.4105571847507332
1.412512218963832
1.4242424242424243
1.4428152492668622
1.4682306940371457
1.500488758553275
1.5395894428152492
1.585532746823069
1.6363636363636365
1.6901270772238517
1.7468230694037146
1.8064516129032255
1.868035190615836
1.9315738025415443
1.9872922776148585
2.0391006842619745
2.0977517106549364
2.158357771260997
2.219941348973607
2.2825024437927666
2.343108504398827
2.401759530791789
2.458455522971652
2.5112414467253177
2.560117302052786
2.6041055718475072
2.6451612903225805
2.675464320625611
2.6989247311827955
2.7233626588465296
2.7468230694037143
2.768328445747801
2.787878787878788
2.8054740957966766
2.823069403714565
2.8396871945259043
2.854349951124145
2.868035190615836
2.8797653958944283
2.8856304985337244
2.889540566959922
2.8944281524926687
2.8993157380254155
2.9012707722385143
2.900293255131965
2.895405669599218
2.8856304985337244
2.8719452590420333
2.854349951124145
2.832844574780059
2.807429130009776
2.780058651026393
2.750733137829912
2.719452590420332
2.6852394916911044
2.6480938416422286
2.6080156402737047
2.5640273704789838
2.515151515151515
2.463343108504399
2.409579667644184
2.35386119257087
2.297165200391007
2.2404692082111435
2.190615835777126
2.144672531769306
2.0948191593352883
2.043010752688172
1.992179863147605
1.943304007820137
1.895405669599218
1.8494623655913975
1.8054740957966764
1.7663734115347018
1.732160312805474
1.7057673509286413
1.6901270772238517
1.683284457478006
1.6823069403714566
1.689149560117302
1.7038123167155426
1.7272727272727273
1.7575757575757576
1.7947214076246334
1.835777126099707
1.8807429130009776
1.927663734115347
1.9775171065493649
2.0283479960899315
2.074291300097752
2.1192570869990224
2.1710654936461387
2.225806451612903
2.2825024437927666
2.340175953079179
2.396871945259042
2.452590420332356
2.504398826979472
2.5513196480938416
2.593352883675464
2.6295210166177907
2.654936461388074
2.6725317693059627
2.6901270772238512
2.705767350928641
2.719452590420332
2.732160312805474
2.745845552297165
2.7595307917888565
2.7702834799608995
2.779081133919844
2.7869012707722387
2.793743890518084
2.7996089931573804
2.80058651026393
2.7996089931573804
2.7996089931573804
2.798631476050831
2.795698924731183
2.788856304985337
2.779081133919844
2.782013685239492
2.787878787878788
2.773216031280548
2.744868035190616
2.705767350928641
2.664711632453568
2.621700879765396
2.570869990224829
2.515151515151515
2.4565004887585533
2.3949169110459434
2.3313782991202348
2.2658846529814274
2.1974584555229715
2.1270772238514173
2.053763440860215
1.978494623655914
1.902248289345064
1.836754643206256
1.7790811339198436
1.7165200391006843
1.6529814271749756
1.590420332355816
1.5298142717497556
1.4711632453567938
1.41544477028348
1.3636363636363635
1.3157380254154447
1.2727272727272727
1.2375366568914956
1.217008797653959
1.2072336265884651
1.2023460410557183
1.2052785923753666
1.2179863147605083
1.2394916911045943
1.270772238514174
1.3088954056695992
1.3519061583577712
1.4007820136852396
1.455522971652004
1.5141739980449658
1.576735092864125
1.635386119257087
1.6930596285434996
1.7575757575757576
1.826001955034213
1.8963831867057677
1.9657869012707725
2.034213098729228
2.0987292277614857
2.1593352883675463
2.21505376344086
2.2639296187683287
2.304985337243402
2.335288367546432
2.357771260997068
2.378299120234604
2.396871945259042
2.4115347018572826
2.4252199413489737
2.436950146627566
2.4486803519061584
2.458455522971652
2.466275659824047
2.4731182795698925
2.4789833822091887
2.4838709677419355
2.4858260019550342
2.4858260019550342
2.4838709677419355
2.479960899315738
2.472140762463343
2.4604105571847508
2.4457478005865103
2.4271749755620724
2.404692082111437
2.377321603128055
2.346041055718475
2.310850439882698
2.2766373411534704
2.2404692082111435
2.196480938416422
2.147605083088954
2.0948191593352883
2.038123167155425
1.978494623655914
1.9159335288367547
1.8523949169110456
1.7869012707722385
1.7204301075268815
1.6549364613880744
1.5913978494623655
1.5386119257087
1.4916911045943304
1.436950146627566
1.3792766373411536
1.3206256109481915
1.262952101661779
1.2072336265884651
1.155425219941349
1.1085043988269794
1.0664711632453567
1.0332355816226784
1.0097751710654936
1.0
1.0
1.0068426197458455
1.021505376344086
1.0449657869012707
1.0772238514173995
1.1173020527859236
1.1652003910068427
1.2189638318670577
1.2776148582600195
1.3411534701857282
1.4076246334310851
1.47702834799609
1.541544477028348
1.6041055718475072
1.672531769305963
1.7438905180840665
1.8162267839687196
1.889540566959922
1.963831867057673
2.0361681329423265
2.1055718475073317
2.1700879765395893
2.2297165200391005
2.283479960899316
2.3255131964809386
2.3597262952101663
2.393939393939394
2.426197458455523
2.4565004887585533
2.4858260019550342
2.5141739980449658
2.5405669599217986
2.565982404692082
2.589442815249267
2.611925708699902
2.634408602150537
2.6559139784946235
2.6715542521994133
2.6823069403714563
2.69208211143695
2.699902248289345
2.704789833822092
2.705767350928641
2.7038123167155423
2.6989247311827955
2.6930596285435
2.686217008797654
2.677419354838709
2.6666666666666665
2.653958944281525
2.638318670576735
2.6207233626588464
2.598240469208211
2.5718475073313782
2.5405669599217986
2.504398826979472
2.463343108504399
2.418377321603128
2.36950146627566
2.3167155425219943
2.26197458455523
2.212121212121212
2.166177908113392
2.114369501466276
2.059628543499511
2.004887585532747
1.9521016617790807
1.900293255131965
1.8504398826979471
1.804496578690127
1.7624633431085044
1.726295210166178
1.6979472140762464
1.6793743890518085
1.672531769305963
1.6744868035190617
1.683284457478006
1.7018572825024438
1.729227761485826
1.7653958944281525
1.8093841642228736
1.8592375366568916
1.9149560117302051
1.9745845552297163
2.037145650048876
2.102639296187683
2.161290322580645
2.217986314760508
2.2825024437927666
2.350928641251222
2.420332355816227
2.490713587487781
2.560117302052786
2.6265884652981426
2.6911045943304006
2.752688172043011
2.8103616813294234
2.86217008797654
2.90811339198436
2.940371456500489
2.961876832844575
2.983382209188661
3.0019550342130987
3.01564027370479
3.027370478983382
3.035190615835777
3.0410557184750733
3.0449657869012707
3.048875855327468
3.050830889540567
3.0518084066471163
3.048875855327468
3.042033235581622
3.037145650048876
3.0332355816226784
3.029325513196481
3.0234604105571847
3.013685239491691
2.99902248289345
2.9775171065493646
2.951124144672532
2.919843597262952
2.8826979472140764
2.8396871945259043
2.7966764418377323
2.752688172043011
2.702834799608993
2.6480938416422286
2.590420332355816
2.5288367546432062
2.4652981427174976
2.398826979472141
2.329423264907136
2.257086999022483
2.1847507331378297
2.112414467253177
2.0498533724340176
1.991202346041056
1.927663734115347
1.86119257086999
1.7956989247311828
1.732160312805474
1.6695992179863148
1.6080156402737047
1.5493646138807429
1.4926686217008798
1.439882697947214
1.3919843597262953
1.3519061583577712
1.3255131964809383
1.313782991202346
1.3079178885630498
1.3088954056695992
1.3186705767350928
1.335288367546432
1.3607038123167154
1.393939393939394
1.434017595307918
1.4809384164222874
1.5327468230694037
1.587487781036168
1.6383186705767352
1.689149560117302
1.7468230694037146
1.8084066471163245
1.8729227761485825
1.9393939393939397
2.004887585532747
2.0684261974584555
2.1309872922776147
2.1925708699902247
2.2502443792766376
