ppg
2.919843597262952
2.8807429130009776
2.8289345063538613
2.7702834799608995
2.704789833822092
2.6265884652981426
2.539589442815249
2.4457478005865103
2.3489736070381237
2.254154447702835
2.164222873900293
2.081133919843597
2.007820136852395
1.946236559139785
1.8944281524926687
1.8543499511241448
1.822091886608016
1.790811339198436
1.7605083088954057
1.732160312805474
1.7038123167155426
1.675464320625611
1.64613880742913
1.616813294232649
1.5865102639296187
1.555229716520039
1.5239491691104594
1.4975562072336266
1.474095796676442
1.447702834799609
1.4213098729227762
1.3958944281524928
1.3714565004887584
1.3499511241446724
1.3284457478005864
1.3079178885630498
1.2883675464320623
1.2688172043010753
1.249266862170088
1.2297165200391007
1.2140762463343109
1.2003910068426198
1.1827956989247312
1.166177908113392
1.1544477028347997
1.1407624633431086
1.1270772238514175
1.1143695014662756
1.1016617790811338
1.088954056695992
1.0762463343108504
1.0635386119257086
1.0547409579667644
1.0478983382209188
1.040078201368524
1.032258064516129
1.0263929618768328
1.0205278592375366
1.0166177908113392
1.0146627565982405
1.013685239491691
1.013685239491691
1.013685239491691
1.013685239491691
1.013685239491691
1.0156402737047898
1.0195503421309873
1.021505376344086
1.0205278592375366
1.0195503421309873
1.018572825024438
1.018572825024438
1.018572825024438
1.018572825024438
1.018572825024438
1.018572825024438
1.018572825024438
1.0205278592375366
1.024437927663734
1.0263929618768328
1.0273704789833822
1.0273704789833822
1.0273704789833822
1.0254154447702837
1.0224828934506354
1.0205278592375366
1.0195503421309873
1.0205278592375366
1.0283479960899315
1.0478983382209188
1.0772238514173995
1.121212121212121
1.1915933528836755
1.29227761485826
1.4203323558162269
1.5708699902248289
1.737047898338221
1.9100684261974583
2.081133919843597
2.241446725317693
2.3841642228739004
2.505376344086021
2.592375366568915
2.654936461388074
2.7116324535679373
2.760508308895406
2.80058651026393
2.833822091886608
2.8611925708699903
2.884652981427175
2.9042033235581624
2.919843597262952
2.9315738025415445
2.936461388074292
2.932551319648094
2.917888563049853
2.89345063538612
2.86217008797654
2.8211143695014664
2.76930596285435
2.7067448680351904
2.633431085043988
2.5513196480938416
2.463343108504399
2.3714565004887587
2.278592375366569
2.187683284457478
2.110459433040078
2.0439882697947214
1.9794721407624636
1.921798631476051
1.871945259042033
1.828934506353861
1.7917888563049853
1.7575757575757576
1.7253176930596286
1.6930596285434996
1.66177908113392
1.629521016617791
1.595307917888563
1.565982404692082
1.5376344086021505
1.5073313782991202
1.4760508308895406
1.444770283479961
1.4134897360703813
1.3841642228739004
1.3558162267839686
1.3294232649071358
1.3040078201368523
1.2825024437927663
1.2649071358748778
1.2541544477028348
1.249266862170088
1.24633431085044
1.2473118279569892
1.252199413489736
1.260019550342131
1.2688172043010753
1.2776148582600195
1.2854349951124144
1.2913000977517106
1.2971652003910068
1.3049853372434017
1.313782991202346
1.3235581622678396
1.335288367546432
1.3479960899315735
1.3636363636363635
1.380254154447703
1.4027370478983383
1.4242424242424243
1.4408602150537635
1.4623655913978495
1.4868035190615836
1.5131964809384164
1.5376344086021505
1.5571847507331378
1.573802541544477
1.5894428152492668
1.6021505376344083
1.6109481915933528
1.616813294232649
1.619745845552297
1.619745845552297
1.616813294232649
1.6129032258064515
1.6080156402737047
1.603128054740958
1.598240469208211
1.5923753665689149
1.585532746823069
1.5777126099706744
1.5708699902248289
1.564027370478983
1.5562072336265884
1.5464320625610948
1.5347018572825024
1.521994134897361
1.5073313782991202
1.4916911045943304
1.4760508308895406
1.4633431085043989
1.4535679374389052
1.447702834799609
1.452590420332356
1.474095796676442
1.5161290322580645
1.581622678396872
1.6705767350928642
1.780058651026393
1.905180840664712
2.0361681329423265
2.164222873900293
2.2825024437927666
2.372434017595308
2.441837732160313
2.506353861192571
2.5610948191593352
2.606060606060606
2.6422287390029324
2.6725317693059627
2.6989247311827955
2.7233626588465296
2.745845552297165
2.766373411534702
2.78494623655914
2.7947214076246336
2.7976539589442817
2.7996089931573804
2.795698924731183
2.782013685239492
2.757575757575758
2.721407624633431
2.6715542521994133
2.610948191593353
2.539589442815249
2.4613880742913
2.3812316715542523
2.30791788856305
2.2385141739980448
2.167155425219941
2.099706744868035
2.0391006842619745
1.986314760508309
1.9403714565004888
1.903225806451613
1.8729227761485825
1.8465298142717497
1.8211143695014664
1.1300097751710656
1.1221896383186705
1.115347018572825
1.1085043988269794
1.1016617790811338
1.093841642228739
1.0869990224828934
1.0811339198435972
1.075268817204301
1.0733137829912025
1.0733137829912025
1.0703812316715542
1.0664711632453567
1.06158357771261
1.0576735092864125
1.0547409579667644
1.053763440860215
1.0527859237536656
1.0527859237536656
1.0547409579667644
1.0576735092864125
1.0606060606060606
1.0654936461388074
1.0703812316715542
1.0733137829912025
1.0742913000977516
1.075268817204301
1.075268817204301
1.075268817204301
1.075268817204301
1.075268817204301
1.075268817204301
1.075268817204301
1.075268817204301
1.0772238514173995
1.0811339198435972
1.0840664711632453
1.088954056695992
1.099706744868035
1.121212121212121
1.1583577712609971
1.217008797653959
1.3010752688172045
1.3782991202346042
1.457478005865103
1.5728250244379276
1.689149560117302
1.804496578690127
1.9374389051808407
2.070381231671554
2.1925708699902247
2.297165200391007
2.3841642228739004
2.453567937438905
2.509286412512219
2.552297165200391
2.5865102639296187
2.6129032258064515
2.634408602150537
2.64613880742913
2.6510263929618767
2.6559139784946235
2.659824046920821
2.6578690127077222
2.650048875855328
2.633431085043988
2.608993157380254
2.573802541544477
2.527859237536657
2.4711632453567938
2.406647116324536
2.343108504398827
2.27761485826002
2.2052785923753664
2.1309872922776147
2.058651026392962
1.991202346041056
1.9286412512218964
1.8748778103616808
1.827956989247312
1.7878787878787878
1.75366568914956
1.7223851417399805
1.694037145650049
1.6695992179863148
1.6480938416422288
1.6236559139784943
1.598240469208211
1.5718475073313782
1.544477028347996
1.5161290322580645
1.4887585532746823
1.4604105571847508
1.4320625610948192
1.4037145650048877
1.3773216031280548
1.3558162267839686
1.33822091886608
1.3196480938416422
1.3010752688172045
1.2834799608993157
1.2649071358748778
1.24633431085044
1.2297165200391007
1.2130987292277615
1.1974584555229717
1.1827956989247312
1.1681329423264908
1.1564027370478984
1.1485826001955035
1.141739980449658
1.133919843597263
1.1251221896383188
1.115347018572825
1.1065493646138806
1.0977517106549364
1.088954056695992
1.0801564027370478
1.0733137829912025
1.0664711632453567
1.0596285434995112
1.0547409579667644
1.050830889540567
1.0449657869012707
1.0371456500488758
1.029325513196481
1.021505376344086
1.0146627565982405
1.0097751710654936
1.0048875855327468
1.0
0.9960899315738024
0.9941348973607038
0.9931573802541545
0.9941348973607038
0.997067448680352
0.9990224828934506
1.0
1.0
1.0
1.0
1.0
1.0
1.0
1.0
1.0
1.0019550342130987
1.0048875855327468
1.0068426197458455
1.007820136852395
1.0097751710654936
1.0117302052785924
1.0146627565982405
1.0166177908113392
1.018572825024438
1.021505376344086
1.024437927663734
1.0312805474095796
1.04594330400782
1.0684261974584557
1.1036168132942326
1.1593352883675463
1.2394916911045943
1.3450635386119256
1.4731182795698925
1.6177908113391983
1.7702834799608993
1.921798631476051
2.065493646138808
2.193548387096774
2.303030303030303
2.3822091886608017
2.4389051808406648
2.490713587487781
2.5347018572825024
2.570869990224829
2.5992179863147604
2.621700879765396
2.6402737047898337
2.6559139784946235
2.667644183773216
2.673509286412512
2.674486803519061
2.668621700879765
2.6529814271749754
2.6295210166177907
2.5992179863147604
2.560117302052786
2.512218963831867
2.455522971652004
2.391006842619746
2.320625610948192
2.2453567937438903
2.1681329423264906
2.0928641251221896
2.021505376344086
1.9618768328445748
1.9120234604105573
1.865102639296188
1.823069403714565
1.7878787878787878
1.7575757575757576
1.7311827956989247
1.7057673509286413
1.6803519061583578
1.653958944281525
1.6265884652981428
1.5992179863147604
1.56891495601173
1.5405669599217986
1.512218963831867
1.479960899315738
1.4437927663734116
1.4066471163245358
1.370478983382209
1.3343108504398826
1.2991202346041055
1.2639296187683284
1.2316715542521994
1.2023460410557183
1.1759530791788857
1.1564027370478984
1.1407624633431086
1.1241446725317692
1.10752688172043
1.0928641251221896
1.0811339198435972
1.0713587487781036
1.064516129032258
1.0596285434995112
1.056695992179863
1.0557184750733135
1.056695992179863
1.0586510263929618
1.064516129032258
1.0713587487781036
1.078201368523949
1.0850439882697946
1.0918866080156402
1.099706744868035
1.1065493646138806
1.1133919843597262
1.121212121212121
1.1290322580645162
1.1358748778103618
1.142717497556207
1.1485826001955035
1.1544477028347997
1.1573802541544478
1.1573802541544478
1.1544477028347997
1.1495601173020529
1.142717497556207
1.1348973607038124
1.126099706744868
1.1143695014662756
1.1026392961876832
1.0918866080156402
1.0811339198435972
1.0742913000977516
1.0703812316715542
1.064516129032258
1.0596285434995112
1.0547409579667644
1.0518084066471165
1.0488758553274682
1.0469208211143697
1.0469208211143697
1.0488758553274682
1.053763440860215
1.0606060606060606
1.0703812316715542
1.0821114369501466
1.0957966764418376
1.1114369501466277
1.1300097751710656
1.1534701857282503
1.1867057673509287
1.2346041055718475
1.3010752688172045
1.3890518084066472
1.500488758553275
1.6314760508308896
1.7556207233626588
1.8758553274682308
2.0146627565982405
2.155425219941349
2.2873900293255134
2.403714565004888
2.5004887585532747
2.578690127077224
2.6402737047898337
2.687194525904203
2.7233626588465296
2.7517106549364616
2.774193548387097
2.7859237536656893
2.790811339198436
2.7976539589442817
2.850439882697948
2.921798631476051
2.948191593352884
2.948191593352884
2.929618768328446
2.8963831867057674
2.849462365591398
2.790811339198436
2.721407624633431
2.6510263929618767
2.5777126099706744
2.4946236559139785
2.4086021505376345
2.321603128054741
2.2375366568914954
2.160312805474096
2.09188660801564
2.03128054740958
1.978494623655914
1.932551319648094
1.89247311827957
1.8563049853372435
1.825024437927664
1.796676441837732
1.7663734115347018
1.7331378299120237
1.6989247311827955
1.6637341153470186
1.6275659824046922
1.5923753665689149
1.560117302052786
1.5288367546432062
1.4975562072336266
1.469208211143695
1.4467253176930597
1.4281524926686218
1.4076246334310851
1.3870967741935485
1.3655913978494625
1.3450635386119256
1.3255131964809383
1.3079178885630498
1.2913000977517106
1.2756598240469208
1.2609970674486803
1.24633431085044
1.2326490713587488
1.2218963831867058
1.2121212121212122
1.2013685239491692
1.1886608015640274
1.1749755620723363
1.1612903225806452
1.147605083088954
1.133919843597263
1.121212121212121
1.1094819159335287
1.0987292277614855
1.0869990224828934
1.0791788856304985
1.072336265884653
1.064516129032258
1.056695992179863
1.0488758553274682
1.0420332355816226
1.0361681329423265
1.0312805474095796
1.0273704789833822
1.0254154447702837
1.024437927663734
1.024437927663734
1.024437927663734
1.0263929618768328
1.0303030303030305
1.032258064516129
1.0332355816226784
1.0332355816226784
1.0342130987292275
1.0371456500488758
1.040078201368524
1.0420332355816226
1.0439882697947214
1.04594330400782
1.04594330400782
1.0478983382209188
1.0498533724340176
1.0498533724340176
1.0478983382209188
1.04594330400782
1.043010752688172
1.0410557184750733
1.040078201368524
1.0391006842619743
1.0410557184750733
1.050830889540567
1.072336265884653
1.110459433040078
1.160312805474096
1.2258064516129032
1.3225806451612905
1.4467253176930597
1.5933528836754642
1.7556207233626588
1.9227761485826005
2.0869990224828934
2.239491691104594
2.3734115347018574
2.4858260019550342
2.578690127077224
2.643206256109482
2.6881720430107525
2.730205278592375
2.7673509286412514
2.7996089931573804
2.8269794721407626
2.850439882697948
2.8690127077223853
2.8836754643206257
2.89247311827957
2.8944281524926687
2.8885630498533725
2.873900293255132
2.850439882697948
2.819159335288368
2.780058651026393
2.732160312805474
2.674486803519061
2.6070381231671558
2.530791788856305
2.4457478005865103
2.355816226783969
2.2639296187683287
2.174975562072336
2.09188660801564
2.022482893450636
1.964809384164223
1.9120234604105573
1.865102639296188
1.8240469208211143
1.7888563049853372
1.7575757575757576
1.729227761485826
1.7008797653958945
1.672531769305963
1.6422287390029326
1.6099706744868034
1.5777126099706744
1.5513196480938416
1.5249266862170088
1.4946236559139785
1.4633431085043989
1.43108504398827
1.3998044965786902
1.3695014662756595
1.3421309872922775
1.316715542521994
1.29227761485826
1.2697947214076246
1.2502443792766371
1.2355816226783969
1.2228739002932552
1.209188660801564
1.195503421309873
1.1808406647116323
1.1671554252199414
1.152492668621701
1.1378299120234605
1.1251221896383188
1.1143695014662756
1.1036168132942326
1.0928641251221896
1.0821114369501466
1.075268817204301
1.0694037145650048
1.06158357771261
1.0527859237536656
1.0439882697947214
1.0361681329423265
1.029325513196481
1.0234604105571847
1.0175953079178883
1.0127077223851415
1.0068426197458455
1.0009775171065494
0.9980449657869012
0.9960899315738024
0.9921798631476052
0.9872922776148584
0.981427174975562
0.9765395894428152
0.9716520039100685
0.9687194525904204
0.9667644183773216
0.9657869012707724
0.9657869012707724
0.9657869012707724
0.967741935483871
0.9706744868035192
0.9726295210166178
0.9736070381231672
0.9736070381231672
0.9736070381231672
0.9736070381231672
0.9736070381231672
0.9736070381231672
0.9736070381231672
0.9736070381231672
0.9736070381231672
0.9736070381231672
0.9765395894428152
0.9804496578690128
0.9853372434017597
0.9941348973607038
1.010752688172043
1.0410557184750733
1.0899315738025417
1.1612903225806452
1.2570869990224829
1.3782991202346042
1.521994134897361
1.6813294232649072
1.8240469208211143
1.9560117302052784
2.099706744868035
2.2385141739980448
2.363636363636364
2.469208211143695
2.555229716520039
2.622678396871945
2.675464320625611
2.716520039100684
2.7497556207233624
2.776148582600196
2.7976539589442817
2.809384164222874
2.8132942326490715
2.819159335288368
2.822091886608016
2.819159335288368
2.8084066471163247
2.789833822091887
2.760508308895406
2.720430107526881
2.670576735092864
2.608993157380254
2.5376344086021505
2.466275659824047
2.3929618768328447
2.310850439882698
2.2248289345063537
2.1388074291300097
2.056695992179863
1.9833822091886608
1.919843597262952
1.866080156402737
1.822091886608016
1.7917888563049853
1.7683284457478006
1.7438905180840665
1.721407624633431
1.7008797653958945
1.6764418377321604
1.651026392961877
1.6236559139784943
1.5943304007820136
1.5650048875855327
1.5356793743890518
1.5053763440860215
1.4750733137829912
1.444770283479961
1.41544477028348
1.3919843597262953
1.3724340175953078
1.3509286412512218
1.3284457478005864
1.3079178885630498
1.289345063538612
1.2717497556207231
1.2551319648093842
1.2394916911045943
1.2258064516129032
1.2140762463343109
1.203323558162268
1.1925708699902249
1.18475073313783
1.1798631476050832
1.1720430107526882
1.1622678396871946
1.1515151515151516
1.141739980449658
1.1329423264907137
1.1251221896383188
1.1173020527859236
1.1094819159335287
1.1026392961876832
1.0948191593352885
1.0899315738025417
1.086021505376344
1.0811339198435972
1.0762463343108504
1.0703812316715542
1.064516129032258
1.0596285434995112
1.0547409579667644
1.050830889540567
1.0469208211143697
1.0439882697947214
1.0420332355816226
1.0410557184750733
1.043010752688172
1.0469208211143697
1.0488758553274682
1.0498533724340176
1.0498533724340176
1.0498533724340176
1.0498533724340176
1.0498533724340176
1.050830889540567
1.0518084066471165
1.0518084066471165
1.0518084066471165
1.0547409579667644
1.0586510263929618
1.0606060606060606
1.06158357771261
1.0625610948191593
1.064516129032258
1.067448680351906
1.072336265884653
1.083088954056696
1.104594330400782
1.1407624633431086
1.1974584555229717
1.2776148582600195
1.3655913978494625
1.4672531769305963
1.5992179863147604
1.750733137829912
1.9130009775171064
2.0733137829912023
2.2238514173998043
2.357771260997068
2.472140762463343
2.5669599217986314
2.6422287390029324
2.7008797653958942
2.73802541544477
2.7614858260019552
2.782991202346041
2.8025415444770285
2.820136852394917
2.834799608993157
2.84652981427175
2.854349951124145
2.855327468230694
2.8484848484848486
2.834799608993157
2.811339198435973
2.776148582600196
2.7341153470185726
2.684261974584555
2.6236559139784945
2.5532746823069403
2.4750733137829912
2.391006842619746
2.304007820136853
2.217986314760508
2.1358748778103616
2.06158357771261
1.9951124144672527
1.93841642228739
1.8944281524926687
1.8592375366568916
1.826001955034213
1.7956989247311828
1.7673509286412512
1.739980449657869
1.7126099706744868
1.683284457478006
1.6529814271749756
1.6226783968719452
1.5913978494623655
1.5591397849462365
1.5278592375366569
1.5024437927663734
1.479960899315738
1.455522971652004
1.4301075268817205
1.404692082111437
1.3792766373411536
1.3548387096774193
1.3313782991202343
1.3088954056695992
1.2883675464320623
1.270772238514174
1.2531769305962854
1.2404692082111437
1.2316715542521994
1.2228739002932552
1.2140762463343109
1.203323558162268
1.1915933528836755
1.1798631476050832
1.1671554252199414
1.155425219941349
1.144672531769306
1.1348973607038124
1.1270772238514175
1.1192570869990224
1.1133919843597262
1.110459433040078
1.1055718475073313
1.099706744868035
1.0928641251221896
1.0869990224828934
1.0821114369501466
1.0772238514173995
1.0733137829912025
1.0684261974584557
1.0635386119257086
1.0596285434995112
1.0596285434995112
1.0606060606060606
1.0596285434995112
1.0596285434995112
1.0586510263929618
1.0576735092864125
1.056695992179863
1.0557184750733135
1.0557184750733135
1.0557184750733135
1.0576735092864125
1.0596285434995112
1.0625610948191593
1.067448680351906
1.0713587487781036
1.0742913000977516
1.0811339198435972
1.0948191593352885
1.1202346041055715
1.163245356793744
1.227761485826002
1.316715542521994
1.4291300097751711
1.563049853372434
1.710654936461388
1.844574780058651
1.9687194525904204
2.102639296187683
2.23069403714565
2.3440860215053765
2.4408602150537635
2.5190615835777126
2.5806451612903225
2.6285434995112413
2.665689149560117
2.695014662756598
2.718475073313783
2.7311827956989245
2.73802541544477
2.745845552297165
2.7517106549364616
2.752688172043011
2.748778103616813
2.736070381231672
2.713587487781036
2.6803519061583576
2.636363636363636
2.5835777126099706
2.520039100684262
2.44672531769306
2.375366568914956
2.304007820136853
2.2248289345063537
2.1436950146627565
2.064516129032258
1.9931573802541545
1.9296187683284456
1.873900293255132
1.827956989247312
1.7898338220918866
1.7575757575757576
1.7282502443792769
1.7038123167155426
1.6823069403714566
1.6578690127077225
1.6314760508308896
1.6041055718475072
1.5757575757575757
1.5454545454545454
1.5141739980449658
1.4819159335288368
1.4506353861192571
1.4193548387096775
1.3900293255131966
1.3626588465298142
1.3411534701857282
1.3235581622678396
1.3040078201368523
1.2854349951124144
1.267839687194526
1.2502443792766371
1.2346041055718475
1.219941348973607
1.2052785923753666
1.1906158357771262
1.176930596285435
1.164222873900293
1.155425219941349
1.1485826001955035
1.1407624633431086
1.1319648093841643
1.115347018572825
1.0948191593352885
1.0801564027370478
1.0684261974584557
1.056695992179863
1.0469208211143697
1.0381231671554252
1.0283479960899315
1.0195503421309873
1.0156402737047898
1.0127077223851415
1.007820136852395
1.002932551319648
0.9980449657869012
0.9931573802541545
0.9882697947214076
0.9833822091886608
0.9804496578690128
0.9775171065493646
0.9745845552297164
0.9716520039100685
0.9716520039100685
0.9736070381231672
0.9736070381231672
0.9726295210166178
0.9726295210166178
0.9726295210166178
0.9745845552297164
0.9775171065493646
0.9804496578690128
0.9843597262952102
0.9872922776148584
0.989247311827957
0.9921798631476052
0.9960899315738024
1.0009775171065494
1.0048875855327468
1.007820136852395
1.0097751710654936
1.0117302052785924
1.013685239491691
1.0156402737047898
1.0195503421309873
1.024437927663734
1.029325513196481
1.0332355816226784
1.0391006842619743
1.0449657869012707
1.0488758553274682
1.0527859237536656
1.0606060606060606
1.075268817204301
1.1016617790811338
1.1466275659824048
1.2189638318670577
1.321603128054741
1.455522971652004
1.616813294232649
1.7976539589442817
1.962854349951124
2.117302052785924
2.286412512218964
2.4486803519061584
2.5943304007820136
2.716520039100684
2.81622678396872
2.8963831867057674
2.9589442815249267
3.007820136852395
3.047898338220919
3.081133919843597
3.099706744868035
3.1094819159335287
3.1221896383186705
3.132942326490713
3.1388074291300097
3.1378299120234603
3.1280547409579667
3.1094819159335287
3.080156402737048
3.0391006842619745
2.986314760508309
2.9227761485826003
2.8484848484848486
2.7722385141739982
2.6930596285435
2.6041055718475072
2.5112414467253177
2.4164222873900294
2.3255131964809386
2.242424242424242
2.1681329423264906
2.103616813294233
2.048875855327468
2.002932551319648
1.962854349951124
1.9305962854349952
1.900293255131965
1.869012707722385
1.835777126099707
1.801564027370479
1.7663734115347018
1.7302052785923754
1.6920821114369502
1.653958944281525
1.616813294232649
1.5796676441837731
1.542521994134897
1.5053763440860215
1.4750733137829912
1.4496578690127078
1.4222873900293256
1.3958944281524928
1.370478983382209
1.3479960899315735
1.3284457478005864
1.310850439882698
1.295210166177908
1.2805474095796676
1.2658846529814272
1.2502443792766371
1.238514173998045
1.2297165200391007
1.2189638318670577
1.2072336265884651
1.1945259042033236
1.1827956989247312
1.1700879765395895
1.1564027370478984
1.1436950146627567
1.1329423264907137
1.1231671554252198
1.1143695014662756
1.1085043988269794
1.104594330400782
1.0987292277614855
1.0918866080156402
1.0840664711632453
1.0762463343108504
1.0684261974584557
1.0606060606060606
1.0527859237536656
1.04594330400782
1.0410557184750733
1.0381231671554252
1.0361681329423265
1.0371456500488758
1.0391006842619743
1.0381231671554252
1.0371456500488758
1.0371456500488758
1.0371456500488758
1.0371456500488758
1.0371456500488758
1.0361681329423265
1.0342130987292275
1.0332355816226784
1.032258064516129
1.0342130987292275
1.0361681329423265
1.0361681329423265
1.0361681329423265
1.0361681329423265
1.0361681329423265
1.0361681329423265
1.0361681329423265
1.0371456500488758
1.0391006842619743
1.04594330400782
1.06158357771261
1.0899315738025417
1.1280547409579669
1.181818181818182
1.2639296187683284
1.375366568914956
1.512218963831867
1.6695992179863148
1.8406647116324533
2.01564027370479
2.185728250244379
2.3411534701857284
2.4780058651026398
2.593352883675464
2.675464320625611
2.7331378299120237
2.78494623655914
2.8299120234604107
2.8670576735092865
2.898338220918866
