ppg
1.2590420332355816
1.2619745845552297
1.2658846529814272
1.270772238514174
1.2766373411534702
1.2834799608993157
1.2903225806451613
1.2981427174975562
1.3069403714565004
1.316715542521994
1.3264907135874875
1.3343108504398826
1.3421309872922775
1.348973607038123
1.35386119257087
1.3548387096774193
1.35386119257087
1.3519061583577712
1.3548387096774193
1.3685239491691104
1.4037145650048877
1.4672531769305963
1.5620723362658846
1.6881720430107527
1.8162267839687196
1.949169110459433
2.104594330400782
2.2639296187683287
2.412512218963832
2.5405669599217986
2.644183773216031
2.724340175953079
2.7810361681329425
2.817204301075269
2.8377321603128056
2.84652981427175
2.84652981427175
2.8367546432062563
2.822091886608016
2.807429130009776
2.792766373411535
2.7781036168132944
2.7624633431085046
2.744868035190616
2.7262952101661777
2.704789833822092
2.681329423264907
2.654936461388074
2.625610948191593
2.593352883675464
2.560117302052786
2.52297165200391
2.482893450635386
2.4389051808406648
2.3900293255131966
2.3362658846529816
2.27761485826002
2.212121212121212
2.139784946236559
2.060606060606061
1.9775171065493649
1.89247311827957
1.818181818181818
1.75366568914956
1.6911045943304008
1.6373411534701858
1.5943304007820136
1.564027370478983
1.544477028347996
1.5327468230694037
1.5268817204301075
1.521994134897361
1.5180840664711632
1.5131964809384164
1.509286412512219
1.504398826979472
1.4965786901270772
1.4868035190615836
1.4750733137829912
1.4623655913978495
1.4486803519061584
1.4330400782013686
1.4173998044965788
1.401759530791789
1.3861192570869991
1.3695014662756595
1.3528836754643203
1.3391984359726294
1.3284457478005864
1.3147605083088951
1.300097751710655
1.224828934506354
1.1192570869990224
1.0625610948191593
1.0312805474095796
1.0146627565982405
1.0068426197458455
1.002932551319648
1.0019550342130987
1.0048875855327468
1.0097751710654936
1.0156402737047898
1.021505376344086
1.029325513196481
1.0381231671554252
1.0469208211143697
1.0576735092864125
1.0703812316715542
1.086021505376344
1.1026392961876832
1.1192570869990224
1.1358748778103618
1.1505376344086022
1.163245356793744
1.1720430107526882
1.176930596285435
1.1798631476050832
1.1857282502443791
1.2023460410557183
1.2375366568914956
1.3010752688172045
1.3978494623655917
1.5268817204301075
1.6823069403714566
1.828934506353861
1.9687194525904204
2.120234604105572
2.2639296187683287
2.388074291300098
2.487781036168133
2.5610948191593352
2.608993157380254
2.634408602150537
2.641251221896383
2.633431085043988
2.6158357771261
2.590420332355816
2.5610948191593352
2.5288367546432062
2.496578690127077
2.464320625610948
2.432062561094819
2.398826979472141
2.364613880742913
2.329423264907136
2.29227761485826
2.2521994134897363
2.209188660801564
2.163245356793744
2.118279569892473
2.071358748778104
2.01564027370479
1.95405669599218
1.8856304985337244
1.8113391984359728
1.729227761485826
1.6392961876832846
1.541544477028348
1.436950146627566
1.3264907135874875
1.2130987292277615
1.1173020527859236
1.0342130987292275
0.9491691104594332
0.8719452590420332
0.8084066471163245
0.7585532746823069
0.7233626588465298
0.6989247311827957
0.6823069403714564
0.6695992179863147
0.6598240469208211
0.6500488758553274
0.6412512218963832
0.6373411534701857
0.6363636363636364
0.6334310850439883
0.6304985337243402
0.6285434995112414
0.6265884652981427
0.624633431085044
0.6226783968719453
0.6207233626588465
0.6168132942326491
0.6129032258064516
0.6080156402737048
0.6070381231671554
0.6060606060606061
0.6001955034213099
0.592375366568915
0.5826001955034213
0.5718475073313783
0.5620723362658846
0.552297165200391
0.544477028347996
0.5386119257086999
0.533724340175953
0.530791788856305
0.5288367546432062
0.530791788856305
0.5356793743890518
0.5386119257086999
0.541544477028348
0.544477028347996
0.5483870967741935
0.5542521994134897
0.5620723362658846
0.5728250244379277
0.5845552297165201
0.5972629521016618
0.6099706744868035
0.6236559139784946
0.6373411534701857
0.6490713587487781
0.6578690127077224
0.6656891495601173
0.6764418377321603
0.6959921798631477
0.7321603128054741
0.7947214076246334
0.8924731182795699
1.0283479960899315
1.2003910068426198
1.4007820136852396
1.587487781036168
1.7644183773216031
1.9560117302052784
2.1407624633431084
2.303030303030303
2.4379276637341154
2.544477028347996
2.6236559139784945
2.679374389051808
2.716520039100684
2.7370478983382207
2.744868035190616
2.740957966764418
2.7282502443792764
2.7116324535679373
2.69208211143695
2.670576735092864
2.6471163245356792
2.622678396871945
2.5962854349951123
2.565982404692082
2.5317693059628543
2.4946236559139785
2.452590420332356
2.404692082111437
2.355816226783969
2.304007820136853
2.241446725317693
2.1681329423264906
2.0840664711632453
1.9902248289345064
1.8885630498533723
1.7810361681329423
1.6735092864125125
1.5708699902248289
1.478005865102639
1.4007820136852396
1.3450635386119256
1.305962854349951
1.2756598240469208
1.2541544477028348
1.238514173998045
1.2258064516129032
1.2140762463343109
1.2023460410557183
1.1886608015640274
1.1730205278592376
1.1564027370478984
1.1407624633431086
1.126099706744868
1.115347018572825
1.1065493646138806
1.096774193548387
1.0850439882697946
1.0733137829912025
1.0606060606060606
1.0469208211143697
1.0312805474095796
1.0146627565982405
0.9980449657869012
0.9804496578690128
0.9628543499511242
0.9491691104594332
0.93841642228739
0.9257086999022482
0.9120234604105572
0.8993157380254154
0.8875855327468231
0.8748778103616813
0.863147605083089
0.8504398826979472
0.8387096774193549
0.8279569892473119
0.8172043010752689
0.8074291300097751
0.8025415444770283
0.8005865102639296
0.7956989247311828
0.7898338220918866
0.782991202346041
0.7781036168132942
0.7751710654936461
0.7751710654936461
0.7771260997067448
0.7810361681329423
0.7859237536656891
0.7908113391984359
0.7966764418377321
0.8025415444770283
0.8064516129032258
0.8142717497556208
0.8357771260997068
0.8807429130009775
0.9608993157380256
1.0811339198435972
1.2434017595307918
1.4408602150537635
1.6608015640273706
1.8885630498533723
2.10752688172043
2.2825024437927666
2.4222873900293256
2.552297165200391
2.66177908113392
2.747800586510264
2.812316715542522
2.857282502443793
2.887585532746823
2.9071358748778104
2.917888563049853
2.920821114369501
2.917888563049853
2.9071358748778104
2.8914956011730206
2.875855327468231
2.857282502443793
2.835777126099707
2.811339198435973
2.7839687194525906
2.7517106549364616
2.7155425219941347
2.675464320625611
2.63049853372434
2.616813294232649
2.622678396871945
2.6021505376344085
2.5620723362658846
2.509286412512219
2.444770283479961
2.3704789833822093
2.2854349951124147
2.193548387096774
2.0977517106549364
2.0019550342130987
1.9120234604105573
1.83088954056696
1.761485826001955
1.7116324535679377
1.6764418377321604
1.6471163245356797
1.624633431085044
1.607038123167155
1.5923753665689149
1.5786901270772238
1.565982404692082
1.5532746823069403
1.5405669599217986
1.5288367546432062
1.5180840664711632
1.5102639296187683
1.504398826979472
1.4965786901270772
1.487781036168133
1.479960899315738
1.4721407624633431
1.4643206256109482
1.457478005865103
1.4506353861192571
1.444770283479961
1.439882697947214
1.4349951124144673
1.43108504398827
1.4301075268817205
1.4301075268817205
1.4291300097751711
1.4271749755620724
1.426197458455523
1.4242424242424243
1.4222873900293256
1.4193548387096775
1.4164222873900294
1.414467253176931
1.412512218963832
1.4105571847507332
1.4115347018572826
1.4134897360703813
1.414467253176931
1.41544477028348
1.41544477028348
1.41544477028348
1.41544477028348
1.4164222873900294
1.418377321603128
1.4213098729227762
1.4242424242424243
1.4271749755620724
1.4271749755620724
1.4271749755620724
1.4271749755620724
1.426197458455523
1.4301075268817205
1.4467253176930597
1.4848484848484849
1.552297165200391
1.653958944281525
1.7878787878787878
1.9472140762463344
2.1221896383186705
2.2991202346041058
2.4457478005865103
2.56891495601173
2.689149560117302
2.7947214076246336
2.8807429130009776
2.946236559139785
2.994134897360704
3.026392961876833
3.04594330400782
3.0547409579667644
3.0557184750733137
3.0518084066471163
3.043010752688172
3.029325513196481
3.0117302052785924
2.994134897360704
2.975562072336266
2.956989247311828
2.936461388074292
2.913000977517106
2.887585532746823
2.860215053763441
2.8299120234604107
2.7966764418377323
2.7595307917888565
2.721407624633431
2.681329423264907
2.634408602150537
2.581622678396872
2.5219941348973607
2.4545454545454546
2.3812316715542523
2.3010752688172045
2.217986314760508
2.1358748778103616
2.0576735092864125
1.9872922776148585
1.927663734115347
1.884652981427175
1.855327468230694
1.8328445747800584
1.8191593352883677
1.812316715542522
1.8093841642228736
1.8084066471163245
1.8074291300097751
1.8054740957966764
1.801564027370479
1.796676441837732
1.790811339198436
1.7859237536656891
1.7810361681329423
1.7741935483870968
1.7663734115347018
1.758553274682307
1.750733137829912
1.7438905180840665
1.7360703812316716
1.729227761485826
1.721407624633431
1.7135874877810362
1.7057673509286413
1.6989247311827955
1.694037145650049
1.6901270772238517
1.6852394916911049
1.6803519061583578
1.6764418377321604
1.6735092864125125
1.6715542521994136
1.6705767350928642
1.6705767350928642
1.672531769305963
1.6764418377321604
1.6813294232649072
1.6881720430107527
1.6950146627565983
1.7018572825024438
1.710654936461388
1.7204301075268815
1.7302052785923754
1.7390029325513197
1.7487781036168133
1.7595307917888563
1.7702834799608993
1.7790811339198436
1.7869012707722385
1.7927663734115349
1.7976539589442817
1.804496578690127
1.8172043010752688
1.8406647116324533
1.881720430107527
1.9423264907135875
2.0234604105571847
2.1221896383186705
2.231671554252199
2.343108504398827
2.449657869012708
2.5434995112414467
2.6129032258064515
2.662756598240469
2.7067448680351904
2.740957966764418
2.7653958944281527
2.7810361681329425
2.790811339198436
2.7947214076246336
2.795698924731183
2.793743890518084
2.789833822091887
2.78494623655914
2.7781036168132944
2.7673509286412514
2.7536656891495603
2.740957966764418
2.7262952101661777
2.7096774193548385
2.6901270772238512
2.6666666666666665
2.6392961876832843
2.608993157380254
2.5747800586510263
2.536656891495601
2.4946236559139785
2.452590420332356
2.4086021505376345
2.356793743890518
2.297165200391007
2.2297165200391005
2.1544477028347995
2.0733137829912023
1.986314760508309
1.8983382209188664
1.812316715542522
1.7302052785923754
1.6578690127077225
1.6050830889540566
1.5669599217986314
1.5356793743890518
1.512218963831867
1.4975562072336266
1.4887585532746823
1.482893450635386
1.479960899315738
1.47702834799609
1.474095796676442
1.4711632453567938
1.4672531769305963
1.4633431085043989
1.4613880742913
1.4594330400782014
1.4545454545454546
1.447702834799609
1.4389051808406648
1.4281524926686218
1.41544477028348
1.4007820136852396
1.3841642228739004
1.3655913978494625
1.3470185728250244
1.3294232649071358
1.3157380254154447
1.3049853372434017
1.29227761485826
1.2795698924731185
1.267839687194526
1.2570869990224829
1.2473118279569892
1.2394916911045943
1.2326490713587488
1.2258064516129032
1.219941348973607
1.2140762463343109
1.209188660801564
1.2072336265884651
1.2072336265884651
1.206256109481916
1.206256109481916
1.2072336265884651
1.160312805474096
1.0909090909090908
1.0635386119257086
1.0576735092864125
1.0635386119257086
1.075268817204301
1.0879765395894427
1.1006842619745845
1.1114369501466277
1.1202346041055715
1.1300097751710656
1.1495601173020529
1.1867057673509287
1.2502443792766371
1.3470185728250244
1.47702834799609
1.6363636363636365
1.8162267839687196
2.003910068426197
2.1867057673509285
2.333333333333333
2.450635386119257
2.5610948191593352
2.652003910068426
2.721407624633431
2.76930596285435
2.798631476050831
2.814271749755621
2.8181818181818183
2.8132942326490715
2.801564027370479
2.7859237536656893
2.766373411534702
2.744868035190616
2.7233626588465296
2.7008797653958942
2.67644183773216
2.650048875855328
2.621700879765396
2.591397849462365
2.557184750733138
2.520039100684262
2.4789833822091887
2.434017595307918
2.3851417399804498
2.337243401759531
2.2883675464320627
2.231671554252199
2.1681329423264906
2.0977517106549364
2.018572825024438
1.932551319648094
1.842619745845552
1.750733137829912
1.66177908113392
1.5806451612903225
1.5102639296187683
1.4594330400782014
1.423264907135875
1.3958944281524928
1.3763440860215057
1.364613880742913
1.3577712609970674
1.35386119257087
1.3499511241446724
1.346041055718475
1.343108504398827
1.3421309872922775
1.3411534701857282
1.3401759530791788
1.3401759530791788
1.3411534701857282
1.3391984359726294
1.335288367546432
1.327468230694037
1.3176930596285434
1.305962854349951
1.2932551319648091
1.2795698924731185
1.2649071358748778
1.2512218963831867
1.2375366568914956
1.227761485826002
1.219941348973607
1.2111436950146628
1.2023460410557183
1.1935483870967742
1.1857282502443791
1.1788856304985338
1.1730205278592376
1.1691104594330402
1.166177908113392
1.164222873900293
1.163245356793744
1.163245356793744
1.166177908113392
1.1700879765395895
1.173998044965787
1.1779081133919844
1.1827956989247312
1.1886608015640274
1.195503421309873
1.2023460410557183
1.2101661779081134
1.2160312805474096
1.2209188660801564
1.2228739002932552
1.2258064516129032
1.227761485826002
1.2297165200391007
1.2375366568914956
1.2609970674486803
1.3088954056695992
1.3890518084066472
1.5034213098729228
1.6490713587487782
1.818181818181818
1.9980449657869013
2.176930596285435
2.3421309872922778
2.469208211143695
2.5650048875855327
2.652003910068426
2.7223851417399803
2.773216031280548
2.806451612903226
2.825024437927664
2.831867057673509
2.8299120234604107
2.820136852394917
2.8054740957966766
2.787878787878788
2.766373411534702
2.742913000977517
2.719452590420332
2.696969696969697
2.673509286412512
2.6480938416422286
2.6207233626588464
2.590420332355816
2.557184750733138
2.5190615835777126
2.4780058651026398
2.432062561094819
2.3822091886608017
2.333333333333333
2.2825024437927666
2.2218963831867056
2.15347018572825
2.0762463343108504
1.992179863147605
1.902248289345064
1.8093841642228736
1.718475073313783
1.632453567937439
1.5562072336265884
1.4926686217008798
1.4486803519061584
1.4203323558162269
1.3998044965786902
1.388074291300098
1.3822091886608017
1.3792766373411536
1.3763440860215057
1.3724340175953078
1.3685239491691104
1.3626588465298142
1.356793743890518
1.3509286412512218
1.3450635386119256
1.3411534701857282
1.33822091886608
1.3333333333333333
1.3255131964809383
1.3157380254154447
1.3049853372434017
1.2932551319648091
1.2805474095796676
1.2668621700879763
1.2531769305962854
1.2404692082111437
1.2267839687194526
1.217008797653959
1.209188660801564
1.198435972629521
1.1867057673509287
1.1749755620723363
1.164222873900293
1.1544477028347997
1.144672531769306
1.1348973607038124
1.1251221896383188
1.115347018572825
1.1055718475073313
1.099706744868035
1.0957966764418376
1.0899315738025417
1.083088954056696
1.0762463343108504
1.0694037145650048
1.0654936461388074
1.064516129032258
1.067448680351906
1.0733137829912025
1.0811339198435972
1.0899315738025417
1.096774193548387
1.1036168132942326
1.110459433040078
1.1163245356793745
1.1290322580645162
1.1564027370478984
1.2082111436950147
1.2913000977517106
1.409579667644184
1.560117302052786
1.7350928641251222
1.9237536656891496
2.1114369501466275
2.2668621700879767
2.393939393939394
2.517106549364614
2.622678396871945
2.7067448680351904
2.76930596285435
2.812316715542522
2.8406647116324537
2.855327468230694
2.8611925708699903
2.8582600195503423
2.850439882697948
2.838709677419355
2.822091886608016
2.8044965786901277
2.7869012707722387
2.76930596285435
2.750733137829912
2.730205278592375
2.7067448680351904
2.6803519061583576
2.650048875855328
2.6148582600195502
2.575757575757576
2.530791788856305
2.4838709677419355
2.4359726295210167
2.380254154447703
2.3167155425219943
2.2453567937438903
2.166177908113392
2.0791788856304985
1.9872922776148585
1.8914956011730208
1.796676441837732
1.70772238514174
1.6275659824046922
1.5650048875855327
1.52297165200391
1.4916911045943304
1.4643206256109482
1.4437927663734116
1.4271749755620724
1.4134897360703813
1.3998044965786902
1.3861192570869991
1.3714565004887584
1.3548387096774193
1.3372434017595307
1.3186705767350928
1.3040078201368523
1.29227761485826
1.2766373411534702
1.2609970674486803
1.2453567937438903
1.2297165200391007
1.2140762463343109
1.1994134897360704
1.18475073313783
1.1710654936461389
1.1583577712609971
1.147605083088954
1.1368523949169111
1.1300097751710656
1.126099706744868
1.1221896383186705
1.118279569892473
1.1173020527859236
1.118279569892473
1.1221896383186705
1.1280547409579669
1.1348973607038124
1.142717497556207
1.1515151515151516
1.1612903225806452
1.173998044965787
1.1906158357771262
1.2121212121212122
1.238514173998045
1.2697947214076246
1.305962854349951
1.346041055718475
1.3870967741935485
1.426197458455523
1.4594330400782014
1.4848484848484849
1.498533724340176
1.500488758553275
1.495601173020528
1.4838709677419355
1.466275659824047
1.4496578690127078
1.4457478005865103
1.4633431085043989
1.5112414467253177
1.5933528836754642
1.7086999022482894
1.8494623655913975
2.003910068426197
2.160312805474096
2.290322580645161
2.396871945259042
2.5004887585532747
2.591397849462365
2.664711632453568
2.721407624633431
2.763440860215054
2.792766373411535
2.811339198435973
2.8211143695014664
2.8240469208211145
2.822091886608016
2.81622678396872
2.8054740957966766
2.790811339198436
2.776148582600196
2.7595307917888565
2.739980449657869
2.716520039100684
2.6901270772238512
2.6608015640273703
2.625610948191593
2.5865102639296187
2.544477028347996
2.4975562072336266
2.450635386119257
2.401759530791789
2.3440860215053765
2.2795698924731185
2.2082111436950145
2.1280547409579667
2.0410557184750733
1.948191593352884
1.8543499511241448
1.761485826001955
1.6764418377321604
1.603128054740958
1.5464320625610948
1.509286412512219
1.487781036168133
1.47702834799609
1.4760508308895406
1.479960899315738
1.4858260019550342
1.490713587487781
1.490713587487781
1.4868035190615836
1.478005865102639
1.4652981427174976
1.4506353861192571
1.4379276637341154
1.4252199413489737
1.4086021505376345
1.3900293255131966
1.3695014662756595
1.3499511241446724
1.3304007820136852
1.310850439882698
1.2913000977517106
1.2727272727272727
1.2551319648093842
1.2375366568914956
1.2209188660801564
1.2101661779081134
1.2023460410557183
1.1945259042033236
1.1857282502443791
1.1779081133919844
1.1720430107526882
1.1671554252199414
1.164222873900293
1.1612903225806452
1.1593352883675463
1.1573802541544478
1.155425219941349
1.1564027370478984
1.1583577712609971
1.1593352883675463
1.1612903225806452
1.164222873900293
1.1710654936461389
1.1808406647116323
1.1925708699902249
1.2072336265884651
1.2228739002932552
1.238514173998045
1.2531769305962854
1.2658846529814272
1.2756598240469208
1.2825024437927663
1.2873900293255132
1.2971652003910068
1.3206256109481915
1.3665689149560116
1.444770283479961
1.5591397849462365
1.70772238514174
1.8826979472140764
2.072336265884653
2.26197458455523
2.419354838709677
2.547409579667644
2.670576735092864
2.776148582600196
2.8582600195503423
2.917888563049853
2.956989247311828
2.979472140762464
2.989247311827957
2.9902248289345064
2.983382209188661
2.9716520039100685
2.9550342130987293
2.9345063538611926
2.9159335288367547
2.897360703812317
2.878787878787879
2.8582600195503423
2.834799608993157
2.8084066471163247
2.7781036168132944
2.744868035190616
2.7067448680351904
2.664711632453568
2.6177908113391983
2.570869990224829
2.5210166177908118
2.462365591397849
2.396871945259042
2.32355816226784
2.241446725317693
2.1515151515151514
2.0557184750733137
1.9560117302052784
1.857282502443793
1.7634408602150538
1.6774193548387095
1.6109481915933528
1.5591397849462365
1.512218963831867
1.474095796676442
1.4428152492668622
1.41544477028348
1.3900293255131966
1.364613880742913
1.3372434017595307
1.3088954056695992
1.2776148582600195
1.2453567937438903
1.2130987292277615
1.1867057673509287
1.163245356793744
1.133919843597263
1.1016617790811338
1.0684261974584557
1.0342130987292275
0.9990224828934506
0.9638318670576737
0.9296187683284456
0.8973607038123167
0.8660801564027371
0.8367546432062561
0.8162267839687195
0.8005865102639296
0.7810361681329423
0.7605083088954057
0.7409579667644184
0.7223851417399805
0.7047898338220919
0.6901270772238515
0.6774193548387096
0.6666666666666666
0.6588465298142717
0.6520039100684262
0.64613880742913
0.64613880742913
0.6480938416422287
0.6471163245356794
0.6451612903225806
0.6412512218963832
0.6373411534701857
0.6344086021505376
0.6334310850439883
0.6344086021505376
0.6383186705767351
0.6451612903225806
0.6549364613880743
0.667644183773216
0.6823069403714564
0.6920821114369502
0.6989247311827957
0.7038123167155426
0.7086999022482894
0.8084066471163245
0.9657869012707724
1.0801564027370478
1.1915933528836755
1.3206256109481915
1.47702834799609
1.6578690127077225
1.8269794721407624
1.988269794721408
2.166177908113392
2.3391984359726297
2.4946236559139785
2.6265884652981426
2.7341153470185726
2.817204301075269
2.8797653958944283
2.924731182795699
2.9550342130987293
2.973607038123167
2.978494623655914
2.9765395894428157
2.9716520039100685
2.964809384164223
2.95405669599218
2.940371456500489
2.924731182795699
2.9071358748778104
2.886608015640274
2.8641251221896384
2.838709677419355
2.8103616813294234
2.779081133919844
2.7468230694037143
2.710654936461388
2.6695992179863146
2.6236559139784945
2.5698924731182795
2.5083088954056696
2.4389051808406648
2.361681329423265
2.27761485826002
2.189638318670577
2.102639296187683
2.021505376344086
1.9560117302052784
1.9042033235581624
1.8592375366568916
1.8240469208211143
1.8005865102639296
1.7849462365591398
1.7741935483870968
1.7653958944281525
1.7556207233626588
1.7448680351906158
1.7331378299120237
1.718475073313783
1.7028347996089932
1.6901270772238517
1.6774193548387095
1.66177908113392
1.6451612903225807
1.6285434995112416
1.611925708699902
1.595307917888563
1.5777126099706744
1.560117302052786
1.542521994134897
1.5249266862170088
1.5073313782991202
1.4946236559139785
1.4838709677419355
1.4721407624633431
1.4604105571847508
1.4496578690127078
1.439882697947214
1.43108504398827
1.4242424242424243
1.4173998044965788
1.4115347018572826
1.4066471163245358
1.4037145650048877
1.4027370478983383
1.4037145650048877
1.4066471163245358
1.4086021505376345
1.4105571847507332
1.4134897360703813
1.4164222873900294
1.4203323558162269
1.426197458455523
1.434017595307918
1.4428152492668622
1.4545454545454546
1.4672531769305963
1.479960899315738
1.4926686217008798
1.5034213098729228
1.5112414467253177
1.517106549364614
1.521994134897361
1.5298142717497556
1.547409579667644
1.5826001955034212
1.643206256109482
1.7331378299120237
1.8523949169110456
1.9951124144672527
2.131964809384164
2.2629521016617797
2.4086021505376345
2.549364613880743
2.675464320625611
2.7810361681329425
2.8641251221896384
2.9266862170087977
2.970674486803519
2.99902248289345
3.01564027370479
3.022482893450636
3.018572825024438
3.0087976539589443
2.9980449657869013
2.9853372434017595
2.9716520039100685
2.956011730205278
2.93841642228739
2.919843597262952
2.9012707722385143
2.8807429130009776
2.8582600195503423
2.834799608993157
2.8084066471163247
2.7810361681329425
2.7517106549364616
2.721407624633431
