ppg
2.9745845552297165
2.93841642228739
2.895405669599218
2.844574780058651
2.7869012707722387
2.7233626588465296
2.654936461388074
2.581622678396872
2.505376344086021
2.426197458455523
2.345063538611926
2.2629521016617797
2.1915933528836757
2.126099706744868
2.0527859237536656
1.978494623655914
1.905180840664712
1.833822091886608
1.7644183773216031
1.6989247311827955
1.6383186705767352
1.5806451612903225
1.5249266862170088
1.4731182795698925
1.434017595307918
1.4027370478983383
1.3695014662756595
1.3401759530791788
1.3157380254154447
1.2981427174975562
1.289345063538612
1.2913000977517106
1.3049853372434017
1.3304007820136852
1.367546432062561
1.414467253176931
1.469208211143695
1.5239491691104594
1.5806451612903225
1.6441837732160314
1.7126099706744868
1.7839687194525904
1.8563049853372435
1.9305962854349952
2.004887585532747
2.0772238514174
2.1485826001955037
2.219941348973607
2.290322580645161
2.3499511241446727
2.403714565004888
2.463343108504399
2.52297165200391
2.581622678396872
2.638318670576735
2.6901270772238512
2.735092864125122
2.773216031280548
2.8044965786901277
2.8289345063538613
2.8475073313782997
2.86217008797654
2.8699902248289346
2.874877810361681
2.881720430107527
2.8905180840664717
2.898338220918866
2.905180840664712
2.9120234604105573
2.9159335288367547
2.916911045943304
2.913978494623656
2.9071358748778104
2.8944281524926687
2.87683284457478
2.852394916911046
2.822091886608016
2.78494623655914
2.739980449657869
2.6881720430107525
2.6295210166177907
2.5640273704789838
2.493646138807429
2.418377321603128
2.3391984359726297
2.2580645161290325
2.174975562072336
2.102639296187683
2.034213098729228
1.956989247311828
1.8758553274682308
1.793743890518084
1.7126099706744868
1.635386119257087
1.560117302052786
1.4887585532746823
1.4213098729227762
1.3587487781036167
1.300097751710655
1.2561094819159335
1.2209188660801564
1.1808406647116323
1.141739980449658
1.1065493646138806
1.0762463343108504
1.0527859237536656
1.0371456500488758
1.0303030303030305
1.0342130987292275
1.0488758553274682
1.0742913000977516
1.10752688172043
1.147605083088954
1.1964809384164223
1.2531769305962854
1.3157380254154447
1.383186705767351
1.452590420332356
1.521994134897361
1.5923753665689149
1.664711632453568
1.737047898338221
1.8093841642228736
1.8836754643206255
1.9501466275659824
2.0117302052785924
2.080156402737048
2.1495601173020527
2.218963831867057
2.2854349951124147
2.3499511241446727
2.409579667644184
2.464320625610948
2.5141739980449658
2.557184750733138
2.5943304007820136
2.6207233626588464
2.6402737047898337
2.659824046920821
2.679374389051808
2.697947214076246
2.716520039100684
2.736070381231672
2.755620723362659
2.7751710654936463
2.793743890518084
2.811339198435973
2.8269794721407626
2.838709677419355
2.8426197458455524
2.841642228739003
2.835777126099707
2.825024437927664
2.8084066471163247
2.78494623655914
2.7536656891495603
2.716520039100684
2.6725317693059627
2.621700879765396
2.5650048875855327
2.5034213098729228
2.44672531769306
2.3919843597262958
2.3284457478005867
2.26197458455523
2.1945259042033234
2.126099706744868
2.059628543499511
1.9951124144672527
1.9335288367546437
1.8758553274682308
1.8211143695014664
1.7712609970674489
1.726295210166178
1.6930596285434996
1.667644183773216
1.643206256109482
1.6207233626588464
1.603128054740958
1.5913978494623655
1.585532746823069
1.585532746823069
1.5923753665689149
1.607038123167155
1.6285434995112416
1.6578690127077225
1.6911045943304008
1.7272727272727273
1.772238514173998
1.825024437927664
1.884652981427175
1.949169110459433
2.0175953079178885
2.0869990224828934
2.157380254154448
2.2277614858260018
2.297165200391007
2.364613880742913
2.43108504398827
2.486803519061584
2.535679374389052
2.589442815249267
2.6451612903225805
2.6989247311827955
2.7517106549364616
2.8025415444770285
2.850439882697948
2.895405669599218
2.936461388074292
2.972629521016618
3.003910068426197
3.024437927663734
3.0391006842619745
3.0527859237536656
3.065493646138808
3.0772238514174
3.0879765395894427
3.0977517106549364
3.1065493646138806
3.085043988269794
3.047898338220919
3.0332355816226784
3.0283479960899315
3.0283479960899315
3.024437927663734
3.016617790811339
3.0087976539589443
2.9980449657869013
2.9824046920821115
2.960899315738025
2.9345063538611926
2.9012707722385143
2.8611925708699903
2.814271749755621
2.760508308895406
2.7008797653958942
2.644183773216031
2.587487781036168
2.5210166177908118
2.449657869012708
2.3743890518084068
2.297165200391007
2.219941348973607
2.1417399804496577
2.064516129032258
1.989247311827957
1.9159335288367547
1.844574780058651
1.775171065493646
1.7194525904203324
1.6705767350928642
1.616813294232649
1.563049853372434
1.5112414467253177
1.4633431085043989
1.4193548387096775
1.380254154447703
1.3479960899315735
1.3225806451612905
1.3040078201368523
1.2942326490713587
1.295210166177908
1.305962854349951
1.3235581622678396
1.3499511241446724
1.3861192570869991
1.4301075268817205
1.479960899315738
1.5356793743890518
1.5962854349951123
1.66177908113392
1.7282502443792769
1.796676441837732
1.866080156402737
1.927663734115347
1.986314760508309
2.0498533724340176
2.115347018572825
2.1818181818181817
2.2482893450635384
2.313782991202346
2.377321603128055
2.436950146627566
2.49266862170088
2.544477028347996
2.590420332355816
2.624633431085044
2.6510263929618767
2.67644183773216
2.6989247311827955
2.717497556207233
2.732160312805474
2.744868035190616
2.755620723362659
2.764418377321604
2.7722385141739982
2.7722385141739982
2.7722385141739982
2.7722385141739982
2.7722385141739982
2.7722385141739982
2.7722385141739982
2.7722385141739982
2.7722385141739982
2.777126099706745
2.763440860215054
2.742913000977517
2.716520039100684
2.6823069403714563
2.6392961876832843
2.589442815249267
2.5405669599217986
2.4887585532746823
2.426197458455523
2.356793743890518
2.283479960899316
2.2052785923753664
2.1251221896383186
2.042033235581622
1.9589442815249267
1.8758553274682308
1.7927663734115349
1.7116324535679377
1.6334310850439884
1.5698924731182795
1.5151515151515151
1.4535679374389052
1.391006842619746
1.3304007820136852
1.2717497556207231
1.2160312805474096
1.163245356793744
1.115347018572825
1.072336265884653
1.0361681329423265
1.0058651026392962
0.989247311827957
0.9824046920821116
0.978494623655914
0.981427174975562
0.9931573802541545
1.0146627565982405
1.0469208211143697
1.0879765395894427
1.1368523949169111
1.1925708699902249
1.2531769305962854
1.3176930596285434
1.3782991202346042
1.4379276637341154
1.5034213098729228
1.5718475073313782
1.6412512218963833
1.710654936461388
1.7810361681329423
1.8523949169110456
1.9237536656891496
1.994134897360704
2.0635386119257086
2.131964809384164
2.198435972629521
2.2531769305962857
2.300097751710655
2.3489736070381237
2.396871945259042
2.439882697947214
2.4789833822091887
2.512218963831867
2.541544477028348
2.5669599217986314
2.590420332355816
2.613880742913001
2.636363636363636
2.6529814271749754
2.667644183773216
2.6832844574780057
2.699902248289345
2.7155425219941347
2.729227761485826
2.739980449657869
2.747800586510264
2.7517106549364616
2.7497556207233624
2.740957966764418
2.7262952101661777
2.704789833822092
2.679374389051808
2.649071358748778
2.611925708699902
2.56891495601173
2.5219941348973607
2.4711632453567938
2.4164222873900294
2.3597262952101663
2.3010752688172045
2.2404692082111435
2.179863147605083
2.1192570869990224
2.0664711632453567
2.0195503421309877
1.967741935483871
1.9159335288367547
1.866080156402737
1.8191593352883677
1.7741935483870968
1.732160312805474
1.6950146627565983
1.6627565982404693
1.6344086021505375
1.6109481915933528
1.5933528836754642
1.5826001955034212
1.5786901270772238
1.5786901270772238
1.58455522971652
1.5972629521016617
1.6177908113391983
1.6480938416422288
1.6871945259042034
1.7350928641251222
1.790811339198436
1.8523949169110456
1.916911045943304
1.975562072336266
2.032258064516129
2.0948191593352883
2.1593352883675463
2.2238514173998043
2.2873900293255134
2.3499511241446727
2.410557184750733
2.469208211143695
2.5249266862170088
2.5777126099706744
2.6295210166177907
2.678396871945259
2.717497556207233
2.750733137829912
2.7869012707722387
2.822091886608016
2.855327468230694
2.884652981427175
2.909090909090909
2.929618768328446
2.945259042033236
2.956011730205278
2.963831867057673
2.970674486803519
2.972629521016618
2.972629521016618
2.975562072336266
2.9804496578690127
2.98435972629521
2.9872922776148583
2.988269794721408
2.9853372434017595
2.9775171065493646
2.9657869012707723
2.948191593352884
2.9257086999022484
2.897360703812317
2.866080156402737
2.83088954056696
2.788856304985337
2.739980449657869
2.6852394916911044
2.624633431085044
2.560117302052786
2.4916911045943304
2.418377321603128
2.3421309872922778
2.2639296187683287
2.185728250244379
2.118279569892473
2.0557184750733137
1.988269794721408
1.920821114369501
1.8533724340175952
1.7869012707722385
1.7223851417399805
1.6608015640273706
1.6021505376344083
1.5464320625610948
1.4946236559139785
1.4457478005865103
1.4007820136852396
1.3685239491691104
1.3450635386119256
1.321603128054741
1.3020527859237536
1.289345063538612
1.284457478005865
1.2883675464320623
1.3020527859237536
1.3255131964809383
1.3587487781036167
1.4007820136852396
1.4506353861192571
1.500488758553275
1.5513196480938416
1.6109481915933528
1.675464320625611
1.7429130009775171
1.8113391984359728
1.8797653958944285
1.9472140762463344
2.013685239491691
2.0791788856304985
2.1436950146627565
2.2082111436950145
2.270772238514174
2.32355816226784
2.3704789833822093
2.420332355816227
2.4701857282502444
2.517106549364614
2.560117302052786
2.5962854349951123
2.625610948191593
2.6480938416422286
2.6637341153470184
2.675464320625611
2.684261974584555
2.689149560117302
2.6911045943304006
2.6959921798631474
2.701857282502444
2.70772238514174
2.7126099706744866
2.717497556207233
2.721407624633431
2.7223851417399803
2.720430107526881
2.7155425219941347
2.704789833822092
2.6881720430107525
2.6666666666666665
2.6402737047898337
2.606060606060606
2.5640273704789838
2.5141739980449658
2.458455522971652
2.396871945259042
2.3304007820136854
2.260019550342131
2.187683284457478
2.113391984359726
2.038123167155425
1.9726295210166176
1.9120234604105573
1.8435972629521016
1.7712609970674489
1.6979472140762464
1.6256109481915937
1.555229716520039
1.4868035190615836
1.4213098729227762
1.3587487781036167
1.2991202346041055
1.2434017595307918
1.2013685239491692
1.1681329423264908
1.130987292277615
1.0957966764418376
1.0635386119257086
1.0361681329423265
1.0146627565982405
1.0
0.9931573802541545
0.9960899315738024
1.007820136852395
1.029325513196481
1.0596285434995112
1.096774193548387
1.1407624633431086
1.1915933528836755
1.2482893450635386
1.310850439882698
1.3763440860215057
1.444770283479961
1.5151515151515151
1.585532746823069
1.656891495601173
1.7282502443792769
1.7996089931573802
1.8621700879765395
1.921798631476051
1.9872922776148585
2.053763440860215
2.1192570869990224
2.1847507331378297
2.2482893450635384
2.30791788856305
2.363636363636364
2.4144672531769307
2.4604105571847508
2.5004887585532747
2.5347018572825024
2.5591397849462365
2.578690127077224
2.598240469208211
2.6177908113391983
2.635386119257087
2.6529814271749754
2.670576735092864
2.687194525904203
2.702834799608993
2.717497556207233
2.730205278592375
2.740957966764418
2.745845552297165
2.7468230694037143
2.7468230694037143
2.7438905180840663
2.7370478983382207
2.7262952101661777
2.7096774193548385
2.687194525904203
2.658846529814272
2.624633431085044
2.5855327468230693
2.5405669599217986
2.4916911045943304
2.444770283479961
2.398826979472141
2.345063538611926
2.2873900293255134
2.228739002932551
2.16911045943304
2.110459433040078
2.0518084066471163
1.994134897360704
1.93841642228739
1.8856304985337244
1.835777126099707
1.796676441837732
1.7644183773216031
1.7311827956989247
1.6989247311827955
1.6705767350928642
1.64613880742913
1.6275659824046922
1.6148582600195502
1.608993157380254
1.611925708699902
1.6217008797653958
1.640273704789834
1.667644183773216
1.6989247311827955
1.7350928641251222
1.780058651026393
1.8328445747800584
1.889540566959922
1.9501466275659824
2.0127077223851417
2.0762463343108504
2.139784946236559
2.204301075268817
2.267839687194526
2.3313782991202348
2.3841642228739004
2.43108504398827
2.4819159335288368
2.533724340175953
2.5855327468230693
2.635386119257087
2.6823069403714563
2.7253176930596283
2.7653958944281527
2.8025415444770285
2.834799608993157
2.863147605083089
2.886608015640274
2.9012707722385143
2.9100684261974585
2.918866080156403
2.9266862170087977
2.932551319648094
2.93841642228739
2.943304007820137
2.948191593352884
2.9530791788856305
2.956989247311828
2.959921798631476
2.960899315738025
2.956989247311828
2.949169110459433
2.940371456500489
2.927663734115347
2.911045943304008
2.8885630498533725
2.8611925708699903
2.827956989247312
2.7869012707722387
2.739980449657869
2.686217008797654
2.627565982404692
2.5640273704789838
2.505376344086021
2.44672531769306
2.380254154447703
2.30791788856305
2.2346041055718477
2.160312805474096
2.086021505376344
2.0127077223851417
1.9413489736070384
1.8729227761485825
1.8074291300097751
1.7438905180840665
1.6920821114369502
1.64613880742913
1.5962854349951123
1.5464320625610948
1.4975562072336266
1.4516129032258065
1.409579667644184
1.3724340175953078
1.3421309872922775
1.3186705767350928
1.3020527859237536
1.2942326490713587
1.2961876832844574
1.3088954056695992
1.3294232649071358
1.3587487781036167
1.3958944281524928
1.4418377321603129
1.4936461388074291
1.5503421309872922
1.611925708699902
1.6823069403714566
1.7575757575757576
1.8299120234604105
1.900293255131965
1.9618768328445748
2.018572825024438
2.081133919843597
2.145650048875855
2.212121212121212
2.2795698924731185
2.347018572825025
2.4115347018572826
2.4731182795698925
2.5317693059628543
2.58455522971652
2.63049853372434
2.670576735092864
2.699902248289345
2.720430107526881
2.739980449657869
2.757575757575758
2.771260997067449
2.782991202346041
2.792766373411535
2.80058651026393
2.8084066471163247
2.8152492668621703
2.822091886608016
2.827956989247312
2.8299120234604107
2.8289345063538613
2.827956989247312
2.8240469208211145
2.81622678396872
2.8044965786901277
2.7859237536656893
2.760508308895406
2.729227761485826
2.69208211143695
2.649071358748778
2.5992179863147604
2.544477028347996
2.49266862170088
2.4408602150537635
2.380254154447703
2.313782991202346
2.244379276637341
2.172043010752688
2.0987292277614857
2.0254154447702835
1.9530791788856303
1.8826979472140764
1.81524926686217
1.7517106549364614
1.7018572825024438
1.66177908113392
1.6207233626588464
1.5826001955034212
1.5503421309872922
1.5239491691104594
1.504398826979472
1.490713587487781
1.4819159335288368
1.478983382209189
1.4819159335288368
1.4897360703812317
1.5024437927663734
1.520039100684262
1.5405669599217986
1.564027370478983
1.5913978494623655
1.6217008797653958
1.653958944281525
1.6871945259042034
1.721407624633431
1.7556207233626588
1.7888563049853372
1.8211143695014664
1.8514173998044965
1.8778103616813293
1.902248289345064
1.927663734115347
1.9550342130987293
1.9833822091886608
2.013685239491691
2.0449657869012707
2.0772238514174
2.1094819159335287
2.1417399804496577
2.1730205278592374
2.203323558162268
2.228739002932551
2.251221896383187
2.2737047898338223
2.2952101661779083
2.315738025415445
2.334310850439883
2.350928641251222
2.366568914956012
2.3812316715542523
2.3949169110459434
2.406647116324536
2.4173998044965788
2.4271749755620724
2.434017595307918
2.436950146627566
2.4389051808406648
2.4389051808406648
2.4349951124144678
2.426197458455523
2.4115347018572826
2.3919843597262958
2.367546432062561
2.3382209188660803
2.303030303030303
2.2629521016617797
2.225806451612903
2.188660801564027
2.144672531769306
2.096774193548387
2.04594330400782
1.994134897360704
1.9423264907135875
1.89247311827957
1.8435972629521016
1.7976539589442817
1.75366568914956
1.7126099706744868
1.6744868035190617
1.64613880742913
1.624633431085044
1.603128054740958
1.58455522971652
1.5698924731182795
1.560117302052786
1.5542521994134897
1.5532746823069403
1.5562072336265884
1.564027370478983
1.576735092864125
1.5933528836754642
1.6138807429130009
1.6383186705767352
1.667644183773216
1.7018572825024438
1.7429130009775171
1.7898338220918866
1.842619745845552
1.9012707722385145
1.963831867057673
2.029325513196481
2.0977517106549364
2.16911045943304
2.242424242424242
2.304985337243402
2.361681329423265
2.4242424242424243
2.4887585532746823
2.5542521994134897
2.619745845552297
2.684261974584555
2.747800586510264
2.809384164222874
2.8690127077223853
2.9266862170087977
2.981427174975562
3.024437927663734
3.060606060606061
3.1006842619745845
3.1417399804496577
3.1808406647116323
3.2170087976539588
3.2482893450635384
3.274682306940372
3.2961876832844577
3.310850439882698
3.320625610948192
3.3255131964809386
3.326490713587488
3.320625610948192
3.3118279569892475
3.304985337243402
3.2981427174975564
3.290322580645161
3.2825024437927666
3.274682306940372
3.2658846529814274
3.2531769305962857
3.2375366568914954
3.217986314760508
3.193548387096774
3.1652003910068425
3.1309872922776147
3.090909090909091
3.0449657869012707
2.9931573802541545
2.9345063538611926
2.870967741935484
2.801564027370479
2.7282502443792764
2.6510263929618767
2.5718475073313782
2.489736070381232
2.406647116324536
2.333333333333333
2.2668621700879767
2.1925708699902247
2.117302052785924
2.043010752688172
1.9696969696969695
1.900293255131965
1.833822091886608
1.7702834799608993
1.7096774193548387
1.6520039100684265
1.598240469208211
1.5571847507331378
1.52297165200391
1.487781036168133
1.4545454545454546
1.426197458455523
1.4056695992179864
1.392961876832845
1.3890518084066472
1.3949169110459434
1.4105571847507332
1.436950146627566
1.474095796676442
1.520039100684262
1.5679374389051808
1.616813294232649
1.672531769305963
1.732160312805474
1.793743890518084
1.8563049853372435
1.919843597262952
1.9833822091886608
2.04594330400782
2.10752688172043
2.1681329423264906
2.2277614858260018
2.278592375366569
2.324535679374389
2.3734115347018574
2.421309872922776
2.4672531769305963
2.5102639296187683
2.547409579667644
2.578690127077224
2.6041055718475072
2.624633431085044
2.641251221896383
2.654936461388074
2.6666666666666665
2.674486803519061
2.681329423264907
2.6041055718475072
2.4838709677419355
2.4281524926686218
2.403714565004888
2.393939393939394
2.3900293255131966
2.3851417399804498
2.378299120234604
2.366568914956012
2.3499511241446727
2.329423264907136
2.304007820136853
2.271749755620724
2.233626588465298
2.188660801564027
2.136852394916911
2.0791788856304985
2.01564027370479
1.948191593352884
1.87683284457478
1.8035190615835777
1.729227761485826
1.653958944281525
1.5884652981427174
1.5288367546432062
1.4613880742913
1.3900293255131966
1.3186705767350928
1.249266862170088
1.1808406647116323
1.115347018572825
1.0527859237536656
0.9931573802541545
0.9364613880742912
0.8836754643206256
0.844574780058651
0.8132942326490714
0.7800586510263929
0.7478005865102639
0.7204301075268817
0.6999022482893451
0.6871945259042033
0.6832844574780058
0.6891495601173021
0.7047898338220919
0.7302052785923754
0.7663734115347018
0.8074291300097751
0.8543499511241447
0.9090909090909092
0.9706744868035192
1.0361681329423265
1.104594330400782
1.1759530791788857
1.2473118279569892
1.3206256109481915
1.393939393939394
1.4682306940371457
1.542521994134897
1.616813294232649
1.6813294232649072
1.7409579667644184
1.8064516129032255
1.873900293255132
1.9393939393939397
2.0019550342130987
2.059628543499511
2.1221896383186705
2.1739980449657867
2.207233626588465
2.2375366568914954
2.2639296187683287
2.2825024437927666
2.2961876832844577
2.310850439882698
2.3255131964809386
2.340175953079179
2.3548387096774195
2.3704789833822093
2.3851417399804498
2.398826979472141
2.4115347018572826
2.423264907135875
2.43108504398827
2.4349951124144678
2.4330400782013686
2.4252199413489737
2.4115347018572826
2.3919843597262958
2.3655913978494625
2.333333333333333
2.294232649071359
2.2482893450635384
2.1974584555229715
2.1417399804496577
2.081133919843597
2.0175953079178885
1.959921798631476
1.9042033235581624
1.8416422287390029
1.775171065493646
1.7067448680351909
1.6383186705767352
1.5728250244379276
1.5102639296187683
1.4516129032258065
1.3978494623655917
1.3479960899315735
1.3040078201368523
1.2658846529814272
1.238514173998045
1.2179863147605083
1.198435972629521
1.1827956989247312
1.1720430107526882
1.1671554252199414
1.1691104594330402
1.176930596285435
1.1915933528836755
1.2130987292277615
1.241446725317693
1.2766373411534702
1.3128054740957966
1.35386119257087
1.404692082111437
1.4613880742913
1.521994134897361
1.5865102639296187
1.653958944281525
1.7233626588465298
1.7927663734115349
1.8621700879765395
1.9305962854349952
1.9980449657869013
2.0635386119257086
2.1192570869990224
2.1681329423264906
2.2218963831867056
2.2766373411534704
2.3313782991202348
2.3851417399804498
2.4349951124144678
2.4819159335288368
2.5249266862170088
2.5640273704789838
2.5992179863147604
2.6285434995112413
2.6480938416422286
2.6608015640273703
2.673509286412512
2.684261974584555
2.6930596285435
2.699902248289345
2.705767350928641
2.7126099706744866
2.718475073313783
2.7233626588465296
2.7262952101661777
2.7282502443792764
2.7282502443792764
2.7223851417399803
2.7126099706744866
2.702834799608993
2.6901270772238512
2.6725317693059627
2.649071358748778
2.619745845552297
2.5835777126099706
2.5405669599217986
2.490713587487781
2.434017595307918
2.3714565004887587
2.3118279569892475
2.2531769305962857
2.185728250244379
2.113391984359726
2.037145650048876
1.9589442815249267
1.8807429130009776
1.804496578690127
1.729227761485826
1.6549364613880744
1.5835777126099706
1.5151515151515151
1.4486803519061584
1.393939393939394
1.3479960899315735
1.2971652003910068
1.24633431085044
1.1964809384164223
1.1495601173020529
1.1065493646138806
1.0684261974584557
1.035190615835777
1.0097751710654936
0.9921798631476052
0.9833822091886608
0.9843597262952102
0.9951124144672532
1.0146627565982405
1.0439882697947214
1.0840664711632453
1.1329423264907137
1.1896383186705768
1.2531769305962854
1.3225806451612905
1.3958944281524928
1.4701857282502444
1.544477028347996
1.6177908113391983
1.6823069403714566
1.7419354838709675
1.8064516129032255
1.8729227761485825
1.9403714565004888
2.005865102639296
2.0684261974584555
2.129032258064516
2.1867057673509285
2.241446725317693
2.291300097751711
2.3362658846529816
2.36950146627566
2.3949169110459434
2.420332355816227
2.443792766373412
2.462365591397849
2.4780058651026398
2.490713587487781
2.501466275659824
2.5102639296187683
2.5180840664711632
2.525904203323558
2.533724340175953
2.5405669599217986
2.5434995112414467
2.5434995112414467
2.5425219941348973
2.539589442815249
2.532746823069404
2.5210166177908118
2.5034213098729228
2.4789833822091887
2.447702834799609
2.4086021505376345
2.363636363636364
2.3118279569892475
2.260019550342131
2.207233626588465
2.145650048875855
2.0772238514174
2.003910068426197
1.9266862170087975
1.847507331378299
1.7673509286412512
1.6881720430107527
1.6852394916911049
1.7233626588465298
1.7067448680351909
1.6744868035190617
1.6344086021505375
1.581622678396872
1.521994134897361
