ppg
1.0957966764418376
1.093841642228739
1.093841642228739
1.093841642228739
1.096774193548387
1.1065493646138806
1.1300097751710656
1.173998044965787
1.2424242424242424
1.3391984359726294
1.4623655913978495
1.608993157380254
1.7732160312805474
1.9237536656891496
2.064516129032258
2.219941348973607
2.3734115347018574
2.5141739980449658
2.638318670576735
2.742913000977517
2.8269794721407626
2.89345063538612
2.945259042033236
2.9824046920821115
3.0087976539589443
3.0234604105571847
3.022482893450636
3.0097751710654936
2.9872922776148583
2.951124144672532
2.8993157380254155
2.83088954056696
2.747800586510264
2.652003910068426
2.547409579667644
2.436950146627566
2.3255131964809386
2.2170087976539588
2.126099706744868
2.047898338220919
1.9726295210166176
1.9071358748778104
1.8523949169110456
1.8093841642228736
1.7771260997067448
1.75366568914956
1.737047898338221
1.7243401759530792
1.7145650048875856
1.7057673509286413
1.6979472140762464
1.6930596285434996
1.6881720430107527
1.6813294232649072
1.672531769305963
1.6627565982404693
1.6520039100684265
1.643206256109482
1.6373411534701858
1.635386119257087
1.6383186705767352
1.64613880742913
1.6559139784946235
1.6666666666666667
1.675464320625611
1.6813294232649072
1.6813294232649072
1.672531769305963
1.653958944281525
1.6256109481915937
1.5884652981427174
1.543499511241447
1.4926686217008798
1.436950146627566
1.3792766373411536
1.321603128054741
1.2756598240469208
1.238514173998045
1.1994134897360704
1.163245356793744
1.1319648093841643
1.10752688172043
1.0879765395894427
1.0742913000977516
1.067448680351906
1.064516129032258
1.0654936461388074
1.0694037145650048
1.078201368523949
1.088954056695992
1.099706744868035
1.1114369501466277
1.1241446725317692
1.1378299120234605
1.1495601173020529
1.160312805474096
1.1691104594330402
1.1749755620723363
1.176930596285435
1.1759530791788857
1.1710654936461389
1.1671554252199414
1.1622678396871946
1.1544477028347997
1.1466275659824048
1.142717497556207
1.1495601173020529
1.1730205278592376
1.2189638318670577
1.2913000977517106
1.392961876832845
1.521994134897361
1.6715542521994136
1.812316715542522
1.948191593352884
2.1006842619745845
2.2551319648093844
2.398826979472141
2.5268817204301075
2.6373411534701856
2.7282502443792764
2.80058651026393
2.857282502443793
2.900293255131965
2.9315738025415445
2.9530791788856305
2.960899315738025
2.9579667644183774
2.941348973607038
2.9120234604105573
2.878787878787879
2.838709677419355
2.788856304985337
2.7282502443792764
2.6578690127077222
2.581622678396872
2.501466275659824
2.421309872922776
2.3489736070381237
2.2825024437927666
2.2170087976539588
2.156402737047898
2.101661779081134
2.0547409579667644
2.013685239491691
1.978494623655914
1.9472140762463344
1.9178885630498532
1.889540566959922
1.86119257086999
1.83088954056696
1.8025415444770283
1.775171065493646
1.7438905180840665
1.7116324535679377
1.6793743890518085
1.6471163245356797
1.6148582600195502
1.5826001955034212
1.5503421309872922
1.520039100684262
1.490713587487781
1.4623655913978495
1.439882697947214
1.4203323558162269
1.3988269794721409
1.3773216031280548
1.356793743890518
1.3362658846529814
1.3176930596285434
1.3020527859237536
1.2873900293255132
1.2727272727272727
1.2590420332355816
1.2453567937438903
1.2326490713587488
1.2238514173998043
1.217008797653959
1.2082111436950147
1.198435972629521
1.1886608015640274
1.1788856304985338
1.1700879765395895
1.1612903225806452
1.152492668621701
1.1436950146627567
1.1358748778103618
1.1280547409579669
1.1251221896383188
1.1241446725317692
1.1221896383186705
1.1192570869990224
1.115347018572825
1.1124144672531768
1.1094819159335287
1.1065493646138806
1.1026392961876832
1.099706744868035
1.0977517106549364
1.0957966764418376
1.0948191593352885
1.0957966764418376
1.0977517106549364
1.0977517106549364
1.0977517106549364
1.1006842619745845
1.110459433040078
1.1319648093841643
1.1710654936461389
1.2336265884652982
1.3235581622678396
1.4408602150537635
1.5826001955034212
1.7194525904203324
1.857282502443793
2.018572825024438
2.185728250244379
2.347996089931574
2.495601173020528
2.6236559139784945
2.7311827956989245
2.817204301075269
2.884652981427175
2.935483870967742
2.973607038123167
2.994134897360704
3.002932551319648
3.0097751710654936
3.0117302052785924
3.005865102639296
2.992179863147605
2.967741935483871
2.932551319648094
2.8856304985337244
2.827956989247312
2.7595307917888565
2.6832844574780057
2.601173020527859
2.5239491691104594
2.450635386119257
2.372434017595308
2.297165200391007
2.2267839687194524
2.164222873900293
2.1094819159335287
2.0625610948191597
2.021505376344086
1.986314760508309
1.95405669599218
1.9227761485826005
1.895405669599218
1.8699902248289344
1.8406647116324533
1.8093841642228736
1.7771260997067448
1.7438905180840665
1.710654936461388
1.6764418377321604
1.6412512218963833
1.606060606060606
1.5698924731182795
1.533724340175953
1.498533724340176
1.469208211143695
1.4437927663734116
1.41544477028348
1.3861192570869991
1.3577712609970674
1.3304007820136852
1.3040078201368523
1.2795698924731185
1.2570869990224829
1.2365591397849462
1.2179863147605083
1.2013685239491692
1.1906158357771262
1.181818181818182
1.1710654936461389
1.1593352883675463
1.1485826001955035
1.13880742913001
1.1300097751710656
1.1221896383186705
1.1143695014662756
1.10752688172043
1.1026392961876832
1.0977517106549364
1.093841642228739
1.0928641251221896
1.0928641251221896
1.0909090909090908
1.0879765395894427
1.0850439882697946
1.0811339198435972
1.0762463343108504
1.0713587487781036
3.1544477028347995
3.15347018572825
3.132942326490713
3.096774193548387
3.0527859237536656
3.0019550342130987
2.9423264907135875
2.8699902248289346
2.780058651026393
2.667644183773216
2.5317693059628543
2.378299120234604
2.2140762463343107
2.048875855327468
1.8914956011730208
1.7468230694037146
1.6177908113391983
1.5161290322580645
1.4349951124144673
1.3577712609970674
1.2913000977517106
1.238514173998045
1.2013685239491692
1.1808406647116323
1.1749755620723363
1.1808406647116323
1.1964809384164223
1.2179863147605083
1.2434017595307918
1.267839687194526
1.2913000977517106
1.3147605083088951
1.3362658846529814
1.3558162267839686
1.3734115347018572
1.3900293255131966
1.404692082111437
1.4164222873900294
1.4242424242424243
1.4281524926686218
1.4301075268817205
1.4291300097751711
1.4281524926686218
1.426197458455523
1.4213098729227762
1.41544477028348
1.4076246334310851
1.3978494623655917
1.3870967741935485
1.3773216031280548
1.3685239491691104
1.3607038123167154
1.3528836754643203
1.3450635386119256
1.3401759530791788
1.3362658846529814
1.3304007820136852
1.3235581622678396
1.3157380254154447
1.3079178885630498
1.300097751710655
1.2942326490713587
1.2873900293255132
1.2776148582600195
1.2658846529814272
1.2561094819159335
1.2473118279569892
1.2424242424242424
1.238514173998045
1.2316715542521994
1.2238514173998043
1.2150537634408602
1.2072336265884651
1.1994134897360704
1.1925708699902249
1.187683284457478
1.1837732160312806
1.1798631476050832
1.1749755620723363
1.1730205278592376
1.1710654936461389
1.1652003910068427
1.1583577712609971
1.1505376344086022
1.1436950146627567
1.1378299120234605
1.1368523949169111
1.142717497556207
1.1583577712609971
1.1886608015640274
1.238514173998045
1.3118279569892473
1.392961876832845
1.4858260019550342
1.607038123167155
1.747800586510264
1.8993157380254155
2.050830889540567
2.1945259042033234
2.324535679374389
2.4379276637341154
2.530791788856305
2.6041055718475072
2.659824046920821
2.6940371456500487
2.7126099706744866
2.727272727272727
2.736070381231672
2.73802541544477
2.7331378299120237
2.719452590420332
2.695014662756598
2.6608015640273703
2.6158357771261
2.5620723362658846
2.4995112414467253
2.43108504398827
2.3655913978494625
2.302052785923754
2.2346041055718477
2.16911045943304
2.10850439882698
2.0547409579667644
2.005865102639296
1.963831867057673
1.9286412512218964
1.8983382209188664
1.871945259042033
1.8465298142717497
1.825024437927664
1.8035190615835777
1.7790811339198436
1.7526881720430108
1.7233626588465298
1.6920821114369502
1.6588465298142718
1.6236559139784943
1.5884652981427174
1.552297165200391
1.5161290322580645
1.4809384164222874
1.452590420332356
1.4281524926686218
1.4007820136852396
1.3734115347018572
1.3470185728250244
1.3206256109481915
1.2961876832844574
1.273704789833822
1.252199413489736
1.2316715542521994
1.2130987292277615
1.1964809384164223
1.181818181818182
1.1720430107526882
1.164222873900293
1.1544477028347997
1.144672531769306
1.1348973607038124
1.1251221896383188
1.1163245356793745
1.1085043988269794
1.1006842619745845
1.093841642228739
1.0869990224828934
1.0811339198435972
1.0791788856304985
1.078201368523949
1.075268817204301
1.0713587487781036
1.0664711632453567
1.0625610948191593
1.0596285434995112
1.0557184750733135
1.0527859237536656
1.050830889540567
1.0488758553274682
1.0469208211143697
1.0449657869012707
1.04594330400782
1.0478983382209188
1.04594330400782
1.043010752688172
1.0391006842619743
1.0342130987292275
1.0312805474095796
1.029325513196481
1.0312805474095796
1.0420332355816226
1.0664711632453567
1.1085043988269794
1.1612903225806452
1.2297165200391007
1.3264907135874875
1.4496578690127078
1.5913978494623655
1.7448680351906158
1.9012707722385145
2.0527859237536656
2.193548387096774
2.317693059628544
2.423264907135875
2.509286412512219
2.576735092864125
2.6207233626588464
2.6480938416422286
2.6695992179863146
2.6832844574780057
2.6881720430107525
2.684261974584555
2.6715542521994133
2.649071358748778
2.616813294232649
2.575757575757576
2.5249266862170088
2.466275659824047
2.407624633431085
2.347018572825025
2.280547409579668
2.212121212121212
2.145650048875855
2.0840664711632453
2.029325513196481
1.9824046920821117
1.943304007820137
1.9100684261974583
1.8826979472140764
1.858260019550342
1.835777126099707
1.81524926686217
1.7956989247311828
1.7741935483870968
1.7517106549364614
1.726295210166178
1.699902248289345
1.6705767350928642
1.640273704789834
1.6080156402737047
1.5747800586510263
1.5405669599217986
1.5063538611925709
1.47702834799609
1.4506353861192571
1.4222873900293256
1.392961876832845
1.364613880742913
1.3372434017595307
1.3118279569892473
1.2873900293255132
1.2658846529814272
1.2482893450635386
1.2355816226783969
1.227761485826002
1.2267839687194526
1.23069403714565
1.2375366568914956
1.2434017595307918
1.2443792766373412
1.2404692082111437
1.23069403714565
1.2150537634408602
1.195503421309873
1.1759530791788857
1.1583577712609971
1.142717497556207
1.1290322580645162
1.1202346041055715
1.1133919843597262
1.1026392961876832
1.0909090909090908
1.0791788856304985
1.067448680351906
1.0557184750733135
1.0439882697947214
1.032258064516129
1.021505376344086
1.0117302052785924
1.0039100684261977
0.997067448680352
0.9941348973607038
0.9931573802541545
0.9902248289345064
0.9872922776148584
0.9833822091886608
0.9804496578690128
0.9794721407624634
0.9824046920821116
0.9931573802541545
1.013685239491691
1.0478983382209188
1.0987292277614855
1.1573802541544478
1.227761485826002
1.3264907135874875
1.4496578690127078
1.5923753665689149
1.7497556207233629
1.9159335288367547
2.0840664711632453
2.249266862170088
2.403714565004888
2.5425219941348973
2.662756598240469
2.7614858260019552
2.827956989247312
2.870967741935484
2.906158357771261
2.929618768328446
2.940371456500489
2.9393939393939394
2.924731182795699
2.89345063538612
2.844574780058651
2.7751710654936463
2.6832844574780057
2.570869990224829
2.4565004887585533
2.335288367546432
2.190615835777126
2.038123167155425
1.8797653958944285
1.710654936461388
1.5356793743890518
1.359726295210166
1.1857282502443791
1.0175953079178883
0.8582600195503421
0.7135874877810362
0.5894428152492669
0.5024437927663734
0.4437927663734115
0.3988269794721407
0.3743890518084066
0.3724340175953079
0.3910068426197458
0.4271749755620723
0.4750733137829912
0.530791788856305
0.5884652981427175
0.6451612903225806
0.6999022482893451
0.7487781036168133
0.793743890518084
0.8387096774193549
0.8826979472140762
0.927663734115347
0.9726295210166178
1.0175953079178883
1.06158357771261
1.1026392961876832
1.141739980449658
1.176930596285435
1.2072336265884651
1.2326490713587488
1.2531769305962854
1.270772238514174
1.284457478005865
1.2961876832844574
1.3040078201368523
1.3079178885630498
1.3069403714565004
1.3010752688172045
1.2913000977517106
1.2776148582600195
1.2619745845552297
1.2453567937438903
1.2326490713587488
1.2209188660801564
1.2043010752688172
1.1837732160312806
1.1564027370478984
1.121212121212121
1.0772238514173995
1.024437927663734
0.9648093841642228
0.9002932551319648
0.8347996089931574
0.7702834799608993
0.7194525904203324
0.6793743890518084
0.635386119257087
0.5933528836754643
0.555229716520039
0.5210166177908113
0.4897360703812317
0.4613880742913001
0.4359726295210166
0.41544477028348
0.4017595307917888
0.4066471163245357
0.4301075268817204
0.4711632453567937
0.5767350928641252
0.6852394916911045
0.823069403714565
0.9853372434017597
1.164222873900293
1.3519061583577712
1.5386119257087
1.715542521994135
1.87683284457478
2.018572825024438
2.126099706744868
2.207233626588465
2.3088954056695994
2.3597262952101663
2.3978494623655915
2.434017595307918
2.443792766373412
2.444770283479961
2.4359726295210167
2.4164222873900294
2.386119257086999
2.343108504398827
2.2952101661779083
2.204301075268817
2.1309872922776147
2.0498533724340176
1.8797653958944285
1.7976539589442817
1.7223851417399805
1.6217008797653958
1.5669599217986314
1.521016617790811
1.487781036168133
1.4643206256109482
1.4437927663734116
1.4271749755620724
1.414467253176931
1.404692082111437
1.3978494623655917
1.3919843597262953
1.388074291300098
1.3851417399804498
1.3851417399804498
1.3870967741935485
1.392961876832845
1.4007820136852396
1.4115347018572826
1.4242424242424243
1.4379276637341154
1.4516129032258065
1.4633431085043989
1.4731182795698925
1.478983382209189
1.4819159335288368
1.482893450635386
1.4819159335288368
1.479960899315738
1.478983382209189
1.478983382209189
1.478005865102639
1.47702834799609
1.47702834799609
1.47702834799609
1.478983382209189
1.4809384164222874
1.482893450635386
1.4848484848484849
1.4848484848484849
1.4819159335288368
1.474095796676442
1.4623655913978495
1.4457478005865103
1.418377321603128
1.3822091886608017
1.3362658846529814
1.2825024437927663
1.2228739002932552
1.1593352883675463
1.0948191593352885
1.032258064516129
0.9745845552297164
0.9217986314760508
0.8817204301075269
0.852394916911046
0.8220918866080157
0.793743890518084
0.7673509286412512
0.7419354838709677
0.7165200391006843
0.6920821114369502
0.6686217008797654
0.6471163245356794
0.6285434995112414
0.6168132942326491
0.6168132942326491
0.6324535679374389
0.6656891495601173
0.7233626588465298
0.8103616813294232
0.9296187683284456
1.0801564027370478
1.2580645161290325
1.458455522971652
1.6744868035190617
1.8973607038123168
2.118279569892473
2.332355816226784
2.50733137829912
2.6559139784946235
2.809384164222874
2.95405669599218
3.085043988269794
3.201368523949169
3.302052785923754
3.389051808406647
3.4613880742913
3.520039100684262
3.5640273704789838
3.593352883675464
3.6070381231671553
3.601173020527859
3.579667644183773
3.548387096774193
3.505376344086021
3.450635386119257
3.386119257086999
3.314760508308896
3.239491691104594
3.163245356793744
3.089931573802541
3.021505376344086
2.959921798631476
2.9071358748778104
2.86217008797654
2.823069403714565
2.789833822091887
2.7624633431085046
2.73802541544477
2.7126099706744866
2.686217008797654
2.656891495601173
2.624633431085044
2.589442815249267
2.5532746823069403
2.5161290322580645
2.479960899315738
2.444770283479961
2.407624633431085
2.36950146627566
2.3304007820136854
2.291300097751711
2.2531769305962857
2.2170087976539588
2.182795698924731
2.1495601173020527
2.117302052785924
2.0869990224828934
2.060606060606061
2.0361681329423265
2.010752688172043
1.9853372434017595
1.9589442815249267
1.9335288367546437
1.906158357771261
1.8778103616813293
1.8484848484848484
1.8162267839687196
1.7820136852394917
1.747800586510264
1.7126099706744868
1.6813294232649072
1.6529814271749756
1.6217008797653958
1.590420332355816
1.5591397849462365
1.5288367546432062
1.500488758553275
1.474095796676442
1.4506353861192571
1.490713587487781
1.5669599217986314
1.6021505376344083
1.6187683284457477
1.6265884652981428
1.6304985337243405
1.632453567937439
1.6334310850439884
1.635386119257087
1.6373411534701858
1.6392961876832846
1.6412512218963833
1.6422287390029326
1.6422287390029326
1.6422287390029326
1.6441837732160314
1.6480938416422288
1.656891495601173
1.6735092864125125
1.7018572825024438
1.7458455522971652
1.8054740957966764
1.8807429130009776
1.9696969696969695
2.0684261974584555
2.172043010752688
2.275659824046921
2.3734115347018574
2.450635386119257
2.512218963831867
2.5718475073313782
2.624633431085044
2.667644183773216
2.7008797653958942
2.7253176930596283
2.740957966764418
2.748778103616813
2.7497556207233624
2.7438905180840663
2.730205278592375
2.7096774193548385
2.6823069403714563
2.6480938416422286
2.6070381231671558
2.5591397849462365
2.505376344086021
2.44672531769306
2.3851417399804498
2.3225806451612905
2.260997067448681
2.203323558162268
2.150537634408602
2.103616813294233
2.0664711632453567
2.035190615835777
2.006842619745845
1.9804496578690127
1.956989247311828
1.9364613880742916
1.916911045943304
1.8993157380254155
1.881720430107527
1.8631476050830889
1.8455522971652003
1.8269794721407624
1.8113391984359728
1.796676441837732
1.780058651026393
1.761485826001955
1.7438905180840665
1.726295210166178
1.7096774193548387
1.6930596285434996
1.678396871945259
1.6637341153470186
1.6500488758553276
1.6363636363636365
1.6236559139784943
1.6138807429130009
1.606060606060606
1.598240469208211
1.590420332355816
1.585532746823069
1.5826001955034212
1.581622678396872
1.581622678396872
1.5835777126099706
1.587487781036168
1.5933528836754642
1.5992179863147604
1.6050830889540566
1.611925708699902
1.6187683284457477
1.624633431085044
1.6304985337243405
1.635386119257087
1.6383186705767352
1.6392961876832846
1.6392961876832846
1.6373411534701858
1.6334310850439884
1.6265884652981428
1.6158357771260996
1.6050830889540566
1.5933528836754642
1.5757575757575757
1.5542521994134897
1.5288367546432062
1.501466275659824
1.4721407624633431
1.4418377321603129
1.4105571847507332
1.380254154447703
1.3509286412512218
1.3235581622678396
1.3040078201368523
1.2903225806451613
1.2776148582600195
1.270772238514174
1.273704789833822
1.2883675464320623
1.3186705767350928
1.3655913978494625
1.4281524926686218
1.5053763440860215
1.5943304007820136
1.689149560117302
1.7849462365591398
1.8670576735092863
1.9393939393939397
2.013685239491691
2.081133919843597
2.139784946236559
2.188660801564027
2.2277614858260018
2.259042033235582
2.2825024437927666
2.2991202346041058
2.310850439882698
2.3167155425219943
2.315738025415445
2.3088954056695994
2.2981427174975564
2.281524926686217
2.259042033235582
2.23069403714565
2.198435972629521
2.161290322580645
2.1221896383186705
2.083088954056696
2.0449657869012707
2.010752688172043
1.9794721407624636
1.9550342130987293
1.9345063538611929
1.916911045943304
1.9012707722385145
1.8885630498533723
1.87683284457478
1.8670576735092863
1.857282502443793
1.847507331378299
1.836754643206256
1.825024437927664
1.812316715542522
1.8005865102639296
1.7888563049853372
1.7741935483870968
1.758553274682307
1.7419354838709675
1.7243401759530792
1.7067448680351909
1.6881720430107527
1.6695992179863148
1.6520039100684265
1.635386119257087
1.619745845552297
1.6050830889540566
1.5933528836754642
1.5835777126099706
1.573802541544477
1.564027370478983
1.5542521994134897
1.5454545454545454
1.5376344086021505
1.5298142717497556
1.52297165200391
1.517106549364614
1.5112414467253177
1.5063538611925709
1.5034213098729228
1.5024437927663734
1.501466275659824
1.500488758553275
1.499511241446725
1.498533724340176
1.4975562072336266
1.4965786901270772
1.495601173020528
1.495601173020528
1.495601173020528
1.495601173020528
1.495601173020528
1.4965786901270772
1.4975562072336266
1.4975562072336266
1.4975562072336266
1.4975562072336266
1.4975562072336266
1.4975562072336266
1.4965786901270772
1.4946236559139785
1.4926686217008798
1.490713587487781
1.4887585532746823
1.487781036168133
1.490713587487781
1.4965786901270772
1.5083088954056696
1.530791788856305
1.565982404692082
1.6158357771260996
1.6823069403714566
1.7624633431085044
1.8543499511241448
1.9530791788856303
2.053763440860215
2.150537634408602
2.228739002932551
2.294232649071359
2.358748778103617
2.41544477028348
2.463343108504399
2.5024437927663734
2.533724340175953
2.558162267839687
2.5747800586510263
2.5865102639296187
2.592375366568915
2.592375366568915
2.5855327468230693
2.573802541544477
2.557184750733138
2.535679374389052
2.50733137829912
2.472140762463343
2.432062561094819
2.388074291300098
2.3421309872922778
2.294232649071359
2.247311827956989
2.203323558162268
2.166177908113392
2.133919843597263
2.102639296187683
2.074291300097752
2.04594330400782
2.018572825024438
1.992179863147605
1.9667644183773216
1.9413489736070384
1.916911045943304
1.8914956011730208
1.866080156402737
1.839687194525904
1.8162267839687196
1.793743890518084
1.7683284457478006
1.7419354838709675
1.7145650048875856
1.686217008797654
1.656891495601173
1.6285434995112416
1.6011730205278591
1.5747800586510263
1.5493646138807429
1.525904203323558
1.5083088954056696
1.4926686217008798
1.4750733137829912
1.456500488758553
1.439882697947214
1.423264907135875
1.4076246334310851
1.393939393939394
1.3812316715542523
1.3695014662756595
1.359726295210166
1.3528836754643203
1.3470185728250244
1.3440860215053765
1.3421309872922775
1.3391984359726294
1.3362658846529814
1.332355816226784
1.327468230694037
1.3225806451612905
1.3176930596285434
1.3118279569892473
1.305962854349951
1.300097751710655
1.2942326490713587
1.2913000977517106
1.289345063538612
1.2854349951124144
1.2795698924731185
1.273704789833822
1.2688172043010753
1.2649071358748778
1.2619745845552297
1.2619745845552297
1.267839687194526
1.2834799608993157
1.3128054740957966
1.359726295210166
1.414467253176931
1.4809384164222874
1.5698924731182795
1.6764418377321604
1.7947214076246334
1.9188660801564028
2.0410557184750733
2.157380254154448
2.26197458455523
2.3528836754643208
2.4301075268817205
2.49266862170088
2.5347018572825024
2.563049853372434
2.5884652981427174
2.608993157380254
2.6236559139784945
2.632453567937439
2.634408602150537
2.6295210166177907
2.616813294232649
2.595307917888563
2.565982404692082
2.527859237536657
2.4809384164222874
2.432062561094819
2.3812316715542523
2.32355816226784
2.2629521016617797
2.201368523949169
2.1417399804496577
2.0869990224828934
2.038123167155425
1.994134897360704
1.9550342130987293
1.921798631476051
1.89247311827957
1.869012707722385
1.8494623655913975
1.828934506353861
1.8084066471163245
1.7878787878787878
1.7663734115347018
1.7438905180840665
1.7204301075268815
1.694037145650049
1.6666666666666667
1.6392961876832846
1.611925708699902
1.58455522971652
1.5620723362658846
1.542521994134897
1.521016617790811
1.498533724340176
1.47702834799609
1.4545454545454546
1.4330400782013686
1.412512218963832
1.3919843597262953
1.3724340175953078
1.3548387096774193
1.33822091886608
1.3264907135874875
1.3176930596285434
1.3079178885630498
1.2971652003910068
1.2864125122189638
1.2756598240469208
