ppg
1.3616813294232648
1.364613880742913
1.367546432062561
1.370478983382209
1.370478983382209
1.367546432062561
1.3607038123167154
1.35386119257087
1.3470185728250244
1.3391984359726294
1.332355816226784
1.3225806451612905
1.310850439882698
1.2971652003910068
1.2825024437927663
1.270772238514174
1.260019550342131
1.2482893450635386
1.2365591397849462
1.2258064516129032
1.2150537634408602
1.2052785923753666
1.198435972629521
1.1935483870967742
1.1896383186705768
1.1857282502443791
1.181818181818182
1.1779081133919844
1.1759530791788857
1.1749755620723363
1.1730205278592376
1.1730205278592376
1.1730205278592376
1.1730205278592376
1.1730205278592376
1.1720430107526882
1.1720430107526882
1.1720430107526882
1.1720430107526882
1.1720430107526882
1.173998044965787
1.1759530791788857
1.1759530791788857
1.1759530791788857
1.176930596285435
1.1779081133919844
1.1798631476050832
1.1827956989247312
1.1857282502443791
1.187683284457478
1.1896383186705768
1.1906158357771262
1.1896383186705768
1.1896383186705768
1.1915933528836755
1.1935483870967742
1.195503421309873
1.1964809384164223
1.1964809384164223
1.1945259042033236
1.1915933528836755
1.1867057673509287
1.1779081133919844
1.1700879765395895
1.1681329423264908
1.1749755620723363
1.1974584555229717
1.24633431085044
1.3294232649071358
1.4486803519061584
1.6011730205278591
1.7790811339198436
1.9716520039100685
2.1652003910068425
2.347018572825025
2.5083088954056696
2.644183773216031
2.7497556207233624
2.817204301075269
2.855327468230694
2.8807429130009776
2.8914956011730206
2.887585532746823
2.870967741935484
2.8426197458455524
2.8054740957966766
2.7614858260019552
2.713587487781036
2.6637341153470184
2.611925708699902
2.560117302052786
2.5083088954056696
2.4516129032258065
2.391006842619746
2.326490713587488
2.2580645161290325
2.1867057673509285
2.1114369501466275
2.032258064516129
1.951124144672532
1.868035190615836
1.7839687194525904
1.7028347996089932
1.6383186705767352
1.585532746823069
1.5317693059628543
1.482893450635386
1.4418377321603129
1.409579667644184
1.3851417399804498
1.3685239491691104
1.356793743890518
1.3479960899315735
1.3401759530791788
1.332355816226784
1.3264907135874875
1.3196480938416422
1.3079178885630498
1.2942326490713587
1.2795698924731185
1.2639296187683284
1.249266862170088
1.2365591397849462
1.2228739002932552
1.2072336265884651
1.1896383186705768
1.1710654936461389
1.1515151515151516
1.1358748778103618
1.1251221896383188
1.1143695014662756
1.1006842619745845
1.086021505376344
1.0703812316715542
1.0547409579667644
1.0391006842619743
1.0254154447702837
1.013685239491691
1.002932551319648
0.9951124144672532
0.9912023460410556
0.989247311827957
0.9863147605083088
0.9824046920821116
0.978494623655914
0.9745845552297164
0.9706744868035192
0.9667644183773216
0.9628543499511242
0.9589442815249268
0.9550342130987292
0.9521016617790812
0.9511241446725318
0.9550342130987292
0.9608993157380256
0.9657869012707724
0.9696969696969696
0.9745845552297164
0.978494623655914
0.9824046920821116
0.9853372434017597
0.9872922776148584
0.9882697947214076
0.9882697947214076
0.9882697947214076
0.9902248289345064
0.9931573802541545
0.9941348973607038
0.9921798631476052
0.9902248289345064
0.989247311827957
0.989247311827957
0.989247311827957
0.989247311827957
0.989247311827957
0.989247311827957
0.989247311827957
0.989247311827957
0.9921798631476052
0.9960899315738024
0.9980449657869012
0.9990224828934506
1.0
1.0
1.0
1.0
1.0
1.0
0.9990224828934506
0.9980449657869012
0.9990224828934506
1.0058651026392962
1.024437927663734
1.067448680351906
1.1436950146627567
1.2580645161290325
1.4115347018572826
1.598240469208211
1.8074291300097751
2.024437927663734
2.2346041055718477
2.4271749755620724
2.593352883675464
2.7126099706744866
2.7966764418377323
2.8670576735092865
2.9159335288367547
2.943304007820137
2.952101661779081
2.9472140762463344
2.9315738025415445
2.90811339198436
2.87683284457478
2.8406647116324537
2.7996089931573804
2.755620723362659
2.7096774193548385
2.658846529814272
2.6050830889540566
2.548387096774193
2.4887585532746823
2.4271749755620724
2.361681329423265
2.291300097751711
2.2160312805474094
2.134897360703812
2.0498533724340176
1.9716520039100685
1.8983382209188664
1.8211143695014664
1.7448680351906158
1.6715542521994136
1.606060606060606
1.5483870967741935
1.501466275659824
1.4643206256109482
1.435972629521017
1.414467253176931
1.3998044965786902
1.391006842619746
1.3851417399804498
1.3822091886608017
1.3792766373411536
1.3763440860215057
1.3724340175953078
1.3665689149560116
1.3587487781036167
1.3509286412512218
1.343108504398827
1.3333333333333333
1.3235581622678396
1.435972629521017
1.5865102639296187
1.7624633431085044
1.951124144672532
2.1358748778103616
2.3069403714565007
2.455522971652004
2.576735092864125
2.6695992179863146
2.7341153470185726
2.774193548387097
2.7947214076246336
2.795698924731183
2.78494623655914
2.768328445747801
2.745845552297165
2.717497556207233
2.6832844574780057
2.6451612903225805
2.6041055718475072
2.560117302052786
2.512218963831867
2.4604105571847508
2.404692082111437
2.3499511241446727
2.2952101661779083
2.233626588465298
2.167155425219941
2.096774193548387
2.022482893450636
1.945259042033236
1.866080156402737
1.7859237536656891
1.7067448680351909
1.629521016617791
1.5581622678396871
1.4946236559139785
1.4437927663734116
1.4027370478983383
1.3655913978494625
1.335288367546432
1.310850439882698
1.29227761485826
1.2795698924731185
1.2717497556207231
1.267839687194526
1.2639296187683284
1.260019550342131
1.2561094819159335
1.252199413489736
1.249266862170088
1.2443792766373412
1.2375366568914956
1.2287390029325511
1.2179863147605083
1.206256109481916
1.1925708699902249
1.1779081133919844
1.163245356793744
1.1495601173020529
1.1378299120234605
1.1270772238514175
1.1202346041055715
1.1143695014662756
1.1065493646138806
1.0977517106549364
1.088954056695992
1.0811339198435972
1.0733137829912025
1.0654936461388074
1.0576735092864125
1.0498533724340176
1.0420332355816226
1.035190615835777
1.032258064516129
1.0312805474095796
1.029325513196481
1.0263929618768328
1.0234604105571847
1.0205278592375366
1.018572825024438
1.0175953079178883
1.0166177908113392
1.0166177908113392
1.0166177908113392
1.0175953079178883
1.0205278592375366
1.0234604105571847
1.0273704789833822
1.0312805474095796
1.035190615835777
1.0391006842619743
1.0420332355816226
1.0449657869012707
1.0478983382209188
1.0488758553274682
1.050830889540567
1.0547409579667644
1.0596285434995112
1.067448680351906
1.075268817204301
1.083088954056696
1.0909090909090908
1.0987292277614855
1.1065493646138806
1.1143695014662756
1.1202346041055715
1.1202346041055715
1.118279569892473
1.118279569892473
1.1192570869990224
1.1231671554252198
1.1270772238514175
1.1290322580645162
1.1290322580645162
1.1270772238514175
1.1251221896383188
1.1270772238514175
1.1397849462365592
1.1720430107526882
1.2297165200391007
1.3186705767350928
1.4437927663734116
1.6001955034213098
1.7526881720430108
1.905180840664712
2.080156402737048
2.2561094819159337
2.418377321603128
2.5591397849462365
2.6725317693059627
2.758553274682307
2.8181818181818183
2.8563049853372435
2.874877810361681
2.87683284457478
2.863147605083089
2.8406647116324537
2.811339198435973
2.7751710654936463
2.7341153470185726
2.6901270772238512
2.643206256109482
2.5943304007820136
2.541544477028348
2.486803519061584
2.4301075268817205
2.3704789833822093
2.3069403714565007
2.2453567937438903
2.1837732160312804
2.113391984359726
2.037145650048876
1.9579667644183771
1.878787878787879
1.801564027370479
1.729227761485826
1.664711632453568
1.608993157380254
1.563049853372434
1.5249266862170088
1.498533724340176
1.478983382209189
1.4633431085043989
1.452590420332356
1.4457478005865103
1.439882697947214
1.4349951124144673
1.43108504398827
1.4252199413489737
1.41544477028348
1.404692082111437
1.392961876832845
1.380254154447703
1.370478983382209
1.3616813294232648
1.348973607038123
1.335288367546432
1.3206256109481915
1.3049853372434017
1.2873900293255132
1.267839687194526
1.2482893450635386
1.2267839687194526
1.2052785923753666
1.18475073313783
1.1691104594330402
1.155425219941349
1.13880742913001
1.1241446725317692
1.110459433040078
1.0977517106549364
1.086021505376344
1.075268817204301
1.0654936461388074
1.0557184750733135
1.0449657869012707
1.0342130987292275
1.024437927663734
1.0175953079178883
1.0127077223851415
1.0058651026392962
0.9980449657869012
0.9921798631476052
0.9872922776148584
0.9824046920821116
0.9794721407624634
0.9765395894428152
0.975562072336266
0.9745845552297164
0.9736070381231672
0.9745845552297164
0.9775171065493646
0.978494623655914
0.978494623655914
0.9775171065493646
0.975562072336266
0.9736070381231672
0.9716520039100685
0.9696969696969696
0.9687194525904204
0.9687194525904204
0.9687194525904204
0.9696969696969696
0.9736070381231672
0.9804496578690128
0.9853372434017597
0.989247311827957
0.9912023460410556
0.9921798631476052
0.9921798631476052
0.9921798631476052
0.9921798631476052
0.9921798631476052
0.9912023460410556
0.989247311827957
0.989247311827957
0.9902248289345064
0.989247311827957
0.9912023460410556
1.0039100684261977
1.0381231671554252
1.104594330400782
1.2072336265884651
1.346041055718475
1.5161290322580645
1.7067448680351909
1.9042033235581624
2.0957966764418376
2.251221896383187
2.378299120234604
2.5004887585532747
2.603128054740958
2.6823069403714563
2.73802541544477
2.771260997067449
2.787878787878788
2.790811339198436
2.7810361681329425
2.7624633431085046
2.7370478983382207
2.70772238514174
2.673509286412512
2.6373411534701856
2.5972629521016617
2.552297165200391
2.504398826979472
2.452590420332356
2.396871945259042
2.3382209188660803
2.275659824046921
2.209188660801564
2.136852394916911
2.0625610948191597
1.994134897360704
1.9286412512218964
1.8563049853372435
1.7810361681329423
1.70772238514174
1.6383186705767352
1.5747800586510263
1.517106549364614
1.4672531769305963
1.4271749755620724
1.3949169110459434
1.3695014662756595
1.3528836754643203
1.343108504398827
1.3343108504398826
1.3255131964809383
1.3176930596285434
1.310850439882698
1.3040078201368523
1.2971652003910068
1.289345063538612
1.2795698924731185
1.2668621700879763
1.2512218963831867
1.2336265884652982
1.2189638318670577
1.206256109481916
1.1925708699902249
1.1788856304985338
1.166177908113392
1.1534701857282503
1.1407624633431086
1.1300097751710656
1.1202346041055715
1.1114369501466277
1.1026392961876832
1.0928641251221896
1.086021505376344
1.0811339198435972
1.0742913000977516
1.067448680351906
1.0596285434995112
1.0518084066471165
1.04594330400782
1.043010752688172
1.0410557184750733
1.040078201368524
1.0391006842619743
1.0361681329423265
1.0361681329423265
1.0381231671554252
1.0391006842619743
1.0391006842619743
1.0391006842619743
1.0391006842619743
1.0391006842619743
1.0391006842619743
1.040078201368524
1.0420332355816226
1.0439882697947214
1.0469208211143697
1.0488758553274682
1.0518084066471165
1.0576735092864125
1.0635386119257086
1.0694037145650048
1.075268817204301
1.0811339198435972
1.086021505376344
1.0909090909090908
1.0948191593352885
1.096774193548387
1.0977517106549364
1.1006842619745845
1.1055718475073313
1.1114369501466277
1.1163245356793745
1.1202346041055715
1.1251221896383188
1.1290322580645162
1.1329423264907137
1.1368523949169111
1.13880742913001
1.1378299120234605
1.1358748778103618
1.1329423264907137
1.1319648093841643
1.1378299120234605
1.1534701857282503
1.1974584555229717
1.2746823069403714
1.3773216031280548
1.512218963831867
1.6774193548387095
1.865102639296188
2.0664711632453567
2.2658846529814274
2.450635386119257
2.6129032258064515
2.7331378299120237
2.8211143695014664
2.8963831867057674
2.9530791788856305
2.989247311827957
3.007820136852395
3.0087976539589443
2.995112414467253
2.970674486803519
2.9374389051808407
2.897360703812317
2.852394916911046
2.8044965786901277
2.755620723362659
2.7067448680351904
2.653958944281525
2.60019550342131
2.544477028347996
2.484848484848485
2.420332355816227
2.350928641251222
2.278592375366569
2.2023460410557183
2.124144672531769
2.0449657869012707
1.9745845552297163
1.9100684261974583
1.842619745845552
1.7781036168132942
1.7204301075268815
1.6715542521994136
1.6304985337243405
1.598240469208211
1.5747800586510263
1.5581622678396871
1.547409579667644
1.5395894428152492
1.5356793743890518
1.5347018572825024
1.533724340175953
1.530791788856305
1.5278592375366569
1.5239491691104594
1.5180840664711632
1.5083088954056696
1.4975562072336266
1.4858260019550342
1.474095796676442
1.4623655913978495
1.447702834799609
1.434017595307918
1.4203323558162269
1.4056695992179864
1.3900293255131966
1.3734115347018572
1.356793743890518
1.3411534701857282
1.3235581622678396
1.305962854349951
1.289345063538612
1.273704789833822
1.2590420332355816
1.2453567937438903
1.2355816226783969
1.227761485826002
1.2179863147605083
1.206256109481916
1.1945259042033236
1.1827956989247312
1.1700879765395895
1.1612903225806452
1.1564027370478984
1.1544477028347997
1.1534701857282503
1.152492668621701
1.1534701857282503
1.1534701857282503
1.152492668621701
1.152492668621701
1.152492668621701
1.152492668621701
1.1505376344086022
1.147605083088954
1.1436950146627567
1.1397849462365592
1.1378299120234605
1.1368523949169111
1.1368523949169111
1.13880742913001
1.141739980449658
1.142717497556207
1.1436950146627567
1.1436950146627567
1.1436950146627567
1.1436950146627567
1.1436950146627567
1.1436950146627567
1.144672531769306
1.1466275659824048
1.147605083088954
1.1485826001955035
1.1505376344086022
1.1505376344086022
1.147605083088954
1.141739980449658
1.1348973607038124
1.1280547409579669
1.1270772238514175
1.13880742913001
1.1720430107526882
1.2346041055718475
1.3333333333333333
1.4672531769305963
1.6050830889540566
1.7517106549364614
1.9315738025415443
2.1221896383186705
2.3059628543499517
2.4701857282502444
2.611925708699902
2.7282502443792764
2.8181818181818183
2.8826979472140764
2.9237536656891496
2.9442815249266863
2.945259042033236
2.932551319648094
2.913000977517106
2.886608015640274
2.8533724340175954
2.8152492668621703
2.7722385141739982
2.7262952101661777
2.67644183773216
2.622678396871945
2.565982404692082
2.50733137829912
2.444770283479961
2.3841642228739004
2.3225806451612905
2.254154447702835
2.179863147605083
2.1006842619745845
2.018572825024438
1.935483870967742
1.8523949169110456
1.7732160312805474
1.6989247311827955
1.6304985337243405
1.5698924731182795
1.52297165200391
1.487781036168133
1.455522971652004
1.4291300097751711
1.409579667644184
1.396871945259042
1.3900293255131966
1.3861192570869991
1.3841642228739004
1.3812316715542523
1.375366568914956
1.3685239491691104
1.3636363636363635
1.3577712609970674
1.3470185728250244
1.3333333333333333
1.3186705767350928
1.303030303030303
1.2873900293255132
1.270772238514174
1.2531769305962854
1.2346041055718475
1.217008797653959
1.2013685239491692
1.18475073313783
1.1730205278592376
1.164222873900293
1.155425219941349
1.1456500488758554
1.1358748778103618
1.1241446725317692
1.1133919843597262
1.1036168132942326
1.0948191593352885
1.0869990224828934
1.078201368523949
1.0703812316715542
1.0654936461388074
1.06158357771261
1.0557184750733135
1.0488758553274682
1.0410557184750733
1.0342130987292275
1.029325513196481
1.0263929618768328
1.024437927663734
1.024437927663734
1.024437927663734
1.0234604105571847
1.0234604105571847
1.0263929618768328
1.0273704789833822
1.0263929618768328
1.024437927663734
1.0234604105571847
1.024437927663734
1.024437927663734
1.024437927663734
1.024437927663734
1.024437927663734
1.024437927663734
1.024437927663734
1.0263929618768328
1.029325513196481
1.0312805474095796
1.032258064516129
1.032258064516129
1.032258064516129
1.032258064516129
1.032258064516129
1.0332355816226784
1.035190615835777
1.0361681329423265
1.0371456500488758
1.0361681329423265
1.035190615835777
1.035190615835777
1.0342130987292275
1.0371456500488758
1.0547409579667644
1.093841642228739
1.163245356793744
1.2688172043010753
1.4115347018572826
1.587487781036168
1.7878787878787878
1.9980449657869013
2.1788856304985336
2.3362658846529816
2.4946236559139785
2.6392961876832843
2.760508308895406
2.854349951124145
2.919843597262952
2.960899315738025
2.981427174975562
2.9765395894428157
2.9550342130987293
2.9286412512218964
2.898338220918866
2.8641251221896384
2.8260019550342133
2.7859237536656893
2.740957966764418
2.6930596285435
2.6422287390029324
2.587487781036168
2.527859237536657
2.464320625610948
2.396871945259042
2.324535679374389
2.247311827956989
2.175953079178885
2.1065493646138806
2.029325513196481
1.948191593352884
1.869012707722385
1.793743890518084
1.7243401759530792
1.6637341153470186
1.6129032258064515
1.5718475073313782
1.542521994134897
1.52297165200391
1.5102639296187683
1.5034213098729228
1.498533724340176
1.4965786901270772
1.4965786901270772
1.495601173020528
1.4926686217008798
1.4887585532746823
1.4848484848484849
1.479960899315738
1.4721407624633431
1.4623655913978495
1.4516129032258065
1.4418377321603129
1.4330400782013686
1.4222873900293256
1.409579667644184
1.3949169110459434
1.3792766373411536
1.364613880742913
1.3499511241446724
1.335288367546432
1.3225806451612905
1.3098729227761483
1.2971652003910068
1.284457478005865
1.2756598240469208
1.2688172043010753
1.2609970674486803
1.2541544477028348
1.249266862170088
1.2443792766373412
1.2404692082111437
1.2365591397849462
1.2336265884652982
1.2316715542521994
1.23069403714565
1.2316715542521994
1.2336265884652982
1.2355816226783969
1.2365591397849462
1.2365591397849462
1.2346041055718475
1.2336265884652982
1.2346041055718475
1.2375366568914956
1.2404692082111437
1.2443792766373412
1.2482893450635386
1.252199413489736
1.2551319648093842
1.2580645161290325
1.260019550342131
1.2609970674486803
1.2619745845552297
1.2619745845552297
1.2609970674486803
1.260019550342131
1.2580645161290325
1.2561094819159335
1.2551319648093842
1.2551319648093842
1.2551319648093842
1.2561094819159335
1.2570869990224829
1.2580645161290325
1.2580645161290325
1.2570869990224829
1.2541544477028348
1.249266862170088
1.241446725317693
1.2355816226783969
1.2365591397849462
1.2512218963831867
1.2883675464320623
1.356793743890518
1.4408602150537635
1.547409579667644
1.696969696969697
1.8748778103616808
2.067448680351906
2.260997067448681
2.443792766373412
2.606060606060606
2.740957966764418
2.8484848484848486
2.927663734115347
2.979472140762464
3.003910068426197
3.0087976539589443
3.002932551319648
2.98435972629521
2.956011730205278
2.920821114369501
2.878787878787879
2.832844574780059
2.782991202346041
2.730205278592375
2.674486803519061
2.6158357771261
2.560117302052786
2.5034213098729228
2.439882697947214
2.372434017595308
2.300097751710655
2.222873900293255
2.142717497556207
2.058651026392962
1.9716520039100685
1.8856304985337244
1.8035190615835777
1.7253176930596286
1.653958944281525
1.595307917888563
1.5483870967741935
1.5053763440860215
1.469208211143695
1.4418377321603129
1.4203323558162269
1.4056695992179864
1.396871945259042
1.391006842619746
1.388074291300098
1.3841642228739004
1.3782991202346042
1.3734115347018572
1.3695014662756595
1.3626588465298142
1.3528836754643203
1.3401759530791788
1.3255131964809383
1.3088954056695992
1.2903225806451613
1.2717497556207231
1.2531769305962854
1.2365591397849462
1.219941348973607
1.203323558162268
1.1906158357771262
1.1788856304985338
1.166177908113392
1.152492668621701
1.1397849462365592
1.1290322580645162
1.1202346041055715
1.1114369501466277
1.1016617790811338
1.0918866080156402
1.083088954056696
1.0742913000977516
1.0694037145650048
1.0654936461388074
1.0596285434995112
1.0527859237536656
1.04594330400782
1.0410557184750733
1.0361681329423265
1.0312805474095796
1.0283479960899315
1.0263929618768328
1.0254154447702837
1.0254154447702837
1.0254154447702837
1.0273704789833822
1.0303030303030305
1.032258064516129
1.0312805474095796
1.029325513196481
1.0273704789833822
1.0263929618768328
1.0254154447702837
1.0254154447702837
1.0254154447702837
1.0263929618768328
1.0283479960899315
1.0342130987292275
1.040078201368524
1.043010752688172
1.04594330400782
1.0498533724340176
1.0518084066471165
1.0527859237536656
1.053763440860215
1.056695992179863
1.0596285434995112
1.0606060606060606
1.06158357771261
1.0596285434995112
1.0576735092864125
1.0547409579667644
1.0488758553274682
1.0498533724340176
1.0703812316715542
1.1192570869990224
1.2043010752688172
1.3284457478005864
1.4897360703812317
1.6793743890518085
1.93841642228739
2.174975562072336
2.312805474095797
2.441837732160313
2.579667644183773
2.704789833822092
2.807429130009776
2.886608015640274
2.943304007820137
2.979472140762464
2.9960899315738025
2.997067448680352
2.98435972629521
2.960899315738025
2.929618768328446
2.89345063538612
2.854349951124145
2.812316715542522
2.766373411534702
2.716520039100684
2.664711632453568
2.608993157380254
2.549364613880743
2.4858260019550342
2.4173998044965788
2.343108504398827
2.2639296187683287
2.189638318670577
2.117302052785924
2.038123167155425
1.949169110459433
1.8602150537634408
1.7810361681329423
1.7096774193548387
1.6480938416422288
1.5943304007820136
1.5493646138807429
1.5151515151515151
1.490713587487781
1.474095796676442
1.4652981427174976
1.4604105571847508
1.458455522971652
1.456500488758553
1.4535679374389052
1.4496578690127078
1.4457478005865103
1.4418377321603129
1.435972629521017
1.4271749755620724
1.4164222873900294
1.404692082111437
1.3949169110459434
1.3851417399804498
1.3724340175953078
1.3607038123167154
1.3479960899315735
1.335288367546432
1.3206256109481915
1.305962854349951
1.2913000977517106
1.278592375366569
1.2668621700879763
1.2551319648093842
1.2443792766373412
1.238514173998045
1.2346041055718475
1.23069403714565
1.2267839687194526
1.2228739002932552
1.2189638318670577
1.2140762463343109
1.2101661779081134
1.206256109481916
1.2023460410557183
1.198435972629521
1.1945259042033236
1.1935483870967742
1.1945259042033236
1.195503421309873
1.1964809384164223
1.1994134897360704
1.2023460410557183
1.206256109481916
1.2101661779081134
1.2140762463343109
1.2179863147605083
1.2218963831867058
1.2258064516129032
1.2287390029325511
1.2316715542521994
1.2346041055718475
1.2355816226783969
1.2365591397849462
1.2365591397849462
1.2365591397849462
1.2365591397849462
1.2365591397849462
1.2375366568914956
1.2394916911045943
1.2424242424242424
1.2453567937438903
1.249266862170088
1.2531769305962854
1.2551319648093842
1.2551319648093842
1.252199413489736
1.24633431085044
1.2404692082111437
1.2365591397849462
1.238514173998045
1.2561094819159335
1.2981427174975562
1.3714565004887584
1.4819159335288368
1.6041055718475072
1.7409579667644184
1.916911045943304
2.112414467253177
2.3098729227761488
2.4946236559139785
2.6559139784946235
2.790811339198436
2.8963831867057674
2.9696969696969697
3.01564027370479
3.038123167155425
3.038123167155425
3.0146627565982405
2.988269794721408
2.963831867057673
2.927663734115347
2.8856304985337244
2.8377321603128056
2.7859237536656893
2.7331378299120237
2.678396871945259
2.619745845552297
2.558162267839687
2.4995112414467253
2.4389051808406648
2.3704789833822093
2.2952101661779083
2.2160312805474094
2.132942326490713
2.04594330400782
1.959921798631476
1.8758553274682308
1.7947214076246334
1.718475073313783
1.6500488758553276
1.590420332355816
1.5454545454545454
1.5131964809384164
