ppg
2.466275659824047
2.4486803519061584
2.4330400782013686
2.419354838709677
2.407624633431085
2.3978494623655915
2.388074291300098
2.378299120234604
2.3685239491691106
2.355816226783969
2.3382209188660803
2.398826979472141
2.4887585532746823
2.501466275659824
2.469208211143695
2.4086021505376345
2.329423264907136
2.2404692082111435
2.147605083088954
2.067448680351906
1.9960899315738023
1.9257086999022484
1.8631476050830889
1.8132942326490715
1.775171065493646
1.747800586510264
1.7302052785923754
1.7194525904203324
1.7116324535679377
1.7038123167155426
1.6959921798631477
1.689149560117302
1.6823069403714566
1.6705767350928642
1.656891495601173
1.640273704789834
1.6217008797653958
1.6021505376344083
1.581622678396872
1.5591397849462365
1.5366568914956011
1.5131964809384164
1.490713587487781
1.469208211143695
1.452590420332356
1.4389051808406648
1.4222873900293256
1.4027370478983383
1.383186705767351
1.364613880742913
1.346041055718475
1.3294232649071358
1.316715542521994
1.3049853372434017
1.2932551319648091
1.281524926686217
1.2727272727272727
1.2658846529814272
1.2551319648093842
1.2473118279569892
1.2541544477028348
1.2873900293255132
1.356793743890518
1.4682306940371457
1.6207233626588464
1.8064516129032255
2.0097751710654936
2.2140762463343107
2.403714565004888
2.550342130987292
2.6608015640273703
2.7546432062561097
2.8240469208211145
2.870967741935484
2.898338220918866
2.911045943304008
2.9120234604105573
2.903225806451613
2.886608015640274
2.866080156402737
2.844574780058651
2.8211143695014664
2.7996089931573804
2.7810361681329425
2.7653958944281527
2.752688172043011
2.740957966764418
2.7282502443792764
2.713587487781036
2.695014662756598
2.670576735092864
2.636363636363636
2.592375366568915
2.5376344086021505
2.4809384164222874
2.420332355816227
2.345063538611926
2.260997067448681
2.1730205278592374
2.0879765395894427
2.006842619745845
1.935483870967742
1.8758553274682308
1.828934506353861
1.7927663734115349
1.7653958944281525
1.747800586510264
1.7360703812316716
1.7253176930596286
1.7165200391006843
1.7067448680351909
1.6959921798631477
1.6842619745845553
1.6695992179863148
1.6520039100684265
1.632453567937439
1.6099706744868034
1.5865102639296187
1.5679374389051808
1.552297165200391
1.5327468230694037
1.5112414467253177
1.4897360703812317
1.4682306940371457
1.447702834799609
1.4291300097751711
1.412512218963832
1.3978494623655917
1.3841642228739004
1.370478983382209
1.356793743890518
1.3479960899315735
1.3421309872922775
1.332355816226784
1.321603128054741
1.3098729227761483
1.295210166177908
1.278592375366569
1.260019550342131
1.24633431085044
1.2473118279569892
1.2756598240469208
1.3440860215053765
1.436950146627566
1.563049853372434
1.7419354838709675
1.956989247311828
2.188660801564027
2.4173998044965788
2.624633431085044
2.7966764418377323
2.929618768328446
3.0254154447702835
3.0879765395894427
3.1251221896383186
3.142717497556207
3.142717497556207
3.1309872922776147
3.113391984359726
3.0928641251221896
3.069403714565005
3.046920821114369
3.027370478983382
3.0117302052785924
2.99902248289345
2.989247311827957
2.9804496578690127
2.9696969696969697
2.9550342130987293
2.936461388074292
2.9120234604105573
2.8797653958944283
2.8367546432062563
2.782013685239492
2.7145650048875853
2.634408602150537
2.5425219941348973
2.441837732160313
2.3362658846529816
2.23069403714565
2.129032258064516
2.0449657869012707
1.975562072336266
1.911045943304008
1.857282502443793
1.8162267839687196
1.7869012707722385
1.7683284457478006
1.7565982404692082
1.747800586510264
1.739980449657869
1.7302052785923754
1.7194525904203324
1.7116324535679377
1.7038123167155426
1.6920821114369502
1.6774193548387095
1.6598240469208212
1.6412512218963833
1.6207233626588464
1.6001955034213098
1.5786901270772238
1.5581622678396871
1.5356793743890518
1.512218963831867
1.487781036168133
1.4682306940371457
1.4506353861192571
1.4291300097751711
1.4056695992179864
1.383186705767351
1.3616813294232648
1.343108504398827
1.3294232649071358
1.3186705767350928
1.3079178885630498
1.2971652003910068
1.2854349951124144
1.2776148582600195
1.2697947214076246
1.260019550342131
1.2570869990224829
1.2727272727272727
1.3196480938416422
1.4105571847507332
1.5513196480938416
1.737047898338221
1.9550342130987293
2.187683284457478
2.4164222873900294
2.624633431085044
2.7839687194525906
2.902248289345064
3.002932551319648
3.080156402737048
3.131964809384164
3.161290322580645
3.172043010752688
3.1700879765395893
3.1593352883675463
3.142717497556207
3.12316715542522
3.103616813294233
3.083088954056696
3.064516129032258
3.050830889540567
3.040078201368524
3.03128054740958
3.0234604105571847
3.013685239491691
3.0009775171065494
2.981427174975562
2.9530791788856305
2.913978494623656
2.865102639296188
2.8025415444770285
2.73802541544477
2.6695992179863146
2.587487781036168
2.495601173020528
2.39980449657869
2.304007820136853
2.2130987292277613
2.132942326490713
2.064516129032258
2.0097751710654936
1.9687194525904204
1.8856304985337244
1.7849462365591398
1.7331378299120237
1.7028347996089932
1.6823069403714566
1.6656891495601174
1.6480938416422288
1.629521016617791
1.608993157380254
1.5865102639296187
1.563049853372434
1.5376344086021505
1.512218963831867
1.4868035190615836
1.466275659824047
1.4467253176930597
1.423264907135875
1.396871945259042
1.3685239491691104
1.3401759530791788
1.310850439882698
1.2825024437927663
1.2551319648093842
1.2287390029325511
1.2043010752688172
1.1827956989247312
1.1691104594330402
1.160312805474096
1.1495601173020529
1.13880742913001
1.126099706744868
1.110459433040078
1.0928641251221896
1.0772238514173995
1.0703812316715542
1.083088954056696
1.1300097751710656
1.2209188660801564
1.3626588465298142
1.521016617790811
1.699902248289345
1.9227761485826005
2.164222873900293
2.398826979472141
2.608993157380254
2.7839687194525906
2.918866080156403
3.016617790811339
3.0821114369501466
3.121212121212121
3.1388074291300097
3.1378299120234603
3.126099706744868
3.10752688172043
3.0821114369501466
3.053763440860215
3.024437927663734
2.9960899315738025
2.970674486803519
2.9501466275659824
2.932551319648094
2.916911045943304
2.903225806451613
2.8856304985337244
2.865102639296188
2.8406647116324537
2.8103616813294234
2.7702834799608995
2.718475073313783
2.654936461388074
2.5777126099706744
2.487781036168133
2.389051808406647
2.2844574780058653
2.1788856304985336
2.0772238514174
1.994134897360704
1.9257086999022484
1.8621700879765395
1.8084066471163245
1.7663734115347018
1.7350928641251222
1.710654936461388
1.6901270772238517
1.672531769305963
1.6549364613880744
1.635386119257087
1.6138807429130009
1.595307917888563
1.5777126099706744
1.5562072336265884
1.5317693059628543
1.5053763440860215
1.47702834799609
1.4467253176930597
1.41544477028348
1.3822091886608017
1.3479960899315735
1.3147605083088951
1.284457478005865
1.2561094819159335
1.2346041055718475
1.2160312805474096
1.1945259042033236
1.173998044965787
1.1544477028347997
1.1348973607038124
1.1173020527859236
1.1016617790811338
1.0869990224828934
1.0713587487781036
1.0557184750733135
1.0391006842619743
1.0273704789833822
1.021505376344086
1.0195503421309873
1.0361681329423265
1.0850439882697946
1.176930596285435
1.3186705767350928
1.5083088954056696
1.7331378299120237
1.975562072336266
2.2170087976539588
2.439882697947214
2.632453567937439
2.773216031280548
2.8719452590420333
2.9530791788856305
3.0127077223851417
3.0498533724340176
3.0664711632453567
3.067448680351906
3.056695992179863
3.037145650048876
3.010752688172043
2.9824046920821115
2.95405669599218
2.924731182795699
2.8963831867057674
2.870967741935484
2.849462365591398
2.83088954056696
2.812316715542522
2.793743890518084
2.7722385141739982
2.744868035190616
2.708699902248289
2.66177908113392
2.601173020527859
2.525904203323558
2.4486803519061584
2.367546432062561
2.270772238514174
2.163245356793744
2.0547409579667644
1.951124144672532
1.857282502443793
1.7761485826001957
1.7096774193548387
1.6578690127077225
1.6187683284457477
1.5894428152492668
1.56891495601173
1.5532746823069403
1.5347018572825024
1.5141739980449658
1.4916911045943304
1.4682306940371457
1.4457478005865103
1.426197458455523
1.4086021505376345
1.391006842619746
1.3714565004887584
1.3519061583577712
1.3313782991202343
1.3147605083088951
1.2991202346041055
1.2776148582600195
1.2541544477028348
1.2287390029325511
1.203323558162268
1.1788856304985338
1.1544477028347997
1.1300097751710656
1.10752688172043
1.0869990224828934
1.0694037145650048
1.0576735092864125
1.0488758553274682
1.0361681329423265
1.0224828934506354
1.007820136852395
0.997067448680352
0.9951124144672532
1.0127077223851415
1.0606060606060606
1.1495601173020529
1.2854349951124144
1.4643206256109482
1.675464320625611
1.8729227761485825
2.058651026392962
2.2561094819159337
2.4389051808406648
2.592375366568915
2.7116324535679373
2.795698924731183
2.849462365591398
2.8797653958944283
2.89247311827957
2.8914956011730206
2.8797653958944283
2.8611925708699903
2.838709677419355
2.81622678396872
2.7947214076246336
2.776148582600196
2.7595307917888565
2.745845552297165
2.7331378299120237
2.720430107526881
2.704789833822092
2.6852394916911044
2.658846529814272
2.624633431085044
2.5855327468230693
2.5376344086021505
2.474095796676442
2.3949169110459434
2.302052785923754
2.1974584555229715
2.0869990224828934
1.9775171065493649
1.8748778103616808
1.782991202346041
1.704789833822092
1.6422287390029326
1.5992179863147604
1.5708699902248289
1.5493646138807429
1.5327468230694037
1.5180840664711632
1.504398826979472
1.4897360703812317
1.474095796676442
1.456500488758553
1.4389051808406648
1.4213098729227762
1.4037145650048877
1.3851417399804498
1.3695014662756595
1.3558162267839686
1.3372434017595307
1.3157380254154447
1.29227761485826
1.2649071358748778
1.2355816226783969
1.2072336265884651
1.1788856304985338
1.1505376344086022
1.1231671554252198
1.0957966764418376
1.0742913000977516
1.056695992179863
1.035190615835777
1.013685239491691
0.9921798631476052
0.9726295210166178
0.9560117302052786
0.9413489736070382
0.9266862170087976
0.9100684261974584
0.8924731182795699
0.8787878787878788
0.8797653958944281
0.8983382209188661
0.9442815249266864
1.032258064516129
1.1720430107526882
1.3616813294232648
1.5913978494623655
1.8435972629521016
2.0977517106549364
2.333333333333333
2.536656891495601
2.6989247311827955
2.820136852394917
2.895405669599218
2.93841642228739
2.964809384164223
2.975562072336266
2.9745845552297165
2.963831867057673
2.946236559139785
2.924731182795699
2.902248289345064
2.8807429130009776
2.8611925708699903
2.844574780058651
2.8289345063538613
2.814271749755621
2.801564027370479
2.788856304985337
2.776148582600196
2.7595307917888565
2.736070381231672
2.7038123167155423
2.66177908113392
2.6080156402737047
2.5425219941348973
2.4652981427174976
2.377321603128055
2.2932551319648096
2.210166177908113
2.1163245356793743
2.0195503421309877
1.924731182795699
1.8377321603128052
1.7624633431085044
1.6989247311827955
1.6480938416422288
1.607038123167155
1.5747800586510263
1.5464320625610948
1.5239491691104594
1.5053763440860215
1.482893450635386
1.458455522971652
1.4320625610948192
1.4037145650048877
1.375366568914956
1.3470185728250244
1.3196480938416422
1.29227761485826
1.2668621700879763
1.2424242424242424
1.2179863147605083
1.1994134897360704
1.1837732160312806
1.1652003910068427
1.1456500488758554
1.126099706744868
1.1085043988269794
1.0928641251221896
1.0801564027370478
1.0684261974584557
1.0586510263929618
1.0518084066471165
1.0449657869012707
1.0420332355816226
1.0391006842619743
1.0312805474095796
1.0175953079178883
1.0
0.981427174975562
0.9687194525904204
0.9726295210166178
1.007820136852395
1.086021505376344
1.2121212121212122
1.3841642228739004
1.5923753665689149
1.790811339198436
1.9794721407624636
2.182795698924731
2.375366568914956
2.541544477028348
2.675464320625611
2.777126099706745
2.849462365591398
2.898338220918866
2.927663734115347
2.9423264907135875
2.945259042033236
2.936461388074292
2.921798631476051
2.905180840664712
2.8885630498533725
2.8729227761485827
2.8582600195503423
2.8455522971652005
2.833822091886608
2.8211143695014664
2.806451612903226
2.7869012707722387
2.7614858260019552
2.727272727272727
2.686217008797654
2.638318670576735
2.575757575757576
2.5004887585532747
2.4134897360703813
2.317693059628544
2.21505376344086
2.1094819159335287
2.005865102639296
1.9100684261974583
1.825024437927664
1.7526881720430108
1.699902248289345
1.6627565982404693
1.6334310850439884
1.6129032258064515
1.598240469208211
1.5894428152492668
1.5826001955034212
1.5747800586510263
1.5650048875855327
1.552297165200391
1.5356793743890518
1.5161290322580645
1.4936461388074291
1.4731182795698925
1.4545454545454546
1.4320625610948192
1.4066471163245358
1.3812316715542523
1.3548387096774193
1.3284457478005864
1.3010752688172045
1.2746823069403714
1.249266862170088
1.2238514173998043
1.198435972629521
1.1808406647116323
1.166177908113392
1.147605083088954
1.1270772238514175
1.10752688172043
1.0899315738025417
1.0733137829912025
1.0576735092864125
1.0410557184750733
1.0234604105571847
1.0068426197458455
0.9941348973607038
0.9951124144672532
1.0146627565982405
1.06158357771261
1.1515151515151516
1.29227761485826
1.4809384164222874
1.7067448680351909
1.9530791788856303
2.198435972629521
2.4252199413489737
2.6207233626588464
2.777126099706745
2.8944281524926687
2.9687194525904204
3.0117302052785924
3.0391006842619745
3.0518084066471163
3.0518084066471163
3.0410557184750733
3.0234604105571847
3.0009775171065494
2.9765395894428157
2.952101661779081
2.9286412512218964
2.9071358748778104
2.887585532746823
2.868035190615836
2.8484848484848486
2.8299120234604107
2.807429130009776
2.780058651026393
2.745845552297165
2.7008797653958942
2.6451612903225805
2.5777126099706744
2.498533724340176
2.409579667644184
2.3118279569892475
2.220918866080156
2.134897360703812
2.042033235581622
1.948191593352884
1.8602150537634408
1.7839687194525904
1.7194525904203324
1.6666666666666667
1.624633431085044
1.5913978494623655
1.5650048875855327
1.541544477028348
1.520039100684262
1.5034213098729228
1.487781036168133
1.469208211143695
1.447702834799609
1.4242424242424243
1.3998044965786902
1.3743890518084063
1.3479960899315735
1.3206256109481915
1.2932551319648091
1.2649071358748778
1.2355816226783969
1.2121212121212122
1.1925708699902249
1.1700879765395895
1.144672531769306
1.1173020527859236
1.0899315738025417
1.0635386119257086
1.0391006842619743
1.0156402737047898
2.6911045943304006
2.687194525904203
2.674486803519061
2.6559139784946235
2.633431085043988
2.608993157380254
2.5855327468230693
2.5640273704789838
2.544477028347996
2.527859237536657
2.5141739980449658
2.501466275659824
2.4858260019550342
2.4672531769305963
2.442815249266862
2.410557184750733
2.3743890518084068
2.333333333333333
2.281524926686217
2.2170087976539588
2.142717497556207
2.06158357771261
1.9765395894428155
1.8905180840664717
1.8084066471163245
1.7331378299120237
1.6686217008797657
1.616813294232649
1.581622678396872
1.5571847507331378
1.5366568914956011
1.520039100684262
1.5053763440860215
1.4916911045943304
1.47702834799609
1.4604105571847508
1.4418377321603129
1.4222873900293256
1.401759530791789
1.3812316715542523
1.3607038123167154
1.3440860215053765
1.3294232649071358
1.310850439882698
1.2903225806451613
1.2688172043010753
1.2453567937438903
1.2218963831867058
1.198435972629521
1.1749755620723363
1.1534701857282503
1.1319648093841643
1.1124144672531768
1.099706744868035
1.0909090909090908
1.0801564027370478
1.0703812316715542
1.0606060606060606
1.050830889540567
1.0391006842619743
1.024437927663734
1.0087976539589445
0.997067448680352
0.9960899315738024
1.0166177908113392
1.0703812316715542
1.1456500488758554
1.2502443792766371
1.4027370478983383
1.5913978494623655
1.7996089931573802
2.007820136852395
2.198435972629521
2.360703812316716
2.487781036168133
2.5806451612903225
2.6422287390029324
2.677419354838709
2.69208211143695
2.69208211143695
2.6852394916911044
2.6725317693059627
2.654936461388074
2.634408602150537
2.613880742913001
2.595307917888563
2.5777126099706744
2.5610948191593352
2.547409579667644
2.535679374389052
2.5239491691104594
2.5112414467253177
2.4975562072336266
2.4809384164222874
2.4594330400782014
2.4301075268817205
2.3919843597262958
2.345063538611926
2.2873900293255134
2.218963831867057
2.142717497556207
2.059628543499511
1.970674486803519
1.89247311827957
1.823069403714565
1.7497556207233629
1.6823069403714566
1.6265884652981428
1.5826001955034212
1.5493646138807429
1.5249266862170088
1.5073313782991202
1.4936461388074291
1.4819159335288368
1.4701857282502444
1.456500488758553
1.4437927663734116
1.43108504398827
1.414467253176931
1.396871945259042
1.3773216031280548
1.3558162267839686
1.335288367546432
1.313782991202346
1.2932551319648091
1.273704789833822
1.2531769305962854
1.2336265884652982
1.219941348973607
1.2082111436950147
1.1915933528836755
1.1710654936461389
1.1495601173020529
1.1290322580645162
1.1094819159335287
1.0918866080156402
1.0772238514173995
1.0654936461388074
1.0557184750733135
1.0469208211143697
1.0371456500488758
1.029325513196481
1.0224828934506354
1.0146627565982405
1.0156402737047898
1.0371456500488758
1.0918866080156402
1.1867057673509287
1.3235581622678396
1.498533724340176
1.6979472140762464
1.905180840664712
2.102639296187683
2.259042033235582
2.3792766373411536
2.484848484848485
2.5650048875855327
2.619745845552297
2.652003910068426
2.6666666666666665
2.668621700879765
2.6608015640273703
2.64613880742913
2.6265884652981426
2.6050830889540566
2.5835777126099706
2.5620723362658846
2.5434995112414467
2.527859237536657
2.5161290322580645
2.5083088954056696
2.501466275659824
2.493646138807429
2.484848484848485
2.4701857282502444
2.4486803519061584
2.4164222873900294
2.3734115347018574
2.326490713587488
2.2737047898338223
2.206256109481916
2.129032258064516
2.0449657869012707
1.9589442815249267
1.8758553274682308
1.7996089931573802
1.7311827956989247
1.6744868035190617
1.629521016617791
1.595307917888563
1.5708699902248289
1.5562072336265884
1.547409579667644
1.5395894428152492
1.5327468230694037
1.5249266862170088
1.5151515151515151
1.5024437927663734
1.487781036168133
1.4711632453567938
1.4516129032258065
1.4320625610948192
1.4105571847507332
1.392961876832845
1.3763440860215057
1.356793743890518
1.3343108504398826
1.310850439882698
1.2873900293255132
1.2658846529814272
1.2453567937438903
1.2258064516129032
1.2072336265884651
1.1896383186705768
1.1730205278592376
1.1622678396871946
1.155425219941349
1.1466275659824048
1.13880742913001
1.1319648093841643
1.1241446725317692
1.1133919843597262
1.099706744868035
1.0869990224828934
1.083088954056696
1.096774193548387
1.1397849462365592
1.2209188660801564
1.3225806451612905
1.4496578690127078
1.6207233626588464
1.8191593352883677
2.024437927663734
2.218963831867057
2.455522971652004
2.696969696969697
2.8582600195503423
2.962854349951124
3.0254154447702835
3.059628543499511
3.071358748778104
3.0684261974584555
3.0576735092864125
3.040078201368524
3.0175953079178885
2.994134897360704
2.970674486803519
2.949169110459433
2.929618768328446
2.913000977517106
2.898338220918866
2.884652981427175
2.870967741935484
2.854349951124145
2.832844574780059
2.8054740957966766
2.771260997067449
2.7253176930596283
2.6666666666666665
2.5962854349951123
2.512218963831867
2.4173998044965788
2.314760508308896
2.209188660801564
2.104594330400782
2.01564027370479
1.9393939393939397
1.865102639296188
1.8005865102639296
1.747800586510264
1.70772238514174
1.678396871945259
1.6588465298142718
1.6451612903225807
1.6344086021505375
1.6236559139784943
1.6109481915933528
1.5972629521016617
1.5865102639296187
1.576735092864125
1.5620723362658846
1.543499511241447
1.52297165200391
1.500488758553275
1.47702834799609
1.4516129032258065
1.426197458455523
1.3988269794721409
1.370478983382209
1.3421309872922775
1.3196480938416422
1.3020527859237536
1.2805474095796676
1.2590420332355816
1.2375366568914956
1.2150537634408602
1.195503421309873
1.1779081133919844
1.163245356793744
1.1495601173020529
1.1368523949169111
1.1241446725317692
1.1094819159335287
1.0987292277614855
1.0909090909090908
1.0850439882697946
1.0928641251221896
1.126099706744868
1.198435972629521
1.3176930596285434
1.4819159335288368
1.6842619745845553
1.911045943304008
2.1436950146627565
2.3626588465298144
2.5347018572825024
2.665689149560117
2.780058651026393
2.8690127077223853
2.932551319648094
2.9745845552297165
2.9980449657869013
3.007820136852395
3.006842619745845
2.9960899315738025
2.9775171065493646
2.95405669599218
2.927663734115347
2.9012707722385143
2.875855327468231
2.854349951124145
2.834799608993157
2.81622678396872
2.798631476050831
2.7810361681329425
2.760508308895406
2.735092864125122
2.7008797653958942
2.656891495601173
2.6021505376344085
2.544477028347996
2.4809384164222874
2.403714565004888
2.3167155425219943
2.225806451612903
2.1358748778103616
2.0518084066471163
1.978494623655914
1.916911045943304
1.8670576735092863
1.827956989247312
1.796676441837732
1.7702834799608993
1.7517106549364614
1.7360703812316716
1.7174975562072337
1.696969696969697
1.6744868035190617
1.651026392961877
1.6275659824046922
1.603128054740958
1.5777126099706744
1.552297165200391
1.5268817204301075
1.500488758553275
1.478983382209189
1.4594330400782014
1.4349951124144673
1.4086021505376345
1.3812316715542523
1.3548387096774193
1.3304007820136852
1.3079178885630498
1.2873900293255132
1.2697947214076246
1.2561094819159335
1.2453567937438903
1.2365591397849462
1.2336265884652982
1.2316715542521994
1.224828934506354
1.2140762463343109
1.198435972629521
1.1808406647116323
1.166177908113392
1.1612903225806452
1.1808406647116323
1.2365591397849462
1.3391984359726294
1.4936461388074291
1.66177908113392
1.8494623655913975
2.081133919843597
2.326490713587488
2.5610948191593352
2.7673509286412514
2.935483870967742
3.0635386119257086
3.15347018572825
3.2111436950146626
3.244379276637341
3.260019550342131
3.2629521016617797
3.254154447702835
3.2375366568914954
3.2170087976539588
3.1925708699902247
3.1681329423264906
3.1436950146627565
3.121212121212121
3.1006842619745845
3.081133919843597
3.0625610948191597
3.043010752688172
3.021505376344086
2.995112414467253
2.963831867057673
2.9227761485826003
2.8699902248289346
2.8044965786901277
2.7262952101661777
2.636363636363636
2.536656891495601
2.4301075268817205
2.3225806451612905
2.218963831867057
2.12316715542522
2.0391006842619745
1.9736070381231672
1.9237536656891496
1.8797653958944285
1.844574780058651
1.818181818181818
1.7956989247311828
1.7741935483870968
1.75366568914956
1.7331378299120237
1.7116324535679377
1.689149560117302
1.6666666666666667
1.6480938416422288
1.6314760508308896
1.6109481915933528
1.5884652981427174
1.563049853372434
1.5366568914956011
1.5083088954056696
1.478005865102639
1.4467253176930597
1.41544477028348
1.3841642228739004
1.35386119257087
1.332355816226784
1.3157380254154447
1.295210166177908
1.273704789833822
1.2541544477028348
1.2355816226783969
1.2189638318670577
1.203323558162268
1.1896383186705768
1.176930596285435
1.1622678396871946
1.1466275659824048
1.130987292277615
1.1251221896383188
1.1329423264907137
1.163245356793744
1.2316715542521994
1.348973607038123
1.520039100684262
1.7380254154447703
1.988269794721408
2.2521994134897363
