ppg
2.58455522971652
2.5532746823069403
2.5180840664711632
2.4780058651026398
2.4330400782013686
2.386119257086999
2.3391984359726297
2.291300097751711
2.2453567937438903
2.2023460410557183
2.1622678396871944
2.126099706744868
2.0957966764418376
2.069403714565005
2.043010752688172
2.0195503421309877
1.9951124144672527
1.9696969696969695
1.945259042033236
1.919843597262952
1.8944281524926687
1.869012707722385
1.8435972629521016
1.8172043010752688
1.7888563049853372
1.7634408602150538
1.7360703812316716
1.704789833822092
1.6715542521994136
1.6383186705767352
1.6041055718475072
1.5708699902248289
1.5395894428152492
1.5083088954056696
1.478005865102639
1.4486803519061584
1.4213098729227762
1.4007820136852396
1.3822091886608017
1.3607038123167154
1.3372434017595307
1.313782991202346
1.2913000977517106
1.2697947214076246
1.249266862170088
1.2297165200391007
1.2101661779081134
1.1896383186705768
1.1710654936461389
1.1564027370478984
1.1485826001955035
1.144672531769306
1.13880742913001
1.130987292277615
1.1231671554252198
1.1133919843597262
1.099706744868035
1.0840664711632453
1.067448680351906
1.050830889540567
1.0361681329423265
1.0254154447702837
1.0224828934506354
1.0263929618768328
1.0361681329423265
1.056695992179863
1.0928641251221896
1.144672531769306
1.2150537634408602
1.303030303030303
1.4056695992179864
1.521016617790811
1.64613880742913
1.775171065493646
1.9012707722385145
2.0087976539589443
2.102639296187683
2.201368523949169
2.2981427174975564
2.3870967741935485
2.464320625610948
2.529814271749756
2.582600195503421
2.624633431085044
2.6559139784946235
2.678396871945259
2.69208211143695
2.695014662756598
2.69208211143695
2.686217008797654
2.67644183773216
2.6608015640273703
2.6402737047898337
2.6158357771261
2.5865102639296187
2.5513196480938416
2.512218963831867
2.4711632453567938
2.429130009775171
2.388074291300098
2.3519061583577714
2.317693059628544
2.283479960899316
2.2521994134897363
2.225806451612903
2.204301075268817
2.1847507331378297
2.166177908113392
2.1485826001955037
2.1309872922776147
2.113391984359726
2.0977517106549364
2.0840664711632453
2.070381231671554
2.0527859237536656
2.0332355816226784
2.0097751710654936
1.9833822091886608
1.9550342130987293
1.924731182795699
1.89247311827957
1.8592375366568916
1.8269794721407624
1.7956989247311828
1.76930596285435
1.7458455522971652
1.7194525904203324
1.6901270772238517
1.6578690127077225
1.624633431085044
1.5923753665689149
1.5610948191593352
1.5327468230694037
1.5073313782991202
1.4838709677419355
1.4613880742913
1.4408602150537635
1.426197458455523
1.41544477028348
1.4037145650048877
1.391006842619746
1.3792766373411536
1.3695014662756595
1.3587487781036167
1.3450635386119256
1.332355816226784
1.3186705767350928
1.303030303030303
1.2873900293255132
1.2776148582600195
1.270772238514174
1.262952101661779
1.2570869990224829
1.252199413489736
1.2482893450635386
1.2482893450635386
1.2561094819159335
1.2746823069403714
1.3079178885630498
1.3577712609970674
1.426197458455523
1.5151515151515151
1.607038123167155
1.7028347996089932
1.8191593352883677
1.949169110459433
2.0840664711632453
2.2170087976539588
2.345063538611926
2.466275659824047
2.5777126099706744
2.6803519061583576
2.771260997067449
2.849462365591398
2.906158357771261
2.946236559139785
2.983382209188661
3.0146627565982405
3.0410557184750733
3.0625610948191597
3.0791788856304985
3.089931573802541
3.096774193548387
3.0987292277614857
3.0957966764418376
3.086021505376344
3.0449657869012707
2.9853372434017595
2.9393939393939394
2.898338220918866
2.8563049853372435
2.811339198435973
2.764418377321604
2.7145650048875853
2.662756598240469
2.6099706744868034
2.558162267839687
2.506353861192571
2.4565004887585533
2.4134897360703813
2.375366568914956
2.337243401759531
2.3010752688172045
2.264907135874878
2.2277614858260018
2.1915933528836757
2.157380254154448
2.12316715542522
2.088954056695992
2.056695992179863
2.0234604105571847
1.989247311827957
1.9589442815249267
1.9315738025415443
1.902248289345064
1.871945259042033
1.839687194525904
1.8064516129032255
1.7712609970674489
1.7360703812316716
1.7018572825024438
1.6686217008797657
1.635386119257087
1.603128054740958
1.5777126099706744
1.5562072336265884
1.5317693059628543
1.5053763440860215
1.478005865102639
1.4516129032258065
1.426197458455523
1.401759530791789
1.3782991202346042
1.3558162267839686
1.335288367546432
1.316715542521994
1.2991202346041055
1.2864125122189638
1.2776148582600195
1.2649071358748778
1.2502443792766371
1.2355816226783969
1.2189638318670577
1.2043010752688172
1.1896383186705768
1.173998044965787
1.160312805474096
1.1495601173020529
1.141739980449658
1.1397849462365592
1.144672531769306
1.1564027370478984
1.1798631476050832
1.217008797653959
1.2727272727272727
1.3450635386119256
1.434017595307918
1.5366568914956011
1.6500488758553276
1.772238514173998
1.900293255131965
2.0283479960899315
2.136852394916911
2.2346041055718477
2.3382209188660803
2.4379276637341154
2.530791788856305
2.6129032258064515
2.684261974584555
2.745845552297165
2.7976539589442817
2.841642228739003
2.878787878787879
2.909090909090909
2.927663734115347
2.9374389051808407
2.9472140762463344
2.9550342130987293
2.9589442815249267
2.956989247311828
2.949169110459433
2.936461388074292
2.918866080156403
2.8963831867057674
2.866080156402737
2.827956989247312
2.7839687194525906
2.73802541544477
2.689149560117302
2.634408602150537
2.575757575757576
2.5161290322580645
2.4565004887585533
2.398826979472141
2.343108504398827
2.290322580645161
2.241446725317693
2.196480938416422
2.15347018572825
2.117302052785924
2.086021505376344
2.0547409579667644
2.024437927663734
1.9931573802541545
1.9608993157380252
1.9286412512218964
1.8963831867057677
1.865102639296188
1.833822091886608
1.801564027370479
1.7673509286412512
1.732160312805474
1.7028347996089932
1.6764418377321604
1.64613880742913
1.6129032258064515
1.5796676441837731
1.5483870967741935
1.5161290322580645
1.4858260019550342
1.456500488758553
1.4281524926686218
1.4007820136852396
1.375366568914956
1.3558162267839686
1.3391984359726294
1.3196480938416422
1.300097751710655
1.281524926686217
1.262952101661779
1.2443792766373412
1.227761485826002
1.2111436950146628
1.195503421309873
1.181818181818182
1.1691104594330402
1.1612903225806452
1.1544477028347997
1.142717497556207
1.1290322580645162
1.1143695014662756
1.0987292277614855
1.0840664711632453
1.0733137829912025
1.067448680351906
1.0694037145650048
1.0821114369501466
1.1094819159335287
1.1534701857282503
1.206256109481916
1.270772238514174
1.3558162267839686
1.457478005865103
1.5708699902248289
1.6911045943304008
1.8162267839687196
1.9403714565004888
2.059628543499511
2.172043010752688
2.274682306940372
2.3685239491691106
2.443792766373412
2.5024437927663734
2.560117302052786
2.611925708699902
2.6559139784946235
2.6911045943304006
2.718475073313783
2.739980449657869
2.755620723362659
2.766373411534702
2.773216031280548
2.777126099706745
2.7751710654936463
2.7653958944281527
2.747800586510264
2.7253176930596283
2.696969696969697
2.662756598240469
2.6236559139784945
2.578690127077224
2.530791788856305
2.479960899315738
2.426197458455523
2.372434017595308
2.320625610948192
2.274682306940372
2.233626588465298
2.1925708699902247
2.1515151515151514
2.1114369501466275
2.0733137829912023
2.040078201368524
2.0087976539589443
1.9794721407624636
1.9521016617790807
1.9266862170087975
1.902248289345064
1.8758553274682308
1.8387096774193548
1.8132942326490715
1.7849462365591398
1.7380254154447703
1.704789833822092
1.672531769305963
1.640273704789834
1.6080156402737047
1.576735092864125
1.5454545454545454
1.512218963831867
1.4848484848484849
1.4613880742913
1.4349951124144673
1.4076246334310851
1.380254154447703
1.3548387096774193
1.3313782991202343
1.3098729227761483
1.289345063538612
1.2688172043010753
1.2482893450635386
1.2297165200391007
1.2121212121212122
1.1994134897360704
1.1896383186705768
1.1779081133919844
1.1593352883675463
1.1466275659824048
1.133919843597263
1.115347018572825
1.1016617790811338
1.0879765395894427
1.075268817204301
1.0635386119257086
1.0586510263929618
1.0586510263929618
1.0576735092864125
1.0586510263929618
1.0664711632453567
1.0840664711632453
1.1065493646138806
1.141739980449658
1.2023460410557183
1.2834799608993157
1.3812316715542523
1.5542521994134897
1.6705767350928642
1.7781036168132942
1.945259042033236
2.06158357771261
2.172043010752688
2.2737047898338223
2.4056695992179864
2.479960899315738
2.5425219941348973
2.616813294232649
2.652003910068426
2.673509286412512
2.6852394916911044
2.695014662756598
2.699902248289345
2.6989247311827955
2.695014662756598
2.686217008797654
2.6715542521994133
2.6510263929618767
2.6236559139784945
2.591397849462365
2.5562072336265884
2.5161290322580645
2.47702834799609
2.4359726295210167
2.391006842619746
2.345063538611926
2.3010752688172045
2.260019550342131
2.2218963831867056
2.1867057673509285
2.1524926686217007
2.1192570869990224
2.0869990224828934
2.0557184750733137
2.0283479960899315
2.003910068426197
1.9775171065493649
1.9501466275659824
1.924731182795699
1.8983382209188664
1.8699902248289344
1.8387096774193548
1.8074291300097751
1.7771260997067448
1.7438905180840665
1.7096774193548387
1.6764418377321604
1.6480938416422288
1.6226783968719452
1.5933528836754642
1.563049853372434
1.533724340175953
1.504398826979472
1.4750733137829912
1.4457478005865103
1.4173998044965788
1.3900293255131966
1.3626588465298142
1.3372434017595307
1.316715542521994
1.300097751710655
1.281524926686217
1.262952101661779
1.2453567937438903
1.2287390029325511
1.2130987292277615
1.1964809384164223
1.1798631476050832
1.1652003910068427
1.1534701857282503
1.1407624633431086
1.1280547409579669
1.1221896383186705
1.1173020527859236
1.1065493646138806
1.0928641251221896
1.0772238514173995
1.06158357771261
1.0449657869012707
1.032258064516129
1.024437927663734
1.0234604105571847
1.032258064516129
1.0547409579667644
1.0879765395894427
1.130987292277615
1.1906158357771262
1.2688172043010753
1.3626588465298142
1.469208211143695
1.587487781036168
1.7126099706744868
1.839687194525904
1.964809384164223
2.0840664711632453
2.196480938416422
2.2981427174975564
2.377321603128055
2.4408602150537635
2.5024437927663734
2.558162267839687
2.6041055718475072
2.6402737047898337
2.6666666666666665
2.6832844574780057
2.69208211143695
2.6940371456500487
2.69208211143695
2.686217008797654
2.674486803519061
2.6578690127077222
2.635386119257087
2.6070381231671558
2.5718475073313782
2.532746823069404
2.4887585532746823
2.441837732160313
2.3929618768328447
2.3440860215053765
2.2961876832844577
2.249266862170088
2.2082111436950145
2.1710654936461387
2.131964809384164
2.0948191593352883
2.06158357771261
2.032258064516129
2.004887585532747
1.978494623655914
1.9530791788856303
1.927663734115347
1.902248289345064
1.8778103616813293
1.8523949169110456
1.827956989247312
1.804496578690127
1.7781036168132942
1.7487781036168133
1.715542521994135
1.6803519061583578
1.643206256109482
1.603128054740958
1.564027370478983
1.525904203323558
1.4897360703812317
1.456500488758553
1.4301075268817205
1.4076246334310851
1.3822091886608017
1.3548387096774193
1.324535679374389
1.295210166177908
1.267839687194526
1.2424242424242424
1.219941348973607
1.198435972629521
1.176930596285435
1.1564027370478984
1.1378299120234605
1.126099706744868
1.118279569892473
1.1065493646138806
1.093841642228739
1.0811339198435972
1.067448680351906
1.0527859237536656
1.0381231671554252
1.024437927663734
1.010752688172043
0.9980449657869012
0.9853372434017597
0.978494623655914
0.9736070381231672
0.9657869012707724
0.9589442815249268
0.9560117302052786
0.9579667644183774
0.9687194525904204
0.989247311827957
1.0224828934506354
1.0713587487781036
1.13880742913001
1.2238514173998043
1.3255131964809383
1.4242424242424243
1.521994134897361
1.6363636363636365
1.7565982404692082
1.87683284457478
1.994134897360704
2.1055718475073317
2.207233626588465
2.297165200391007
2.375366568914956
2.4408602150537635
2.49266862170088
2.5268817204301075
2.548387096774193
2.5650048875855327
2.575757575757576
2.5806451612903225
2.579667644183773
2.572825024437928
2.5610948191593352
2.544477028347996
2.52297165200391
2.495601173020528
2.462365591397849
2.4252199413489737
2.389051808406647
2.3528836754643208
2.312805474095797
2.270772238514174
2.2297165200391005
2.1925708699902247
2.157380254154448
2.1251221896383186
2.096774193548387
2.071358748778104
2.047898338220919
2.027370478983382
2.0097751710654936
1.992179863147605
1.9736070381231672
1.95405669599218
1.9345063538611929
1.913978494623656
1.8905180840664717
1.8631476050830889
1.8328445747800584
1.8025415444770283
1.7732160312805474
1.7438905180840665
1.7135874877810362
1.6871945259042034
1.6627565982404693
1.6344086021505375
1.6041055718475072
1.5747800586510263
1.547409579667644
1.521016617790811
1.495601173020528
1.4731182795698925
1.4506353861192571
1.4301075268817205
1.4115347018572826
1.426197458455523
1.456500488758553
1.4623655913978495
1.456500488758553
1.447702834799609
1.4389051808406648
1.4301075268817205
1.4203323558162269
1.4105571847507332
1.401759530791789
1.3919843597262953
1.3822091886608017
1.3743890518084063
1.370478983382209
1.367546432062561
1.3616813294232648
1.356793743890518
1.3519061583577712
1.3470185728250244
1.3421309872922775
1.3401759530791788
1.3421309872922775
1.3509286412512218
1.367546432062561
1.3978494623655917
1.435972629521017
1.4858260019550342
1.5562072336265884
1.6451612903225807
1.7526881720430108
1.8758553274682308
2.0097751710654936
2.1515151515151514
2.2961876832844577
2.439882697947214
2.5777126099706744
2.705767350928641
2.820136852394917
2.9071358748778104
2.975562072336266
3.0439882697947214
3.103616813294233
3.1524926686217007
3.1915933528836757
3.219941348973607
3.239491691104594
3.2502443792766376
3.2531769305962857
3.2502443792766376
3.241446725317693
3.2248289345063537
3.2023460410557183
3.175953079178885
3.146627565982405
3.112414467253177
3.072336265884653
3.027370478983382
2.978494623655914
2.9257086999022484
2.8719452590420333
2.819159335288368
2.7673509286412514
2.716520039100684
2.6725317693059627
2.631476050830889
2.590420332355816
2.5542521994134897
2.5190615835777126
2.484848484848485
2.450635386119257
2.41544477028348
2.380254154447703
2.343108504398827
2.3059628543499517
2.269794721407625
2.2385141739980448
2.209188660801564
2.1739980449657867
2.136852394916911
2.0987292277614857
2.06158357771261
2.022482893450636
1.9824046920821117
1.9413489736070384
1.8993157380254155
1.858260019550342
1.818181818181818
1.780058651026393
1.747800586510264
1.718475073313783
1.686217008797654
1.653958944281525
1.6217008797653958
1.590420332355816
1.5591397849462365
1.530791788856305
1.5053763440860215
1.4819159335288368
1.4594330400782014
1.435972629521017
1.418377321603128
1.404692082111437
1.3900293255131966
1.3734115347018572
1.35386119257087
1.335288367546432
1.3157380254154447
1.2932551319648091
1.270772238514174
1.2482893450635386
1.227761485826002
1.2082111436950147
1.1945259042033236
1.18475073313783
1.1710654936461389
1.160312805474096
1.1544477028347997
1.1583577712609971
1.176930596285435
1.2140762463343109
1.2697947214076246
1.346041055718475
1.4437927663734116
1.5610948191593352
1.694037145650049
1.8172043010752688
1.9393939393939397
2.081133919843597
2.23069403714565
2.3812316715542523
2.5268817204301075
2.6637341153470184
2.788856304985337
2.902248289345064
3.0009775171065494
3.0869990224828934
3.163245356793744
3.217986314760508
3.257086999022483
3.2961876832844577
3.332355816226784
3.363636363636364
3.389051808406647
3.407624633431085
3.420332355816227
3.426197458455523
3.426197458455523
3.420332355816227
3.4086021505376345
3.3900293255131966
3.3626588465298144
3.3284457478005867
3.2873900293255134
3.239491691104594
3.1837732160312804
3.1221896383186705
3.0547409579667644
2.983382209188661
2.911045943304008
2.838709677419355
2.768328445747801
2.701857282502444
2.643206256109482
2.591397849462365
2.541544477028348
2.493646138807429
2.4486803519061584
2.404692082111437
2.3626588465298144
2.320625610948192
2.278592375366569
2.2385141739980448
2.198435972629521
2.158357771260997
2.118279569892473
2.083088954056696
2.048875855327468
2.0097751710654936
1.9687194525904204
1.9266862170087975
1.884652981427175
1.8435972629521016
1.804496578690127
1.7653958944281525
1.7272727272727273
1.689149560117302
1.651026392961877
1.6207233626588464
1.5933528836754642
1.5620723362658846
1.530791788856305
1.501466275659824
1.4721407624633431
1.4437927663734116
1.41544477028348
1.388074291300098
1.3626588465298142
1.33822091886608
1.3147605083088951
1.2932551319648091
1.278592375366569
1.2668621700879763
1.2502443792766371
1.2316715542521994
1.2130987292277615
1.1935483870967742
1.1749755620723363
1.1564027370478984
1.1368523949169111
1.118279569892473
1.1016617790811338
1.0918866080156402
1.0948191593352885
1.110459433040078
1.13880742913001
1.18475073313783
1.252199413489736
1.3421309872922775
1.4545454545454546
1.5826001955034212
1.7223851417399805
1.870967741935484
2.022482893450636
2.1730205278592374
2.3196480938416424
2.4408602150537635
2.5454545454545454
2.6529814271749754
2.7546432062561097
2.8475073313782997
2.9286412512218964
2.99902248289345
3.056695992179863
3.103616813294233
3.1417399804496577
3.1739980449657867
3.20039100684262
3.21505376344086
3.220918866080156
3.2277614858260018
3.23069403714565
3.228739002932551
3.220918866080156
3.2052785923753664
3.179863147605083
3.145650048875855
3.104594330400782
3.053763440860215
2.997067448680352
2.9345063538611926
2.8729227761485827
2.814271749755621
2.7517106549364616
2.687194525904203
2.625610948191593
2.567937438905181
2.439882697947214
2.281524926686217
2.1818181818181817
2.112414467253177
2.059628543499511
2.0175953079178885
1.9853372434017595
1.956989247311828
1.9266862170087975
1.8944281524926687
1.8621700879765395
1.8299120234604105
1.7976539589442817
1.7653958944281525
1.7311827956989247
1.6959921798631477
1.6608015640273706
1.6275659824046922
1.5933528836754642
1.564027370478983
1.5366568914956011
1.5073313782991202
1.4760508308895406
1.444770283479961
1.414467253176931
1.3861192570869991
1.359726295210166
1.3343108504398826
1.3079178885630498
1.2795698924731185
1.2531769305962854
1.2346041055718475
1.2189638318670577
1.2013685239491692
1.181818181818182
1.1622678396871946
1.1436950146627567
1.126099706744868
1.1114369501466277
1.0977517106549364
1.0850439882697946
1.0733137829912025
1.0586510263929618
1.0439882697947214
1.0332355816226784
1.024437927663734
1.013685239491691
1.0019550342130987
0.9921798631476052
0.9863147605083088
0.9863147605083088
0.9941348973607038
1.0127077223851415
1.04594330400782
1.0957966764418376
1.1612903225806452
1.2326490713587488
1.310850439882698
1.4086021505376345
1.5190615835777126
1.6383186705767352
1.761485826001955
1.8836754643206255
2.0019550342130987
2.113391984359726
2.2160312805474094
2.3088954056695994
2.389051808406647
2.4486803519061584
2.493646138807429
2.535679374389052
2.5718475073313782
2.601173020527859
2.6236559139784945
2.6392961876832843
2.649071358748778
2.654936461388074
2.6559139784946235
2.650048875855328
2.638318670576735
2.621700879765396
2.60019550342131
2.572825024437928
2.5405669599217986
2.504398826979472
2.4652981427174976
2.4222873900293256
2.376344086021505
2.329423264907136
2.2825024437927666
2.2355816226783967
2.190615835777126
2.146627565982405
2.10850439882698
2.0733137829912023
2.038123167155425
2.004887585532747
1.9745845552297163
1.945259042033236
1.916911045943304
1.889540566959922
1.8641251221896384
1.836754643206256
1.8074291300097751
1.7781036168132942
1.7497556207233629
1.7253176930596286
1.7018572825024438
1.672531769305963
1.6412512218963833
1.6099706744868034
1.5757575757575757
1.541544477028348
1.5083088954056696
1.4760508308895406
1.4437927663734116
1.412512218963832
1.383186705767351
1.359726295210166
1.3391984359726294
1.316715542521994
1.2932551319648091
1.2697947214076246
1.2482893450635386
1.227761485826002
1.2072336265884651
1.1867057673509287
1.1671554252199414
1.147605083088954
1.1300097751710656
1.115347018572825
1.1085043988269794
1.1036168132942326
1.0948191593352885
1.086021505376344
1.075268817204301
1.06158357771261
1.0469208211143697
1.0312805474095796
1.0166177908113392
1.0048875855327468
0.9951124144672532
0.9872922776148584
0.9853372434017597
0.989247311827957
0.9960899315738024
1.0087976539589445
1.0332355816226784
1.0713587487781036
1.1241446725317692
1.1945259042033236
1.281524926686217
1.3822091886608017
1.4946236559139785
1.6148582600195502
1.737047898338221
1.844574780058651
1.9423264907135875
2.046920821114369
2.147605083088954
2.2404692082111435
2.32355816226784
2.3949169110459434
2.4545454545454546
2.5034213098729228
2.5425219941348973
2.573802541544477
2.595307917888563
2.606060606060606
2.6099706744868034
2.611925708699902
2.610948191593353
2.6070381231671558
2.5972629521016617
2.581622678396872
2.5591397849462365
2.530791788856305
2.496578690127077
2.4574780058651027
2.4144672531769307
2.3685239491691106
2.3255131964809386
2.2854349951124147
2.2453567937438903
2.2052785923753664
2.166177908113392
2.1300097751710654
2.0957966764418376
2.0635386119257086
2.0332355816226784
2.005865102639296
1.9804496578690127
1.95405669599218
1.9305962854349952
1.9071358748778104
1.8807429130009776
1.8514173998044965
1.8201368523949168
1.7888563049853372
1.758553274682307
1.7272727272727273
1.694037145650049
1.6598240469208212
1.6256109481915937
1.5894428152492668
1.5513196480938416
1.520039100684262
1.4916911045943304
1.4594330400782014
1.4252199413489737
1.391006842619746
1.3587487781036167
1.3294232649071358
1.3010752688172045
1.2756598240469208
1.2531769305962854
1.2297165200391007
1.206256109481916
1.1886608015640274
1.173998044965787
1.155425219941349
1.1358748778103618
1.118279569892473
1.1026392961876832
1.0879765395894427
1.0742913000977516
1.06158357771261
1.0478983382209188
1.0342130987292275
1.0195503421309873
1.0048875855327468
0.997067448680352
0.9921798631476052
0.9843597262952102
0.975562072336266
0.9648093841642228
0.95405669599218
0.9423264907135877
0.9315738025415444
0.9237536656891496
0.9217986314760508
0.9286412512218964
0.9501466275659824
0.9833822091886608
1.0273704789833822
1.0879765395894427
1.1652003910068427
1.2570869990224829
1.3626588465298142
1.478005865102639
1.6001955034213098
1.7233626588465298
1.842619745845552
1.9560117302052784
2.060606060606061
2.155425219941349
2.3010752688172045
2.469208211143695
2.5835777126099706
2.664711632453568
2.7233626588465296
2.7653958944281527
2.793743890518084
2.8084066471163247
2.812316715542522
2.8103616813294234
2.801564027370479
2.7859237536656893
2.764418377321604
2.7390029325513194
2.708699902248289
2.674486803519061
2.635386119257087
2.590420332355816
2.541544477028348
2.49266862170088
2.444770283479961
2.40078201368524
2.360703812316716
2.321603128054741
2.2844574780058653
2.2551319648093844
2.23069403714565
2.207233626588465
2.1837732160312804
2.161290322580645
2.1378299120234603
2.1163245356793743
2.0957966764418376
2.074291300097752
2.0498533724340176
2.0234604105571847
1.994134897360704
1.967741935483871
1.9423264907135875
1.9130009775171064
1.8797653958944285
1.844574780058651
1.8084066471163245
1.772238514173998
