ppg
1.4516129032258065
1.4633431085043989
1.4936461388074291
1.5513196480938416
1.640273704789834
1.7595307917888563
1.903225806451613
2.06158357771261
2.220918866080156
2.3528836754643208
2.463343108504399
2.5698924731182795
2.6608015640273703
2.730205278592375
2.780058651026393
2.811339198435973
2.8260019550342133
2.8260019550342133
2.8152492668621703
2.795698924731183
2.76930596285435
2.7370478983382207
2.7038123167155423
2.667644183773216
2.627565982404692
2.582600195503421
2.532746823069404
2.47702834799609
2.4164222873900294
2.350928641251222
2.280547409579668
2.204301075268817
2.126099706744868
2.047898338220919
1.981427174975562
1.9227761485826005
1.8631476050830889
1.8074291300097751
1.758553274682307
1.718475073313783
1.686217008797654
1.6608015640273706
1.6412512218963833
1.6275659824046922
1.6158357771260996
1.6050830889540566
1.595307917888563
1.5894428152492668
1.5826001955034212
1.5728250244379276
1.5620723362658846
1.5483870967741935
1.5317693059628543
1.5141739980449658
1.4965786901270772
1.479960899315738
1.4633431085043989
1.447702834799609
1.4320625610948192
1.4203323558162269
1.409579667644184
1.396871945259042
1.3841642228739004
1.3714565004887584
1.3587487781036167
1.346041055718475
1.3333333333333333
1.3206256109481915
1.3088954056695992
1.2991202346041055
1.2903225806451613
1.2864125122189638
1.284457478005865
1.2795698924731185
1.2756598240469208
1.2727272727272727
1.2688172043010753
1.2668621700879763
1.2658846529814272
1.2649071358748778
1.2649071358748778
1.2649071358748778
1.2649071358748778
1.2658846529814272
1.2697947214076246
1.2756598240469208
1.2805474095796676
1.2834799608993157
1.2854349951124144
1.2854349951124144
1.2834799608993157
1.2805474095796676
1.2776148582600195
1.2776148582600195
1.2834799608993157
1.3040078201368523
1.33822091886608
1.3919843597262953
1.478983382209189
1.5992179863147604
1.7468230694037146
1.9120234604105573
2.085043988269794
2.2531769305962857
2.406647116324536
2.5386119257087
2.64613880742913
2.730205278592375
2.791788856304985
2.8289345063538613
2.849462365591398
2.8641251221896384
2.870967741935484
2.870967741935484
2.8641251221896384
2.850439882697948
2.83088954056696
2.806451612903226
2.777126099706745
2.742913000977517
2.702834799608993
2.662756598240469
2.6177908113391983
2.5640273704789838
2.5024437927663734
2.4349951124144678
2.363636363636364
2.290322580645161
2.21505376344086
2.142717497556207
2.075268817204301
2.016617790811339
1.9667644183773216
1.9266862170087975
1.8993157380254155
1.8807429130009776
1.866080156402737
1.855327468230694
1.8484848484848484
1.8435972629521016
1.8387096774193548
1.8328445747800584
1.826001955034213
1.818181818181818
1.8093841642228736
1.8005865102639296
1.7917888563049853
1.7839687194525904
1.7761485826001957
1.7673509286412512
1.7575757575757576
1.7468230694037146
1.737047898338221
1.726295210166178
1.7145650048875856
1.7028347996089932
1.6911045943304008
1.6803519061583578
1.6705767350928642
1.6637341153470186
1.6598240469208212
1.6549364613880744
1.6500488758553276
1.64613880742913
1.6422287390029326
1.6383186705767352
1.635386119257087
1.6334310850439884
1.632453567937439
1.632453567937439
1.6334310850439884
1.635386119257087
1.6373411534701858
1.6392961876832846
1.6412512218963833
1.6422287390029326
1.643206256109482
1.6451612903225807
1.6480938416422288
1.6529814271749756
1.6598240469208212
1.6666666666666667
1.6715542521994136
1.6744868035190617
1.6774193548387095
1.6774193548387095
1.672531769305963
1.6666666666666667
1.6656891495601174
1.635386119257087
1.608993157380254
1.6471163245356797
1.7380254154447703
1.8729227761485825
2.042033235581622
2.2297165200391005
2.3949169110459434
2.541544477028348
2.69208211143695
2.8269794721407626
2.93841642228739
3.022482893450636
3.081133919843597
3.1163245356793743
3.1309872922776147
3.129032258064516
3.113391984359726
3.086021505376344
3.048875855327468
3.006842619745845
2.961876832844575
2.913000977517106
2.859237536656892
2.7996089931573804
2.7341153470185726
2.662756598240469
2.5855327468230693
2.501466275659824
2.4115347018572826
2.317693059628544
2.2218963831867056
2.1388074291300097
2.064516129032258
1.988269794721408
1.9159335288367547
1.8514173998044965
1.7956989247311828
1.747800586510264
1.7086999022482894
1.678396871945259
1.6559139784946235
1.6392961876832846
1.6275659824046922
1.6177908113391983
1.6109481915933528
1.6050830889540566
1.598240469208211
1.5894428152492668
1.576735092864125
1.563049853372434
1.5483870967741935
1.533724340175953
1.5180840664711632
1.500488758553275
1.4819159335288368
1.4633431085043989
1.447702834799609
1.434017595307918
1.418377321603128
1.401759530791789
1.3822091886608017
1.3607038123167154
1.33822091886608
1.3157380254154447
1.2932551319648091
1.2717497556207231
1.2502443792766371
1.2287390029325511
1.2111436950146628
1.203323558162268
1.209188660801564
1.2336265884652982
1.2854349951124144
1.3695014662756595
1.487781036168133
1.635386119257087
1.8025415444770283
1.978494623655914
2.150537634408602
2.3059628543499517
2.4389051808406648
2.5347018572825024
2.6021505376344085
2.6559139784946235
2.6930596285435
2.7126099706744866
2.717497556207233
2.7096774193548385
2.6911045943304006
2.662756598240469
2.6285434995112413
2.5865102639296187
2.536656891495601
2.4809384164222874
2.4252199413489737
2.367546432062561
2.2981427174975564
2.218963831867057
2.133919843597263
2.0449657869012707
1.9521016617790807
1.8602150537634408
1.7732160312805474
1.6930596285434996
1.6217008797653958
1.560117302052786
1.5161290322580645
1.4838709677419355
1.455522971652004
1.43108504398827
1.414467253176931
1.404692082111437
1.3998044965786902
1.3958944281524928
1.3900293255131966
1.3841642228739004
1.3773216031280548
1.370478983382209
1.3655913978494625
1.3607038123167154
1.3499511241446724
1.3372434017595307
1.321603128054741
1.303030303030303
1.2825024437927663
1.262952101661779
1.2434017595307918
1.2238514173998043
1.2043010752688172
1.18475073313783
1.1681329423264908
1.1583577712609971
1.1505376344086022
1.1407624633431086
1.130987292277615
1.1202346041055715
1.1094819159335287
1.1006842619745845
1.0918866080156402
1.0840664711632453
1.0742913000977516
1.0635386119257086
1.053763440860215
1.0488758553274682
1.0469208211143697
1.0420332355816226
1.0361681329423265
1.0312805474095796
1.0283479960899315
1.0273704789833822
1.0283479960899315
1.0283479960899315
1.029325513196481
1.032258064516129
1.0361681329423265
1.0420332355816226
1.050830889540567
1.06158357771261
1.0703812316715542
1.0791788856304985
1.0869990224828934
1.0948191593352885
1.1026392961876832
1.110459433040078
1.118279569892473
1.1270772238514175
1.1378299120234605
1.147605083088954
1.1564027370478984
1.1622678396871946
1.163245356793744
1.163245356793744
1.1671554252199414
1.18475073313783
1.227761485826002
1.3079178885630498
1.4349951124144673
1.608993157380254
1.822091886608016
2.060606060606061
2.3088954056695994
2.520039100684262
2.7008797653958942
2.8807429130009776
3.040078201368524
3.1700879765395893
3.270772238514174
3.343108504398827
3.391006842619746
3.419354838709677
3.43108504398827
3.43108504398827
3.421309872922776
3.40078201368524
3.372434017595308
3.3411534701857284
3.303030303030303
3.260019550342131
3.210166177908113
3.1544477028347995
3.089931573802541
3.016617790811339
2.9345063538611926
2.843597262952102
2.7468230694037143
2.64613880742913
2.555229716520039
2.4711632453567938
2.3822091886608017
2.2961876832844577
2.217986314760508
2.1524926686217007
2.0987292277614857
2.0547409579667644
2.0205278592375366
1.994134897360704
1.9726295210166176
1.9560117302052784
1.943304007820137
1.9305962854349952
1.9159335288367547
1.8993157380254155
1.881720430107527
1.8621700879765395
1.8406647116324533
1.818181818181818
1.796676441837732
1.7761485826001957
1.7556207233626588
1.7360703812316716
1.7165200391006843
1.699902248289345
1.6842619745845553
1.6666666666666667
1.6490713587487782
1.6304985337243405
1.6099706744868034
1.590420332355816
1.5698924731182795
1.5493646138807429
1.530791788856305
1.5151515151515151
1.501466275659824
1.4916911045943304
1.4838709677419355
1.474095796676442
1.4633431085043989
1.4516129032258065
1.439882697947214
1.4281524926686218
1.4164222873900294
1.4056695992179864
1.3958944281524928
1.3870967741935485
1.3792766373411536
1.3509286412512218
1.3147605083088951
1.2961876832844574
1.284457478005865
1.2756598240469208
1.2697947214076246
1.2668621700879763
1.2658846529814272
1.262952101661779
1.2580645161290325
1.252199413489736
1.2453567937438903
1.2394916911045943
1.2375366568914956
1.2443792766373412
1.2649071358748778
1.3079178885630498
1.380254154447703
1.482893450635386
1.6129032258064515
1.7624633431085044
1.920821114369501
2.0772238514174
2.222873900293255
2.350928641251222
2.4574780058651027
2.5317693059628543
2.582600195503421
2.6236559139784945
2.652003910068426
2.667644183773216
2.6715542521994133
2.664711632453568
2.6480938416422286
2.625610948191593
2.5972629521016617
2.5640273704789838
2.5249266862170088
2.484848484848485
2.441837732160313
2.3929618768328447
2.3362658846529816
2.272727272727273
2.2023460410557183
2.126099706744868
2.0449657869012707
1.9618768328445748
1.8797653958944285
1.8035190615835777
1.732160312805474
1.6695992179863148
1.6217008797653958
1.58455522971652
1.5513196480938416
1.5239491691104594
1.5024437927663734
1.4858260019550342
1.4711632453567938
1.456500488758553
1.4418377321603129
1.4271749755620724
1.4115347018572826
1.3949169110459434
1.383186705767351
1.3734115347018572
1.3616813294232648
1.3479960899315735
1.332355816226784
1.3147605083088951
1.2961876832844574
1.2766373411534702
1.2570869990224829
1.2375366568914956
1.2189638318670577
1.203323558162268
1.1886608015640274
1.1779081133919844
1.1700879765395895
1.160312805474096
1.1495601173020529
1.13880742913001
1.1290322580645162
1.1192570869990224
1.110459433040078
1.1016617790811338
1.0928641251221896
1.0840664711632453
1.0762463343108504
1.072336265884653
1.0703812316715542
1.0664711632453567
1.0606060606060606
1.0557184750733135
1.050830889540567
1.0469208211143697
1.043010752688172
1.0391006842619743
1.0371456500488758
1.0361681329423265
1.0361681329423265
1.0381231671554252
1.0420332355816226
1.0439882697947214
1.0449657869012707
1.0439882697947214
1.0410557184750733
1.0371456500488758
1.035190615835777
1.0381231671554252
1.053763440860215
1.088954056695992
1.1515151515151516
1.2443792766373412
1.3479960899315735
1.466275659824047
1.6187683284457477
1.7888563049853372
1.9608993157380252
2.12316715542522
2.267839687194526
2.391006842619746
2.489736070381232
2.5650048875855327
2.6207233626588464
2.659824046920821
2.6803519061583576
2.6881720430107525
2.689149560117302
2.684261974584555
2.674486803519061
2.659824046920821
2.6402737047898337
2.6158357771261
2.5865102639296187
2.552297165200391
2.5112414467253177
2.463343108504399
2.406647116324536
2.3489736070381237
2.289345063538612
2.219941348973607
2.1436950146627565
2.0635386119257086
1.9853372434017595
1.9120234604105573
1.8455522971652003
1.7869012707722385
1.737047898338221
1.6959921798631477
1.6627565982404693
1.6373411534701858
1.619745845552297
1.6050830889540566
1.5943304007820136
1.5865102639296187
1.5796676441837731
1.5728250244379276
1.564027370478983
1.555229716520039
1.5454545454545454
1.533724340175953
1.521016617790811
1.5083088954056696
1.4975562072336266
1.487781036168133
1.47702834799609
1.4643206256109482
1.452590420332356
1.4418377321603129
1.43108504398827
1.4203323558162269
1.409579667644184
1.3998044965786902
1.3900293255131966
1.380254154447703
1.3734115347018572
1.3695014662756595
1.364613880742913
1.3587487781036167
1.35386119257087
1.3499511241446724
1.3470185728250244
1.343108504398827
1.3401759530791788
1.3372434017595307
1.3333333333333333
1.3304007820136852
1.327468230694037
1.3264907135874875
1.327468230694037
1.3284457478005864
1.3313782991202343
1.3343108504398826
1.3372434017595307
1.3401759530791788
1.343108504398827
1.346041055718475
1.3499511241446724
1.3528836754643203
1.3528836754643203
1.3528836754643203
1.3519061583577712
1.348973607038123
1.348973607038123
1.356793743890518
1.380254154447703
1.426197458455523
1.500488758553275
1.607038123167155
1.7409579667644184
1.8934506353861196
2.053763440860215
2.212121212121212
2.3411534701857284
2.44672531769306
2.548387096774193
2.633431085043988
2.697947214076246
2.742913000977517
2.7702834799608995
2.782991202346041
2.7839687194525906
2.774193548387097
2.757575757575758
2.7341153470185726
2.7067448680351904
2.675464320625611
2.6402737047898337
2.601173020527859
2.557184750733138
2.506353861192571
2.449657869012708
2.386119257086999
2.315738025415445
2.239491691104594
2.158357771260997
2.0762463343108504
1.9960899315738023
1.927663734115347
1.869012707722385
1.8113391984359728
1.7605083088954057
1.7174975562072337
1.683284457478006
1.6549364613880744
1.6334310850439884
1.616813294232649
1.603128054740958
1.5894428152492668
1.5757575757575757
1.563049853372434
1.5513196480938416
1.5366568914956011
1.521994134897361
1.5083088954056696
1.4946236559139785
1.4838709677419355
1.474095796676442
1.458455522971652
1.439882697947214
1.4213098729227762
1.4037145650048877
1.3851417399804498
1.370478983382209
1.3577712609970674
1.3411534701857282
1.321603128054741
1.3010752688172045
1.2805474095796676
1.260019550342131
1.2394916911045943
1.219941348973607
1.2023460410557183
1.1857282502443791
1.1710654936461389
1.1612903225806452
1.152492668621701
1.141739980449658
1.130987292277615
1.1202346041055715
1.1094819159335287
1.0977517106549364
1.0879765395894427
1.0801564027370478
1.075268817204301
1.072336265884653
1.0684261974584557
1.0654936461388074
1.0664711632453567
1.0684261974584557
1.0694037145650048
1.0703812316715542
1.0694037145650048
1.067448680351906
1.0635386119257086
1.0576735092864125
1.0527859237536656
1.0518084066471165
1.0576735092864125
1.0772238514173995
1.1114369501466277
1.1671554252199414
1.260019550342131
1.3900293255131966
1.5532746823069403
1.7409579667644184
1.9374389051808407
2.1309872922776147
2.310850439882698
2.4682306940371457
2.5992179863147604
2.7038123167155423
2.7722385141739982
2.81622678396872
2.8514173998044967
2.877810361681329
2.89247311827957
2.8963831867057674
2.8905180840664717
2.877810361681329
2.8582600195503423
2.832844574780059
2.801564027370479
2.764418377321604
2.7223851417399803
2.677419354838709
2.6285434995112413
2.5698924731182795
2.5004887585532747
2.4222873900293256
2.3382209188660803
2.2482893450635384
2.1544477028347995
2.06158357771261
1.9726295210166176
1.889540566959922
1.8142717497556209
1.75366568914956
1.704789833822092
1.6598240469208212
1.6187683284457477
1.58455522971652
1.5562072336265884
1.5327468230694037
1.5131964809384164
1.495601173020528
1.4760508308895406
1.457478005865103
1.439882697947214
1.4213098729227762
1.4066471163245358
1.393939393939394
1.3782991202346042
1.3616813294232648
1.343108504398827
1.324535679374389
1.3079178885630498
1.29227761485826
1.2766373411534702
1.2619745845552297
1.2473118279569892
1.2316715542521994
1.2179863147605083
1.2072336265884651
1.1964809384164223
1.1857282502443791
1.1749755620723363
1.164222873900293
1.155425219941349
1.1485826001955035
1.1436950146627567
1.13880742913001
1.1348973607038124
1.1319648093841643
1.1300097751710656
1.1300097751710656
1.1319648093841643
1.1319648093841643
1.1300097751710656
1.1280547409579669
1.1270772238514175
1.1270772238514175
1.1290322580645162
1.1329423264907137
1.13880742913001
1.1456500488758554
1.1544477028347997
1.166177908113392
1.1779081133919844
1.1867057673509287
1.1915933528836755
1.1935483870967742
1.1945259042033236
1.195503421309873
1.1994134897360704
1.2150537634408602
1.2512218963831867
1.316715542521994
1.4164222873900294
1.5503421309872922
1.6881720430107527
1.835777126099707
2.0146627565982405
2.204301075268817
2.388074291300098
2.555229716520039
2.6989247311827955
2.81622678396872
2.9071358748778104
2.973607038123167
3.0195503421309877
3.047898338220919
3.0576735092864125
3.053763440860215
3.0439882697947214
3.0283479960899315
3.007820136852395
2.981427174975562
2.951124144672532
2.9149560117302054
2.8729227761485827
2.825024437927664
2.771260997067449
2.7096774193548385
2.6402737047898337
2.572825024437928
2.504398826979472
2.4271749755620724
2.345063538611926
2.26197458455523
2.1818181818181817
2.10752688172043
2.043010752688172
1.988269794721408
1.943304007820137
1.9090909090909087
1.8836754643206255
1.865102639296188
1.8514173998044965
1.8387096774193548
1.826001955034213
1.8113391984359728
1.7947214076246334
1.7781036168132942
1.7605083088954057
1.7409579667644184
1.7204301075268815
1.6979472140762464
1.6744868035190617
1.6500488758553276
1.6285434995112416
1.6080156402737047
1.585532746823069
1.5620723362658846
1.5395894428152492
1.517106549364614
1.4946236559139785
1.4721407624633431
1.4506353861192571
1.43108504398827
1.4115347018572826
1.392961876832845
1.3782991202346042
1.3655913978494625
1.3499511241446724
1.3333333333333333
1.3176930596285434
1.3040078201368523
1.2913000977517106
1.2805474095796676
1.2697947214076246
1.260019550342131
1.2512218963831867
1.2404692082111437
1.2297165200391007
1.2218963831867058
1.2160312805474096
1.209188660801564
1.203323558162268
1.198435972629521
1.1945259042033236
1.1906158357771262
1.1867057673509287
1.1827956989247312
1.1788856304985338
1.1730205278592376
1.1652003910068427
1.1593352883675463
1.1544477028347997
1.1495601173020529
1.1515151515151516
1.1700879765395895
1.2150537634408602
1.295210166177908
1.4115347018572826
1.560117302052786
1.7350928641251222
1.9257086999022484
2.1192570869990224
2.303030303030303
2.447702834799609
2.5610948191593352
2.6666666666666665
2.7536656891495603
2.819159335288368
2.8641251221896384
2.8905180840664717
2.9012707722385143
2.900293255131965
2.889540566959922
2.8719452590420333
2.8475073313782997
2.7996089931573804
2.739980449657869
2.6911045943304006
2.643206256109482
2.5943304007820136
2.539589442815249
2.4780058651026398
2.407624633431085
2.3284457478005867
2.241446725317693
2.1495601173020527
2.0557184750733137
1.9618768328445748
1.8797653958944285
1.8064516129032255
1.732160312805474
1.66177908113392
1.6011730205278591
1.5503421309872922
1.509286412512219
1.4760508308895406
1.4496578690127078
1.4281524926686218
1.4105571847507332
1.393939393939394
1.3822091886608017
1.3734115347018572
1.3626588465298142
1.348973607038123
1.3333333333333333
1.3157380254154447
1.295210166177908
1.2727272727272727
1.2512218963831867
1.2297165200391007
1.2072336265884651
1.1857282502443791
1.1681329423264908
1.1544477028347997
1.1378299120234605
1.121212121212121
1.1036168132942326
1.086021505376344
1.0694037145650048
1.053763440860215
1.040078201368524
1.0273704789833822
1.0156402737047898
1.0058651026392962
0.9980449657869012
0.9941348973607038
0.9921798631476052
0.9872922776148584
0.981427174975562
0.975562072336266
0.9696969696969696
0.9648093841642228
0.9628543499511242
0.9618768328445748
0.9608993157380256
0.9608993157380256
0.9608993157380256
0.9638318670576737
0.9706744868035192
0.978494623655914
0.9853372434017597
0.9931573802541545
1.0
1.007820136852395
1.013685239491691
1.0175953079178883
1.0195503421309873
1.021505376344086
1.0273704789833822
1.0420332355816226
1.0664711632453567
1.10752688172043
1.1788856304985338
1.2864125122189638
1.4301075268817205
1.6041055718475072
1.7986314760508308
2.0
2.1974584555229715
2.378299120234604
2.535679374389052
2.6637341153470184
2.752688172043011
2.8132942326490715
2.8641251221896384
2.9012707722385143
2.924731182795699
2.936461388074292
2.93841642228739
2.932551319648094
2.918866080156403
2.898338220918866
2.8729227761485827
2.841642228739003
2.803519061583578
2.760508308895406
2.7116324535679373
2.653958944281525
2.587487781036168
2.512218963831867
2.4301075268817205
2.3411534701857284
2.2502443792766376
2.161290322580645
2.0762463343108504
1.9960899315738023
1.924731182795699
1.868035190615836
1.823069403714565
1.7839687194525904
1.7517106549364614
1.726295210166178
1.7067448680351909
1.6930596285434996
1.6823069403714566
1.6735092864125125
1.6637341153470186
1.651026392961877
1.6373411534701858
1.6236559139784943
1.6109481915933528
1.6001955034213098
1.5894428152492668
1.5786901270772238
1.5669599217986314
1.5532746823069403
1.5386119257087
1.52297165200391
1.5063538611925709
1.490713587487781
1.4760508308895406
1.4613880742913
1.4496578690127078
1.4389051808406648
1.426197458455523
1.412512218963832
1.4007820136852396
1.3890518084066472
1.3792766373411536
1.370478983382209
1.3607038123167154
1.3499511241446724
1.3401759530791788
1.3304007820136852
1.321603128054741
1.316715542521994
1.3118279569892473
1.305962854349951
1.3010752688172045
1.295210166177908
1.2883675464320623
1.2834799608993157
1.278592375366569
1.2746823069403714
1.270772238514174
1.2658846529814272
1.2619745845552297
1.260019550342131
1.2580645161290325
1.2541544477028348
1.249266862170088
1.2424242424242424
1.2355816226783969
1.2287390029325511
1.2228739002932552
1.2238514173998043
1.2434017595307918
1.2873900293255132
1.3636363636363635
1.4750733137829912
1.5943304007820136
1.7253176930596286
1.8905180840664717
2.070381231671554
2.247311827956989
2.410557184750733
2.5513196480938416
2.665689149560117
2.752688172043011
2.814271749755621
2.8533724340175954
2.874877810361681
2.878787878787879
2.8690127077223853
2.852394916911046
2.8299120234604107
2.80058651026393
2.768328445747801
2.732160312805474
2.6901270772238512
2.644183773216031
2.592375366568915
2.533724340175953
2.4652981427174976
2.388074291300098
2.312805474095797
2.2375366568914954
2.1515151515151514
2.060606060606061
1.967741935483871
1.87683284457478
1.7927663734115349
1.7165200391006843
1.6500488758553276
1.5943304007820136
1.5483870967741935
1.512218963831867
1.4868035190615836
1.4672531769305963
1.447702834799609
1.43108504398827
1.414467253176931
1.396871945259042
1.3792766373411536
1.3616813294232648
1.343108504398827
1.324535679374389
1.303030303030303
1.2805474095796676
1.2580645161290325
1.2404692082111437
1.2258064516129032
1.2072336265884651
1.187683284457478
1.1671554252199414
1.1485826001955035
1.1300097751710656
1.1114369501466277
1.0918866080156402
1.072336265884653
1.053763440860215
1.0361681329423265
1.024437927663734
1.0156402737047898
1.0058651026392962
0.9980449657869012
0.9882697947214076
0.9775171065493646
0.9687194525904204
0.9608993157380256
0.9530791788856304
0.9452590420332356
0.93841642228739
0.9315738025415444
0.9247311827956988
0.9227761485826002
0.9227761485826002
0.9208211143695014
0.9178885630498532
0.9159335288367546
0.9149560117302052
0.93841642228739
0.9736070381231672
0.9912023460410556
1.0
1.0039100684261977
1.0048875855327468
1.0058651026392962
1.007820136852395
1.0068426197458455
1.0068426197458455
1.0146627565982405
1.0420332355816226
1.099706744868035
1.1915933528836755
1.3186705767350928
1.478983382209189
1.6637341153470186
1.86119257086999
2.034213098729228
2.1867057673509285
2.3421309872922778
2.4838709677419355
2.603128054740958
2.696969696969697
2.7673509286412514
2.817204301075269
2.850439882697948
2.8690127077223853
2.875855327468231
2.873900293255132
2.8641251221896384
2.84652981427175
2.8240469208211145
2.7976539589442817
2.766373411534702
2.7282502443792764
2.684261974584555
