ppg
1.1886608015640274
1.2140762463343109
1.2531769305962854
1.313782991202346
1.3988269794721409
1.5073313782991202
1.6373411534701858
1.7820136852394917
1.9364613880742916
2.0948191593352883
2.249266862170088
2.3929618768328447
2.50733137829912
2.5972629521016617
2.6823069403714563
2.752688172043011
2.803519061583578
2.834799608993157
2.8455522971652005
2.8367546432062563
2.809384164222874
2.7673509286412514
2.7126099706744866
2.6480938416422286
2.5855327468230693
2.52297165200391
2.4516129032258065
2.3743890518084068
2.2952101661779083
2.2170087976539588
2.1407624633431084
2.0664711632453567
1.997067448680352
1.932551319648094
1.873900293255132
1.8201368523949168
1.772238514173998
1.7331378299120237
1.7008797653958945
1.667644183773216
1.632453567937439
1.5992179863147604
1.5679374389051808
1.5386119257087
1.509286412512219
1.4809384164222874
1.455522971652004
1.4330400782013686
1.412512218963832
1.3978494623655917
1.3861192570869991
1.3714565004887584
1.3558162267839686
1.3411534701857282
1.3255131964809383
1.3098729227761483
1.2942326490713587
1.2766373411534702
1.2590420332355816
1.2424242424242424
1.227761485826002
1.2150537634408602
1.2082111436950147
1.2052785923753666
1.206256109481916
1.217008797653959
1.241446725317693
1.284457478005865
1.3499511241446724
1.4389051808406648
1.5513196480938416
1.683284457478006
1.826001955034213
1.9745845552297163
2.103616813294233
2.218963831867057
2.340175953079179
2.4545454545454546
2.5542521994134897
2.634408602150537
2.6940371456500487
2.732160312805474
2.748778103616813
2.7438905180840663
2.720430107526881
2.681329423264907
2.63049853372434
2.576735092864125
2.520039100684262
2.4545454545454546
2.383186705767351
2.3098729227761488
2.2346041055718477
2.1593352883675463
2.0879765395894427
2.0195503421309877
1.95405669599218
1.8934506353861196
1.8377321603128052
1.793743890518084
1.7565982404692082
1.7194525904203324
1.6842619745845553
1.651026392961877
1.6177908113391983
1.5884652981427174
1.563049853372434
1.5395894428152492
1.517106549364614
1.495601173020528
1.474095796676442
1.457478005865103
1.444770283479961
1.4281524926686218
1.4105571847507332
1.3919843597262953
1.3714565004887584
1.3519061583577712
1.335288367546432
1.3196480938416422
1.3049853372434017
1.2903225806451613
1.2756598240469208
1.2609970674486803
1.2512218963831867
1.2434017595307918
1.2336265884652982
1.2258064516129032
1.2228739002932552
1.2287390029325511
1.249266862170088
1.2903225806451613
1.3548387096774193
1.4437927663734116
1.5562072336265884
1.689149560117302
1.8172043010752688
1.943304007820137
2.0879765395894427
2.2355816226783967
2.3734115347018574
2.496578690127077
2.601173020527859
2.684261974584555
2.742913000977517
2.780058651026393
2.7966764418377323
2.795698924731183
2.780058651026393
2.7546432062561097
2.719452590420332
2.673509286412512
2.6177908113391983
2.5542521994134897
2.484848484848485
2.412512218963832
2.3391984359726297
2.2658846529814274
2.193548387096774
2.1251221896383186
2.06158357771261
2.0097751710654936
1.964809384164223
1.9178885630498532
1.873900293255132
1.8328445747800584
1.7947214076246334
1.7575757575757576
1.7204301075268815
1.6852394916911049
1.651026392961877
1.6177908113391983
1.5865102639296187
1.5581622678396871
1.5376344086021505
1.52297165200391
1.5083088954056696
1.4946236559139785
1.478983382209189
1.4633431085043989
1.447702834799609
1.4320625610948192
1.4193548387096775
1.4076246334310851
1.3949169110459434
1.3812316715542523
1.3724340175953078
1.3665689149560116
1.356793743890518
1.3470185728250244
1.3401759530791788
1.33822091886608
1.346041055718475
1.3695014662756595
1.414467253176931
1.4838709677419355
1.5806451612903225
1.7008797653958945
1.842619745845552
1.9775171065493649
2.110459433040078
2.26197458455523
2.4173998044965788
2.567937438905181
2.705767350928641
2.8269794721407626
2.9315738025415445
3.0175953079178885
3.083088954056696
3.1280547409579667
3.1524926686217007
3.155425219941349
3.1407624633431084
3.113391984359726
3.071358748778104
3.016617790811339
2.951124144672532
2.875855327468231
2.7947214076246336
2.70772238514174
2.618768328445748
2.530791788856305
2.444770283479961
2.361681329423265
2.289345063538612
2.2248289345063537
2.157380254154448
2.090909090909091
2.0254154447702835
1.962854349951124
1.905180840664712
1.8523949169110456
1.804496578690127
1.758553274682307
1.715542521994135
1.6744868035190617
1.6412512218963833
1.611925708699902
1.5777126099706744
1.543499511241447
1.5083088954056696
1.4731182795698925
1.439882697947214
1.4066471163245358
1.375366568914956
1.3450635386119256
1.3157380254154447
1.2864125122189638
1.2590420332355816
1.238514173998045
1.2218963831867058
1.2003910068426198
1.1759530791788857
1.1173020527859236
1.0439882697947214
1.0068426197458455
0.9960899315738024
1.0097751710654936
1.050830889540567
1.1202346041055715
1.2179863147605083
1.3206256109481915
1.4320625610948192
1.5679374389051808
1.718475073313783
1.8729227761485825
2.022482893450636
2.160312805474096
2.281524926686217
2.383186705767351
2.464320625610948
2.5239491691104594
2.563049853372434
2.5806451612903225
2.579667644183773
2.5620723362658846
2.529814271749756
2.4838709677419355
2.4271749755620724
2.360703812316716
2.286412512218964
2.206256109481916
2.12316715542522
2.0391006842619745
1.9560117302052784
1.873900293255132
1.804496578690127
1.7429130009775171
1.675464320625611
1.608993157380254
1.5464320625610948
1.487781036168133
1.4349951124144673
1.3861192570869991
1.343108504398827
1.3049853372434017
1.2697947214076246
1.2375366568914956
1.209188660801564
1.1896383186705768
1.173998044965787
1.1564027370478984
1.1368523949169111
1.1163245356793745
1.096774193548387
1.078201368523949
1.0606060606060606
1.04594330400782
1.0332355816226784
1.021505376344086
1.0097751710654936
1.0039100684261977
1.0
0.9912023460410556
0.981427174975562
0.9726295210166178
0.9638318670576737
0.956989247311828
0.9560117302052786
0.9667644183773216
0.9951124144672532
1.04594330400782
1.1231671554252198
1.2287390029325511
1.3401759530791788
1.4604105571847508
1.607038123167155
1.76930596285435
1.935483870967742
2.0957966764418376
2.2453567937438903
2.3812316715542523
2.5004887585532747
2.60019550342131
2.679374389051808
2.740957966764418
2.7781036168132944
2.7966764418377323
2.8044965786901277
2.7976539589442817
2.776148582600196
2.7390029325513194
2.6881720430107525
2.625610948191593
2.5542521994134897
2.4750733137829912
2.3929618768328447
2.3088954056695994
2.2346041055718477
2.167155425219941
2.096774193548387
2.027370478983382
1.962854349951124
1.9042033235581624
1.8514173998044965
1.8035190615835777
1.7595307917888563
1.718475073313783
1.6793743890518085
1.6422287390029326
1.607038123167155
1.5777126099706744
1.5532746823069403
1.5268817204301075
1.499511241446725
1.4731182795698925
1.4467253176930597
1.4222873900293256
1.4007820136852396
1.383186705767351
1.367546432062561
1.3528836754643203
1.3372434017595307
1.324535679374389
1.3128054740957966
1.2981427174975562
1.281524926686217
1.2619745845552297
1.2434017595307918
1.224828934506354
1.209188660801564
1.2023460410557183
1.2101661779081134
1.238514173998045
1.2913000977517106
1.370478983382209
1.458455522971652
1.5591397849462365
1.689149560117302
1.836754643206256
1.994134897360704
2.15347018572825
2.3069403714565007
2.449657869012708
2.576735092864125
2.684261974584555
2.773216031280548
2.8426197458455524
2.8856304985337244
2.9071358748778104
2.9159335288367547
2.909090909090909
2.8856304985337244
2.8455522971652005
2.790811339198436
2.7253176930596283
2.649071358748778
2.5650048875855327
2.47702834799609
2.388074291300098
2.302052785923754
2.225806451612903
2.157380254154448
2.086021505376344
2.016617790811339
1.948191593352884
1.881720430107527
1.8211143695014664
1.7653958944281525
1.7135874877810362
1.667644183773216
1.6275659824046922
1.590420332355816
1.5591397849462365
1.5317693059628543
1.500488758553275
1.4672531769305963
1.435972629521017
1.4066471163245358
1.3773216031280548
1.3499511241446724
1.3255131964809383
1.303030303030303
1.281524926686217
1.2609970674486803
1.2404692082111437
1.2258064516129032
1.2140762463343109
1.2003910068426198
1.18475073313783
1.166177908113392
1.1466275659824048
1.126099706744868
1.10752688172043
1.0928641251221896
1.0850439882697946
1.088954056695992
1.110459433040078
1.1456500488758554
1.198435972629521
1.2795698924731185
1.3870967741935485
1.517106549364614
1.6637341153470186
1.8191593352883677
1.975562072336266
2.1270772238514173
2.2668621700879767
2.389051808406647
2.4916911045943304
2.572825024437928
2.6265884652981426
2.658846529814272
2.678396871945259
2.6823069403714563
2.668621700879765
2.6402737047898337
2.598240469208211
2.544477028347996
2.482893450635386
2.4134897360703813
2.337243401759531
2.2580645161290325
2.185728250244379
2.117302052785924
2.0439882697947214
1.970674486803519
1.8983382209188664
1.827956989247312
1.761485826001955
1.699902248289345
1.643206256109482
1.5923753665689149
1.5464320625610948
1.504398826979472
1.4652981427174976
1.434017595307918
1.4076246334310851
1.3763440860215057
1.3440860215053765
1.313782991202346
1.2864125122189638
1.260019550342131
1.2346041055718475
1.2111436950146628
1.187683284457478
1.163245356793744
1.1397849462365592
1.1231671554252198
1.1094819159335287
1.0928641251221896
1.0762463343108504
1.0586510263929618
1.0410557184750733
1.024437927663734
1.0087976539589445
0.9921798631476052
0.978494623655914
0.9696969696969696
0.9775171065493646
0.9990224828934506
1.0205278592375366
1.0498533724340176
1.0948191593352885
1.1612903225806452
1.252199413489736
1.3665689149560116
1.501466275659824
1.6500488758553276
1.8054740957966764
1.959921798631476
2.10752688172043
2.2404692082111435
2.3421309872922778
2.420332355816227
2.487781036168133
2.539589442815249
2.5718475073313782
2.5835777126099706
2.576735092864125
2.5542521994134897
2.5161290322580645
2.464320625610948
2.401759530791789
2.332355816226784
2.2580645161290325
2.189638318670577
2.126099706744868
2.053763440860215
1.9794721407624636
1.9071358748778104
1.836754643206256
1.76930596285435
1.7057673509286413
1.6480938416422288
1.5962854349951123
1.5483870967741935
1.5063538611925709
1.4731182795698925
1.4457478005865103
1.414467253176931
1.3812316715542523
1.348973607038123
1.316715542521994
1.2864125122189638
1.2590420332355816
1.2336265884652982
1.2111436950146628
1.1886608015640274
1.1681329423264908
1.1544477028347997
1.1436950146627567
1.130987292277615
1.1173020527859236
1.1016617790811338
1.086021505376344
1.0713587487781036
1.056695992179863
1.043010752688172
1.0312805474095796
1.0195503421309873
1.0097751710654936
1.0019550342130987
1.0009775171065494
1.007820136852395
1.021505376344086
1.0488758553274682
1.0957966764418376
1.1671554252199414
1.2639296187683284
1.3841642228739004
1.52297165200391
1.675464320625611
1.836754643206256
1.9980449657869013
2.133919843597263
2.2502443792766376
2.367546432062561
2.4750733137829912
2.5650048875855327
2.635386119257087
2.6852394916911044
2.7155425219941347
2.7262952101661777
2.718475073313783
2.6930596285435
2.6529814271749754
2.601173020527859
2.5454545454545454
2.484848484848485
2.4134897360703813
2.3362658846529816
2.2551319648093844
2.172043010752688
2.090909090909091
2.0146627565982405
1.9403714565004888
1.8699902248289344
1.804496578690127
1.7438905180840665
1.6959921798631477
1.6549364613880744
1.6138807429130009
1.573802541544477
1.533724340175953
1.4965786901270772
1.4613880742913
1.4271749755620724
1.393939393939394
1.3636363636363635
1.335288367546432
1.3079178885630498
1.2825024437927663
1.2639296187683284
1.2502443792766371
1.2365591397849462
1.2228739002932552
1.209188660801564
1.198435972629521
1.1896383186705768
1.181818181818182
1.173998044965787
1.166177908113392
1.1573802541544478
1.144672531769306
1.142717497556207
1.1436950146627567
1.1583577712609971
1.187683284457478
1.2375366568914956
1.3118279569892473
1.4105571847507332
1.5327468230694037
1.675464320625611
1.8318670576735088
1.9960899315738023
2.161290322580645
2.302052785923754
2.423264907135875
2.601173020527859
2.7038123167155423
2.788856304985337
2.8963831867057674
2.918866080156403
2.9227761485826003
2.875855327468231
2.831867057673509
2.7810361681329425
2.686217008797654
2.6099706744868034
2.527859237536657
2.443792766373412
2.358748778103617
2.274682306940372
2.193548387096774
2.114369501466276
2.038123167155425
1.964809384164223
1.8973607038123168
1.842619745845552
1.7956989247311828
1.7487781036168133
1.7038123167155426
1.6608015640273706
1.6207233626588464
1.5835777126099706
1.5464320625610948
1.5112414467253177
1.478983382209189
1.4486803519061584
1.4193548387096775
1.396871945259042
1.3782991202346042
1.356793743890518
1.3333333333333333
1.3088954056695992
1.284457478005865
1.2609970674486803
1.2375366568914956
1.2140762463343109
1.1915933528836755
1.1691104594330402
1.1466275659824048
1.1251221896383188
1.1085043988269794
1.0948191593352885
1.078201368523949
1.0635386119257086
1.0576735092864125
1.0654936461388074
1.0909090909090908
1.1407624633431086
1.2179863147605083
1.321603128054741
1.4486803519061584
1.5913978494623655
1.7233626588465298
1.8494623655913975
1.989247311827957
2.129032258064516
2.259042033235582
2.3734115347018574
2.469208211143695
2.544477028347996
2.60019550342131
2.634408602150537
2.649071358748778
2.64613880742913
2.6265884652981426
2.5972629521016617
2.560117302052786
2.5112414467253177
2.452590420332356
2.388074291300098
2.3196480938416424
2.247311827956989
2.172043010752688
2.096774193548387
2.0234604105571847
1.95405669599218
1.8885630498533723
1.833822091886608
1.7859237536656891
1.7350928641251222
1.6842619745845553
1.6363636363636365
1.5923753665689149
1.5503421309872922
1.5112414467253177
1.4731182795698925
1.436950146627566
1.401759530791789
1.3685239491691104
1.3372434017595307
1.3147605083088951
1.2961876832844574
1.2756598240469208
1.2551319648093842
1.2346041055718475
1.2160312805474096
1.1994134897360704
1.181818181818182
1.163245356793744
1.1456500488758554
1.1300097751710656
1.1133919843597262
1.1016617790811338
1.0928641251221896
1.0791788856304985
1.0635386119257086
1.0478983382209188
1.0361681329423265
1.032258064516129
1.0332355816226784
1.0449657869012707
1.072336265884653
1.121212121212121
1.195503421309873
1.2942326490713587
1.3958944281524928
1.5053763440860215
1.6392961876832846
1.7839687194525904
1.932551319648094
2.078201368523949
2.2111436950146626
2.3274682306940373
2.4252199413489737
2.4995112414467253
2.549364613880743
2.576735092864125
2.58455522971652
2.5747800586510263
2.549364613880743
2.5102639296187683
2.4613880742913
2.403714565004888
2.3411534701857284
2.272727272727273
2.198435972629521
2.1221896383186705
2.04594330400782
1.970674486803519
1.905180840664712
1.8484848484848484
1.790811339198436
1.7350928641251222
1.6813294232649072
1.6304985337243405
1.581622678396872
1.5376344086021505
1.4975562072336266
1.458455522971652
1.4203323558162269
1.3851417399804498
1.3509286412512218
1.324535679374389
1.3010752688172045
1.2756598240469208
1.2512218963831867
1.2267839687194526
1.2023460410557183
1.1788856304985338
1.1573802541544478
1.1358748778103618
1.1143695014662756
1.0948191593352885
1.075268817204301
1.0625610948191593
1.0518084066471165
1.0391006842619743
1.0254154447702837
1.0087976539589445
0.9902248289345064
0.9696969696969696
0.9501466275659824
0.9345063538611924
0.9247311827956988
0.9257086999022482
0.9393939393939394
0.9706744868035192
1.0156402737047898
1.078201368523949
1.1671554252199414
1.2805474095796676
1.414467253176931
1.5620723362658846
1.715542521994135
1.869012707722385
2.0175953079178885
2.155425219941349
2.27761485826002
2.3812316715542523
2.4565004887585533
2.509286412512219
2.5513196480938416
2.575757575757576
2.582600195503421
2.572825024437928
2.5464320625610948
2.50733137829912
2.4574780058651027
2.39980449657869
2.337243401759531
2.269794721407625
2.1974584555229715
2.131964809384164
2.070381231671554
2.005865102639296
1.9393939393939397
1.8758553274682308
1.8162267839687196
1.7605083088954057
1.70772238514174
1.6598240469208212
1.6158357771260996
1.573802541544477
1.533724340175953
1.501466275659824
1.4750733137829912
1.4457478005865103
1.41544477028348
1.3861192570869991
1.3587487781036167
1.3333333333333333
1.3079178885630498
1.2825024437927663
1.2590420332355816
1.2365591397849462
1.2150537634408602
1.1925708699902249
1.1759530791788857
1.163245356793744
1.1485826001955035
1.1348973607038124
1.1231671554252198
1.110459433040078
1.096774193548387
1.0840664711632453
1.0713587487781036
1.0586510263929618
1.0498533724340176
1.0488758553274682
1.0586510263929618
1.083088954056696
1.126099706744868
1.1925708699902249
1.2834799608993157
1.396871945259042
1.530791788856305
1.678396871945259
1.8347996089931573
1.9931573802541545
2.147605083088954
2.291300097751711
2.420332355816227
2.5190615835777126
2.595307917888563
2.6637341153470184
2.717497556207233
2.7517106549364616
2.7653958944281527
2.760508308895406
2.7390029325513194
2.701857282502444
2.6510263929618767
2.589442815249267
2.5190615835777126
2.450635386119257
2.3851417399804498
2.312805474095797
2.236559139784946
2.1593352883675463
2.083088954056696
2.010752688172043
1.9423264907135875
1.87683284457478
1.8132942326490715
1.75366568914956
1.6979472140762464
1.6471163245356797
1.6080156402737047
1.5747800586510263
1.5386119257087
1.501466275659824
1.4643206256109482
1.4281524926686218
1.393939393939394
1.3616813294232648
1.332355816226784
1.3049853372434017
1.2795698924731185
1.2580645161290325
1.2443792766373412
1.2346041055718475
1.2228739002932552
1.209188660801564
1.195503421309873
1.1808406647116323
1.166177908113392
1.1515151515151516
1.1348973607038124
1.1173020527859236
1.1006842619745845
1.086021505376344
1.075268817204301
1.072336265884653
1.0791788856304985
1.096774193548387
1.1319648093841643
1.1886608015640274
1.2688172043010753
1.3743890518084063
1.5034213098729228
1.6520039100684265
1.8132942326490715
1.9804496578690127
2.144672531769306
2.2795698924731185
2.3949169110459434
2.5112414467253177
2.618768328445748
2.7096774193548385
2.7810361681329425
2.832844574780059
2.8641251221896384
2.875855327468231
2.868035190615836
2.8426197458455524
2.8025415444770285
2.750733137829912
2.695014662756598
2.635386119257087
2.565982404692082
2.4916911045943304
2.4144672531769307
2.337243401759531
2.260019550342131
2.182795698924731
2.1065493646138806
2.034213098729228
1.964809384164223
1.8983382209188664
1.842619745845552
1.793743890518084
1.7438905180840665
1.696969696969697
1.6520039100684265
1.6099706744868034
1.56891495601173
1.530791788856305
1.4975562072336266
1.466275659824047
1.435972629521017
1.4076246334310851
1.3812316715542523
1.3626588465298142
1.348973607038123
1.3343108504398826
1.3206256109481915
1.3079178885630498
1.2981427174975562
1.2903225806451613
1.284457478005865
1.2776148582600195
1.2697947214076246
1.260019550342131
1.270772238514174
1.2961876832844574
1.3069403714565004
1.3088954056695992
1.3128054740957966
1.327468230694037
1.3607038123167154
1.418377321603128
1.5034213098729228
1.6148582600195502
1.7497556207233629
1.902248289345064
2.065493646138808
2.2082111436950145
2.3362658846529816
2.4731182795698925
2.606060606060606
2.7253176930596283
2.8260019550342133
2.905180840664712
2.963831867057673
3.0
3.01564027370479
3.010752688172043
2.986314760508309
2.945259042033236
2.897360703812317
2.843597262952102
2.779081133919844
2.70772238514174
2.63049853372434
2.550342130987292
2.469208211143695
2.3870967741935485
2.304985337243402
2.2248289345063537
2.1495601173020527
2.078201368523949
2.018572825024438
1.967741935483871
1.9159335288367547
1.866080156402737
1.8191593352883677
1.7732160312805474
1.7282502443792769
1.6852394916911049
1.6441837732160314
1.603128054740958
1.564027370478983
1.525904203323558
1.4897360703812317
1.4613880742913
1.4389051808406648
1.414467253176931
1.3900293255131966
1.3655913978494625
1.3421309872922775
1.3196480938416422
1.2961876832844574
1.2697947214076246
1.2443792766373412
1.2189638318670577
1.1915933528836755
1.1681329423264908
1.1485826001955035
1.1241446725317692
1.0977517106549364
1.0713587487781036
1.0498533724340176
1.0371456500488758
1.0391006842619743
1.0625610948191593
1.1133919843597262
1.1925708699902249
1.2991202346041055
1.4281524926686218
1.555229716520039
1.683284457478006
1.83088954056696
1.9853372434017595
2.1358748778103616
2.2737047898338223
2.3929618768328447
2.49266862170088
2.570869990224829
2.627565982404692
2.6637341153470184
2.678396871945259
2.67644183773216
2.658846529814272
2.627565982404692
2.58455522971652
2.530791788856305
2.4682306940371457
2.398826979472141
2.3255131964809386
2.251221896383187
2.174975562072336
2.0987292277614857
2.024437927663734
1.9521016617790807
1.8905180840664717
1.8377321603128052
1.782991202346041
1.729227761485826
1.6803519061583578
1.6373411534701858
1.5972629521016617
1.5591397849462365
1.521016617790811
1.4848484848484849
1.4506353861192571
1.4173998044965788
1.3900293255131966
1.367546432062561
1.3411534701857282
1.313782991202346
1.2854349951124144
1.2570869990224829
1.23069403714565
1.2043010752688172
1.1788856304985338
1.1534701857282503
1.1300097751710656
1.1094819159335287
1.0918866080156402
1.0811339198435972
1.0733137829912025
1.0625610948191593
1.0498533724340176
1.0361681329423265
1.021505376344086
1.0068426197458455
0.9941348973607038
0.9843597262952102
0.9843597262952102
0.9980449657869012
1.0303030303030305
1.0772238514173995
1.1397849462365592
1.2287390029325511
1.3421309872922775
1.4760508308895406
1.6236559139784943
1.7790811339198436
1.932551319648094
2.0791788856304985
2.2130987292277613
2.329423264907136
2.426197458455523
2.5034213098729228
2.5542521994134897
2.582600195503421
2.5972629521016617
2.5943304007820136
2.5747800586510263
2.541544477028348
2.496578690127077
2.442815249266862
2.383186705767351
2.3167155425219943
2.247311827956989
2.175953079178885
2.112414467253177
2.0527859237536656
1.9902248289345064
1.9286412512218964
1.8670576735092863
1.8093841642228736
1.7575757575757576
1.7116324535679377
1.6695992179863148
1.632453567937439
1.598240469208211
1.5669599217986314
1.5366568914956011
1.5112414467253177
1.4887585532746823
1.4633431085043989
1.435972629521017
1.4076246334310851
1.3812316715542523
1.3548387096774193
1.3294232649071358
1.305962854349951
1.2834799608993157
1.262952101661779
1.2443792766373412
1.2326490713587488
1.224828934506354
1.2130987292277615
1.2003910068426198
1.1867057673509287
1.1720430107526882
1.1564027370478984
1.1407624633431086
1.1251221896383188
1.110459433040078
1.096774193548387
1.0850439882697946
1.0791788856304985
1.0850439882697946
1.1026392961876832
1.133919843597263
1.1867057673509287
1.262952101661779
1.3636363636363635
1.4858260019550342
1.6256109481915937
1.7781036168132942
1.935483870967742
2.089931573802541
2.2375366568914954
2.357771260997068
2.455522971652004
2.548387096774193
2.6265884652981426
2.686217008797654
2.7253176930596283
2.742913000977517
2.740957966764418
2.721407624633431
2.687194525904203
2.6402737047898337
2.582600195503421
2.5249266862170088
2.466275659824047
2.39980449657869
2.329423264907136
2.257086999022483
2.1847507331378297
2.113391984359726
2.0449657869012707
