ppg
1.1925708699902249
1.1925708699902249
1.1935483870967742
1.1945259042033236
1.195503421309873
1.1964809384164223
1.1994134897360704
1.2043010752688172
1.2072336265884651
1.2101661779081134
1.164222873900293
1.093841642228739
1.0596285434995112
1.0420332355816226
1.0332355816226784
1.029325513196481
1.0273704789833822
1.0263929618768328
1.0283479960899315
1.032258064516129
1.0342130987292275
1.0342130987292275
1.0332355816226784
1.0312805474095796
1.029325513196481
1.0273704789833822
1.024437927663734
1.0205278592375366
1.0156402737047898
1.0117302052785924
1.0127077223851415
1.0195503421309873
1.0361681329423265
1.0694037145650048
1.1280547409579669
1.2160312805474096
1.335288367546432
1.482893450635386
1.6520039100684265
1.8328445747800584
2.0127077223851417
2.1818181818181817
2.332355816226784
2.444770283479961
2.527859237536657
2.601173020527859
2.658846529814272
2.6989247311827955
2.724340175953079
2.736070381231672
2.7370478983382207
2.7311827956989245
2.719452590420332
2.704789833822092
2.687194525904203
2.667644183773216
2.6471163245356792
2.627565982404692
2.6080156402737047
2.5865102639296187
2.560117302052786
2.527859237536657
2.487781036168133
2.4389051808406648
2.3812316715542523
2.314760508308896
2.242424242424242
2.166177908113392
2.0977517106549364
2.035190615835777
1.9716520039100685
1.911045943304008
1.857282502443793
1.8113391984359728
1.7732160312805474
1.7419354838709675
1.7145650048875856
1.689149560117302
1.664711632453568
1.6392961876832846
1.616813294232649
1.5943304007820136
1.5669599217986314
1.5366568914956011
1.5053763440860215
1.4731182795698925
1.439882697947214
1.4076246334310851
1.375366568914956
1.343108504398827
1.3118279569892473
1.281524926686217
1.2512218963831867
1.2258064516129032
1.203323558162268
1.176930596285435
1.1485826001955035
1.1202346041055715
1.0918866080156402
1.0654936461388074
1.040078201368524
1.0166177908113392
0.9951124144672532
0.975562072336266
0.9579667644183774
0.9452590420332356
0.9345063538611924
0.9208211143695014
0.9042033235581622
0.8856304985337243
0.8660801564027371
0.8455522971652004
0.8250244379276638
0.804496578690127
0.7849462365591398
0.7673509286412512
0.750733137829912
0.7350928641251222
0.7253176930596286
0.718475073313783
0.70772238514174
0.6940371456500489
0.6803519061583577
0.6666666666666666
0.6549364613880743
0.6451612903225806
0.6392961876832844
0.6383186705767351
0.6412512218963832
0.6480938416422287
0.6608015640273704
0.6764418377321603
0.6920821114369502
0.70772238514174
0.7233626588465298
0.7390029325513197
0.7546432062561095
0.7693059628543499
0.7839687194525904
0.7976539589442815
0.8113391984359726
0.8269794721407625
0.8475073313782991
0.8729227761485826
0.9071358748778104
0.9589442815249268
1.035190615835777
1.142717497556207
1.284457478005865
1.4594330400782014
1.6608015640273706
1.878787878787879
2.102639296187683
2.3196480938416424
2.5190615835777126
2.674486803519061
2.7947214076246336
2.9071358748778104
3.0
3.072336265884653
3.124144672531769
3.157380254154448
3.174975562072336
3.1808406647116323
3.1788856304985336
3.1700879765395893
3.157380254154448
3.142717497556207
3.12316715542522
3.1006842619745845
3.080156402737048
3.06158357771261
3.042033235581622
3.0205278592375366
2.994134897360704
2.959921798631476
2.9159335288367547
2.8611925708699903
2.795698924731183
2.720430107526881
2.644183773216031
2.5669599217986314
2.4809384164222874
2.3919843597262958
2.304985337243402
2.2248289345063537
2.1524926686217007
2.089931573802541
2.0361681329423265
1.9902248289345064
1.951124144672532
1.916911045943304
1.8866080156402736
1.8602150537634408
1.836754643206256
1.8113391984359728
1.7849462365591398
1.7565982404692082
1.7272727272727273
1.696969696969697
1.6656891495601174
1.6344086021505375
1.6021505376344083
1.5698924731182795
1.5376344086021505
1.5102639296187683
1.4848484848484849
1.457478005865103
1.4281524926686218
1.3988269794721409
1.3695014662756595
1.3411534701857282
1.3118279569892473
1.2825024437927663
1.2531769305962854
1.2238514173998043
1.1935483870967742
1.164222873900293
1.1407624633431086
1.121212121212121
1.0987292277614855
1.075268817204301
1.0527859237536656
1.0312805474095796
1.0127077223851415
0.9960899315738024
0.981427174975562
0.9687194525904204
0.9589442815249268
0.9521016617790812
0.9501466275659824
0.9521016617790812
0.9530791788856304
0.95405669599218
0.9550342130987292
0.9560117302052786
0.9560117302052786
0.9560117302052786
0.9550342130987292
0.95405669599218
0.9530791788856304
0.9530791788856304
0.95405669599218
0.9579667644183774
0.9638318670576737
0.9696969696969696
0.975562072336266
0.9824046920821116
0.9882697947214076
0.9921798631476052
0.9931573802541545
0.9912023460410556
0.9843597262952102
0.9726295210166178
0.9550342130987292
0.93841642228739
0.9227761485826002
0.9022482893450636
0.8826979472140762
0.8729227761485826
0.8807429130009775
0.913978494623656
0.9794721407624634
1.0801564027370478
1.2160312805474096
1.3792766373411536
1.5884652981427174
1.7878787878787878
1.943304007820137
2.089931573802541
2.2218963831867056
2.3362658846529816
2.432062561094819
2.509286412512219
2.5698924731182795
2.6158357771261
2.649071358748778
2.6725317693059627
2.689149560117302
2.699902248289345
2.7038123167155423
2.702834799608993
2.704789833822092
2.70772238514174
2.710654936461388
2.7126099706744866
2.7145650048875853
2.713587487781036
2.7096774193548385
2.699902248289345
2.6832844574780057
2.658846529814272
2.6285434995112413
2.593352883675464
2.550342130987292
2.5004887585532747
2.44672531769306
2.391006842619746
2.335288367546432
2.283479960899316
2.2385141739980448
2.20039100684262
2.1700879765395893
2.147605083088954
2.132942326490713
2.124144672531769
2.120234604105572
2.121212121212121
2.1270772238514173
2.134897360703812
2.144672531769306
2.155425219941349
2.166177908113392
2.175953079178885
2.1837732160312804
2.1867057673509285
2.1837732160312804
2.175953079178885
2.161290322580645
2.1388074291300097
2.10850439882698
2.069403714565005
2.0234604105571847
1.970674486803519
1.9149560117302051
1.8563049853372435
1.7986314760508308
1.7429130009775171
1.6911045943304008
1.643206256109482
1.6041055718475072
1.5718475073313782
1.5386119257087
1.5073313782991202
1.478005865102639
1.452590420332356
1.43108504398827
1.412512218963832
1.396871945259042
1.3841642228739004
1.3724340175953078
1.3616813294232648
1.3548387096774193
1.3499511241446724
1.343108504398827
1.335288367546432
1.327468230694037
1.3196480938416422
1.3118279569892473
1.3040078201368523
1.2981427174975562
1.2932551319648091
1.289345063538612
1.2864125122189638
1.284457478005865
1.2864125122189638
1.289345063538612
1.2913000977517106
1.2932551319648091
1.2942326490713587
1.295210166177908
1.295210166177908
1.2942326490713587
1.29227761485826
1.289345063538612
1.2864125122189638
1.2825024437927663
1.2805474095796676
1.2795698924731185
1.2766373411534702
1.2727272727272727
1.2668621700879763
1.260019550342131
1.2531769305962854
1.24633431085044
1.2424242424242424
1.2453567937438903
1.260019550342131
1.2913000977517106
1.3440860215053765
1.4076246334310851
1.4848484848484849
1.587487781036168
1.7086999022482894
1.8387096774193548
1.9687194525904204
2.090909090909091
2.198435972629521
2.289345063538612
2.360703812316716
2.4144672531769307
2.4516129032258065
2.472140762463343
2.4809384164222874
2.484848484848485
2.4838709677419355
2.479960899315738
2.4731182795698925
2.464320625610948
2.4545454545454546
2.443792766373412
2.432062561094819
2.420332355816227
2.407624633431085
2.3919843597262958
2.3734115347018574
2.350928641251222
2.3225806451612905
2.2873900293255134
2.244379276637341
2.1945259042033234
2.139784946236559
2.081133919843597
2.021505376344086
1.963831867057673
1.911045943304008
1.8641251221896384
1.827956989247312
1.7986314760508308
1.7732160312805474
1.750733137829912
1.732160312805474
1.715542521994135
1.7008797653958945
1.686217008797654
1.6715542521994136
1.6559139784946235
1.6392961876832846
1.6217008797653958
1.6041055718475072
1.5884652981427174
1.5747800586510263
1.5571847507331378
1.5386119257087
1.520039100684262
1.500488758553275
1.4809384164222874
1.4623655913978495
1.4428152492668622
1.423264907135875
1.404692082111437
1.3861192570869991
1.3724340175953078
1.3607038123167154
1.3470185728250244
1.3333333333333333
1.3196480938416422
1.3069403714565004
1.295210166177908
1.284457478005865
1.2756598240469208
1.2668621700879763
1.260019550342131
1.2531769305962854
1.2473118279569892
1.2453567937438903
1.2453567937438903
1.2443792766373412
1.2434017595307918
1.2424242424242424
1.241446725317693
1.241446725317693
1.2424242424242424
1.2424242424242424
1.2434017595307918
1.2443792766373412
1.2453567937438903
1.2482893450635386
1.2512218963831867
1.252199413489736
1.252199413489736
1.252199413489736
1.252199413489736
1.252199413489736
1.2531769305962854
1.2541544477028348
1.2551319648093842
1.2561094819159335
1.2570869990224829
1.260019550342131
1.2639296187683284
1.2658846529814272
1.2668621700879763
1.2668621700879763
1.2668621700879763
1.2668621700879763
1.2658846529814272
1.2639296187683284
1.2619745845552297
1.260019550342131
1.2619745845552297
1.270772238514174
1.2873900293255132
1.3157380254154447
1.3636363636363635
1.435972629521017
1.5327468230694037
1.651026392961877
1.7869012707722385
1.9315738025415443
2.0772238514174
2.21505376344086
2.337243401759531
2.4408602150537635
2.515151515151515
2.5669599217986314
2.610948191593353
2.643206256109482
2.664711632453568
2.674486803519061
2.675464320625611
2.668621700879765
2.656891495601173
2.6402737047898337
2.621700879765396
2.6021505376344085
2.5806451612903225
2.558162267839687
2.5347018572825024
2.50733137829912
2.4760508308895406
2.439882697947214
2.4349951124144678
2.4379276637341154
2.398826979472141
2.3382209188660803
2.2668621700879767
2.1925708699902247
2.121212121212121
2.060606060606061
2.0097751710654936
1.962854349951124
1.9227761485826005
1.889540566959922
1.8621700879765395
1.839687194525904
1.8211143695014664
1.8035190615835777
1.7849462365591398
1.7663734115347018
1.7458455522971652
1.7243401759530792
1.704789833822092
1.6852394916911049
1.6627565982404693
1.6392961876832846
1.6138807429130009
1.5884652981427174
1.563049853372434
1.5376344086021505
1.512218963831867
1.4868035190615836
1.4623655913978495
1.4379276637341154
1.418377321603128
1.401759530791789
1.3822091886608017
1.3626588465298142
1.3440860215053765
1.3255131964809383
1.3088954056695992
1.2932551319648091
1.2795698924731185
1.267839687194526
1.2570869990224829
1.2482893450635386
1.2404692082111437
1.2365591397849462
1.2355816226783969
1.2326490713587488
1.2297165200391007
1.2267839687194526
1.2238514173998043
1.2209188660801564
1.2179863147605083
1.2140762463343109
1.2111436950146628
1.2082111436950147
1.2043010752688172
1.2043010752688172
1.2052785923753666
1.203323558162268
1.2013685239491692
1.198435972629521
1.1945259042033236
1.1896383186705768
1.1837732160312806
1.176930596285435
1.1710654936461389
1.166177908113392
1.1622678396871946
1.160312805474096
1.1612903225806452
1.164222873900293
1.166177908113392
1.1671554252199414
1.1671554252199414
1.166177908113392
1.163245356793744
1.160312805474096
1.1564027370478984
1.1534701857282503
1.152492668621701
1.1593352883675463
1.1759530791788857
1.2072336265884651
1.2639296187683284
1.3509286412512218
1.4721407624633431
1.6256109481915937
1.8035190615835777
1.997067448680352
2.193548387096774
2.3812316715542523
2.550342130987292
2.6959921798631474
2.814271749755621
2.8944281524926687
2.9472140762463344
2.989247311827957
3.018572825024438
3.0361681329423265
3.0439882697947214
3.043010752688172
3.0361681329423265
3.0254154447702835
3.0117302052785924
2.9980449657869013
2.98435972629521
2.967741935483871
2.949169110459433
2.9315738025415445
2.913000977517106
2.8914956011730206
2.8641251221896384
2.8289345063538613
2.7839687194525906
2.730205278592375
2.665689149560117
2.591397849462365
2.5102639296187683
2.4242424242424243
2.345063538611926
2.270772238514174
2.193548387096774
2.120234604105572
2.053763440860215
1.9951124144672527
1.946236559139785
1.905180840664712
1.871945259042033
1.8435972629521016
1.818181818181818
1.7947214076246334
1.775171065493646
1.7565982404692082
1.7360703812316716
1.7135874877810362
1.6901270772238517
1.664711632453568
1.6392961876832846
1.6129032258064515
1.585532746823069
1.5581622678396871
1.530791788856305
1.5034213098729228
1.47702834799609
1.4545454545454546
1.435972629521017
1.414467253176931
1.3919843597262953
1.370478983382209
1.3499511241446724
1.3304007820136852
1.3128054740957966
1.2961876832844574
1.281524926686217
1.267839687194526
1.2561094819159335
1.2482893450635386
1.2424242424242424
1.2355816226783969
1.2287390029325511
1.2218963831867058
1.2150537634408602
1.2082111436950147
1.2023460410557183
1.195503421309873
1.1896383186705768
1.1837732160312806
1.176930596285435
1.1691104594330402
1.163245356793744
1.1564027370478984
1.1456500488758554
1.130987292277615
1.1133919843597262
1.093841642228739
1.072336265884653
1.0498533724340176
1.0273704789833822
1.0048875855327468
0.981427174975562
0.9589442815249268
0.9413489736070382
0.9266862170087976
0.9090909090909092
0.8905180840664711
0.8719452590420332
0.855327468230694
0.841642228739003
0.8318670576735093
0.8260019550342131
0.823069403714565
0.8240469208211144
0.8279569892473119
0.8367546432062561
0.8475073313782991
0.8572825024437928
0.8690127077223851
0.8856304985337243
0.913978494623656
0.9589442815249268
1.029325513196481
1.1300097751710656
1.2639296187683284
1.4291300097751711
1.6187683284457477
1.823069403714565
2.003910068426197
2.1652003910068425
2.334310850439883
2.4916911045943304
2.6265884652981426
2.735092864125122
2.8181818181818183
2.877810361681329
2.916911045943304
2.9393939393939394
2.948191593352884
2.9472140762463344
2.936461388074292
2.920821114369501
2.9042033235581624
2.8885630498533725
2.8729227761485827
2.8582600195503423
2.843597262952102
2.8289345063538613
2.811339198435973
2.789833822091887
2.7614858260019552
2.724340175953079
2.675464320625611
2.621700879765396
2.5610948191593352
2.486803519061584
2.4027370478983383
2.3118279569892475
2.218963831867057
2.1270772238514173
2.040078201368524
1.9618768328445748
1.8934506353861196
1.8347996089931573
1.7849462365591398
1.747800586510264
1.718475073313783
1.6920821114369502
1.6686217008797657
1.64613880742913
1.624633431085044
1.603128054740958
1.581622678396872
1.5591397849462365
1.5356793743890518
1.512218963831867
1.487781036168133
1.4926686217008798
1.5180840664711632
1.5239491691104594
1.517106549364614
1.504398826979472
1.4887585532746823
1.4731182795698925
1.457478005865103
1.4418377321603129
1.4271749755620724
1.412512218963832
1.3988269794721409
1.3861192570869991
1.3763440860215057
1.3695014662756595
1.3607038123167154
1.3509286412512218
1.3411534701857282
1.3304007820136852
1.3196480938416422
1.3098729227761483
1.300097751710655
1.2903225806451613
1.281524926686217
1.273704789833822
1.2668621700879763
1.2639296187683284
1.2619745845552297
1.2570869990224829
1.252199413489736
1.24633431085044
1.241446725317693
1.2365591397849462
1.2316715542521994
1.227761485826002
1.224828934506354
1.2228739002932552
1.2218963831867058
1.224828934506354
1.2297165200391007
1.2346041055718475
1.2394916911045943
1.2434017595307918
1.2473118279569892
1.2512218963831867
1.2551319648093842
1.2580645161290325
1.260019550342131
1.2609970674486803
1.2609970674486803
1.2609970674486803
1.262952101661779
1.2658846529814272
1.2668621700879763
1.2658846529814272
1.2639296187683284
1.2609970674486803
1.2570869990224829
1.2502443792766371
1.2424242424242424
1.2326490713587488
1.2238514173998043
1.2189638318670577
1.2228739002932552
1.2394916911045943
1.2746823069403714
1.3362658846529814
1.4271749755620724
1.5493646138807429
1.6979472140762464
1.865102639296188
2.040078201368524
2.212121212121212
2.3714565004887587
2.5102639296187683
2.625610948191593
2.7067448680351904
2.7614858260019552
2.8054740957966766
2.834799608993157
2.8514173998044967
2.857282502443793
2.854349951124145
2.844574780058651
2.83088954056696
2.8132942326490715
2.7947214076246336
2.7751710654936463
2.7536656891495603
2.730205278592375
2.705767350928641
2.677419354838709
2.644183773216031
2.6041055718475072
2.5562072336265884
2.5004887585532747
2.436950146627566
2.3685239491691106
2.297165200391007
2.225806451612903
2.158357771260997
2.102639296187683
2.0557184750733137
2.0117302052785924
1.9736070381231672
1.9423264907135875
1.9159335288367547
1.8934506353861196
1.8729227761485825
1.8533724340175952
1.833822091886608
1.8132942326490715
1.7917888563049853
1.772238514173998
1.75366568914956
1.7311827956989247
1.7057673509286413
1.6793743890518085
1.6520039100684265
1.6236559139784943
1.5943304007820136
1.5650048875855327
1.5366568914956011
1.509286412512219
1.482893450635386
1.457478005865103
1.4379276637341154
1.4222873900293256
1.4037145650048877
1.3851417399804498
1.3685239491691104
1.35386119257087
1.3401759530791788
1.3284457478005864
1.3176930596285434
1.3079178885630498
1.2991202346041055
1.2913000977517106
1.2864125122189638
1.2834799608993157
1.2795698924731185
1.2746823069403714
1.2697947214076246
1.2658846529814272
1.2639296187683284
1.2639296187683284
1.2668621700879763
1.273704789833822
1.2834799608993157
1.2971652003910068
1.313782991202346
1.332355816226784
1.3528836754643203
1.375366568914956
1.396871945259042
1.4164222873900294
1.434017595307918
1.4486803519061584
1.4604105571847508
1.4682306940371457
1.4721407624633431
1.4721407624633431
1.469208211143695
1.4652981427174976
1.4604105571847508
1.4506353861192571
1.4379276637341154
1.423264907135875
1.4086021505376345
1.396871945259042
1.393939393939394
1.4066471163245358
1.4408602150537635
1.5024437927663734
1.5943304007820136
1.694037145650049
1.8064516129032255
1.951124144672532
2.113391984359726
2.2795698924731185
2.4379276637341154
2.579667644183773
2.699902248289345
2.7966764418377323
2.8690127077223853
2.919843597262952
2.951124144672532
2.9667644183773216
2.9667644183773216
2.956989247311828
2.9442815249266863
2.929618768328446
2.9120234604105573
2.89345063538612
2.874877810361681
2.8563049853372435
2.838709677419355
2.820136852394917
2.7996089931573804
2.776148582600196
2.7497556207233624
2.717497556207233
2.677419354838709
2.6295210166177907
2.5718475073313782
2.506353861192571
2.4349951124144678
2.3597262952101663
2.2854349951124147
2.2140762463343107
2.147605083088954
2.088954056695992
2.0391006842619745
2.0009775171065494
1.970674486803519
1.9442815249266865
1.920821114369501
1.8993157380254155
1.878787878787879
1.858260019550342
1.836754643206256
1.8142717497556209
1.790811339198436
1.7663734115347018
1.7409579667644184
1.7174975562072337
1.6959921798631477
1.672531769305963
1.6471163245356797
1.6207233626588464
1.5943304007820136
1.5679374389051808
1.541544477028348
1.5161290322580645
1.4916911045943304
1.469208211143695
1.447702834799609
1.4271749755620724
1.412512218963832
1.1065493646138806
1.1055718475073313
1.104594330400782
1.1036168132942326
1.1026392961876832
1.1016617790811338
1.1006842619745845
1.1006842619745845
1.1006842619745845
1.1016617790811338
1.1026392961876832
1.1065493646138806
1.1124144672531768
1.1173020527859236
1.1221896383186705
1.1270772238514175
1.130987292277615
1.1348973607038124
1.13880742913001
1.141739980449658
1.1436950146627567
1.1436950146627567
1.141739980449658
1.1397849462365592
1.141739980449658
1.1485826001955035
1.163245356793744
1.195503421309873
1.2531769305962854
1.343108504398827
1.469208211143695
1.6285434995112416
1.8142717497556209
2.016617790811339
2.222873900293255
2.420332355816227
2.5777126099706744
2.702834799608993
2.820136852394917
2.918866080156403
2.994134897360704
3.04594330400782
3.0772238514174
3.09188660801564
3.0928641251221896
3.0840664711632453
3.0684261974584555
3.048875855327468
3.027370478983382
3.002932551319648
2.9775171065493646
2.956011730205278
2.936461388074292
2.916911045943304
2.8963831867057674
2.8729227761485827
2.844574780058651
2.809384164222874
2.764418377321604
2.708699902248289
2.641251221896383
2.5718475073313782
2.498533724340176
2.412512218963832
2.3196480938416424
2.2238514173998043
2.1309872922776147
2.0439882697947214
1.964809384164223
1.8973607038123168
1.8406647116324533
1.7947214076246334
1.7575757575757576
1.7282502443792769
1.7057673509286413
1.686217008797654
1.6666666666666667
1.6451612903225807
1.6226783968719452
1.598240469208211
1.5718475073313782
1.544477028347996
1.517106549364614
1.4897360703812317
1.4623655913978495
1.435972629521017
1.4134897360703813
1.3949169110459434
1.3734115347018572
1.3499511241446724
1.3264907135874875
1.303030303030303
1.2805474095796676
1.2570869990224829
1.2346041055718475
1.2121212121212122
1.1896383186705768
1.1681329423264908
1.147605083088954
1.1329423264907137
1.121212121212121
1.1085043988269794
1.0948191593352885
1.0811339198435972
1.067448680351906
1.0547409579667644
1.043010752688172
1.032258064516129
1.021505376344086
1.0117302052785924
1.002932551319648
0.9980449657869012
0.9960899315738024
0.9902248289345064
0.9833822091886608
0.9765395894428152
0.9696969696969696
0.9618768328445748
0.95405669599218
0.9472140762463344
0.9403714565004888
0.9335288367546432
0.927663734115347
0.9266862170087976
0.9266862170087976
0.9247311827956988
0.9217986314760508
0.9178885630498532
0.9149560117302052
0.9120234604105572
0.9100684261974584
0.9081133919843596
0.9051808406647116
0.9032258064516128
0.9012707722385142
0.8983382209188661
0.8983382209188661
0.8993157380254154
0.8963831867057673
0.8914956011730205
0.884652981427175
0.8758553274682307
0.8690127077223851
0.8670576735092864
0.8758553274682307
0.9022482893450636
0.95405669599218
1.0391006842619743
1.1378299120234605
1.2580645161290325
1.4193548387096775
1.6080156402737047
1.812316715542522
2.018572825024438
2.2140762463343107
2.388074291300098
2.535679374389052
2.653958944281525
2.744868035190616
2.809384164222874
2.852394916911046
2.8729227761485827
2.878787878787879
2.878787878787879
2.8729227761485827
2.8641251221896384
2.852394916911046
2.8396871945259043
2.8269794721407626
2.814271749755621
2.801564027370479
2.7869012707722387
2.76930596285435
2.7468230694037143
2.717497556207233
2.681329423264907
2.635386119257087
2.5777126099706744
2.5102639296187683
2.4330400782013686
2.3489736070381237
2.260019550342131
2.1700879765395893
2.085043988269794
2.005865102639296
1.9364613880742916
1.881720430107527
1.8377321603128052
1.7986314760508308
1.7644183773216031
1.7360703812316716
1.710654936461388
1.6871945259042034
1.6637341153470186
1.6392961876832846
1.6148582600195502
1.5894428152492668
1.563049853372434
1.5405669599217986
1.5190615835777126
1.4946236559139785
1.4682306940371457
1.4408602150537635
1.412512218963832
1.3841642228739004
1.3558162267839686
1.327468230694037
1.300097751710655
1.2727272727272727
1.24633431085044
1.219941348973607
1.1994134897360704
1.1827956989247312
1.1622678396871946
1.1407624633431086
1.1202346041055715
1.099706744868035
1.0811339198435972
1.064516129032258
1.0488758553274682
1.035190615835777
1.0224828934506354
1.0117302052785924
1.0058651026392962
1.0019550342130987
0.997067448680352
0.9921798631476052
0.9882697947214076
0.9853372434017597
0.9833822091886608
0.9824046920821116
0.9824046920821116
0.9833822091886608
