ppg
2.9257086999022484
2.8963831867057674
2.859237536656892
2.8132942326490715
2.7595307917888565
2.697947214076246
2.631476050830889
2.5620723362658846
2.49266862170088
2.4242424242424243
2.357771260997068
2.294232649071359
2.239491691104594
2.1915933528836757
2.145650048875855
2.103616813294233
2.0664711632453567
2.034213098729228
2.005865102639296
1.981427174975562
1.9608993157380252
1.9423264907135875
1.9257086999022484
1.9090909090909087
1.8934506353861196
1.8778103616813293
1.8602150537634408
1.842619745845552
1.8240469208211143
1.804496578690127
1.7820136852394917
1.758553274682307
1.7331378299120237
1.7067448680351909
1.6813294232649072
1.656891495601173
1.632453567937439
1.6109481915933528
1.5923753665689149
1.5728250244379276
1.552297165200391
1.5298142717497556
1.5063538611925709
1.482893450635386
1.458455522971652
1.434017595307918
1.4105571847507332
1.388074291300098
1.3665689149560116
1.348973607038123
1.335288367546432
1.3196480938416422
1.3049853372434017
1.29227761485826
1.2795698924731185
1.2668621700879763
1.2541544477028348
1.2424242424242424
1.2297165200391007
1.2179863147605083
1.2082111436950147
1.1974584555229717
1.1896383186705768
1.1827956989247312
1.173998044965787
1.1622678396871946
1.1505376344086022
1.13880742913001
1.1280547409579669
1.1192570869990224
1.1124144672531768
1.1065493646138806
1.1026392961876832
1.0987292277614855
1.096774193548387
1.0957966764418376
1.0928641251221896
1.0879765395894427
1.0821114369501466
1.0762463343108504
1.0703812316715542
1.064516129032258
1.0586510263929618
1.0527859237536656
1.0488758553274682
1.0449657869012707
1.040078201368524
1.0371456500488758
1.0361681329423265
1.032258064516129
1.0273704789833822
1.0234604105571847
1.0195503421309873
1.0156402737047898
1.0117302052785924
1.0087976539589445
1.0068426197458455
1.0058651026392962
1.0039100684261977
1.0048875855327468
1.0087976539589445
1.0127077223851415
1.021505376344086
1.040078201368524
1.0742913000977516
1.1280547409579669
1.2052785923753666
1.3079178885630498
1.4330400782013686
1.576735092864125
1.732160312805474
1.8934506353861196
2.032258064516129
2.156402737047898
2.2873900293255134
2.4134897360703813
2.527859237536657
2.627565982404692
2.7096774193548385
2.773216031280548
2.8181818181818183
2.8475073313782997
2.860215053763441
2.8582600195503423
2.843597262952102
2.819159335288368
2.7869012707722387
2.747800586510264
2.7008797653958942
2.6471163245356792
2.587487781036168
2.5239491691104594
2.4574780058651027
2.388074291300098
2.318670576735093
2.2521994134897363
2.188660801564027
2.133919843597263
2.085043988269794
2.037145650048876
1.994134897360704
1.956989247311828
1.924731182795699
1.8973607038123168
1.8748778103616808
1.8563049853372435
1.839687194525904
1.825024437927664
1.8093841642228736
1.793743890518084
1.7810361681329423
1.7683284457478006
1.7546432062561097
1.739980449657869
1.7253176930596286
1.7086999022482894
1.6901270772238517
1.6686217008797657
1.64613880742913
1.6226783968719452
1.5992179863147604
1.5747800586510263
1.5532746823069403
1.5347018572825024
1.5131964809384164
1.4926686217008798
1.4721407624633431
1.4516129032258065
1.4301075268817205
1.409579667644184
1.3890518084066472
1.3685239491691104
1.348973607038123
1.3284457478005864
1.3118279569892473
1.2981427174975562
1.2834799608993157
1.2668621700879763
1.2502443792766371
1.2346041055718475
1.219941348973607
1.2072336265884651
1.1964809384164223
1.1867057673509287
1.176930596285435
1.1671554252199414
1.1583577712609971
1.152492668621701
1.147605083088954
1.13880742913001
1.1280547409579669
1.1173020527859236
1.10752688172043
1.099706744868035
1.0928641251221896
1.0869990224828934
1.0811339198435972
1.0772238514173995
1.0742913000977516
1.072336265884653
1.0713587487781036
1.0684261974584557
1.0635386119257086
1.0576735092864125
1.0518084066471165
1.04594330400782
1.040078201368524
1.0361681329423265
1.0332355816226784
1.0303030303030305
1.0263929618768328
1.0254154447702837
1.0263929618768328
1.024437927663734
1.0205278592375366
1.0156402737047898
1.0117302052785924
1.0087976539589445
1.0058651026392962
1.0019550342130987
0.9990224828934506
0.9960899315738024
0.9941348973607038
0.9931573802541545
0.997067448680352
1.0039100684261977
1.0156402737047898
1.0391006842619743
1.078201368523949
1.1368523949169111
1.219941348973607
1.3284457478005864
1.458455522971652
1.606060606060606
1.7644183773216031
1.9266862170087975
2.0664711632453567
2.189638318670577
2.318670576735093
2.4408602150537635
2.550342130987292
2.644183773216031
2.7253176930596283
2.790811339198436
2.835777126099707
2.865102639296188
2.878787878787879
2.877810361681329
2.8641251221896384
2.8406647116324537
2.807429130009776
2.7653958944281527
2.7155425219941347
2.6578690127077222
2.595307917888563
2.5288367546432062
2.4594330400782014
2.389051808406647
2.320625610948192
2.257086999022483
2.196480938416422
2.144672531769306
2.1006842619745845
2.058651026392962
2.021505376344086
1.989247311827957
1.959921798631476
1.9345063538611929
1.9120234604105573
1.89247311827957
1.873900293255132
1.8563049853372435
1.839687194525904
1.823069403714565
1.8074291300097751
1.7927663734115349
1.7771260997067448
1.7634408602150538
1.750733137829912
1.7360703812316716
1.7194525904203324
1.7008797653958945
1.6793743890518085
1.6559139784946235
1.6304985337243405
1.6041055718475072
1.581622678396872
1.5610948191593352
1.5386119257087
1.517106549364614
1.4975562072336266
1.478005865102639
1.457478005865103
1.436950146627566
1.4164222873900294
1.3958944281524928
1.3763440860215057
1.3558162267839686
1.335288367546432
1.3196480938416422
1.3069403714565004
1.2932551319648091
1.2776148582600195
1.2619745845552297
1.2473118279569892
1.2336265884652982
1.2209188660801564
1.2101661779081134
1.2003910068426198
1.1906158357771262
1.1808406647116323
1.1749755620723363
1.1700879765395895
1.1622678396871946
1.152492668621701
1.141739980449658
1.1319648093841643
1.1231671554252198
1.1163245356793745
1.1094819159335287
1.1026392961876832
1.096774193548387
1.0909090909090908
1.0869990224828934
1.0869990224828934
1.088954056695992
1.088954056695992
1.0869990224828934
1.0840664711632453
1.0791788856304985
1.0742913000977516
1.0684261974584557
1.0625610948191593
1.056695992179863
1.0527859237536656
1.0478983382209188
1.04594330400782
1.0449657869012707
1.0410557184750733
1.0361681329423265
1.0303030303030305
1.0254154447702837
1.0224828934506354
1.021505376344086
1.021505376344086
1.021505376344086
1.0205278592375366
1.0205278592375366
1.021505376344086
1.024437927663734
1.0283479960899315
1.035190615835777
1.0498533724340176
1.0801564027370478
1.1300097751710656
1.2043010752688172
1.305962854349951
1.4320625610948192
1.5786901270772238
1.739980449657869
1.9071358748778104
2.0527859237536656
2.1818181818181817
2.317693059628544
2.4486803519061584
2.567937438905181
2.6715542521994133
2.757575757575758
2.8260019550342133
2.87683284457478
2.911045943304008
2.929618768328446
2.9345063538611926
2.9266862170087977
2.9071358748778104
2.8797653958944283
2.8455522971652005
2.8044965786901277
2.755620723362659
2.7008797653958942
2.641251221896383
2.5777126099706744
2.5102639296187683
2.4408602150537635
2.372434017595308
2.3069403714565007
2.249266862170088
2.198435972629521
2.147605083088954
2.099706744868035
2.056695992179863
2.018572825024438
1.986314760508309
1.9589442815249267
1.935483870967742
1.916911045943304
1.900293255131965
1.8856304985337244
1.871945259042033
1.8592375366568916
1.8455522971652003
1.828934506353861
1.8113391984359728
1.7927663734115349
1.7732160312805474
1.7526881720430108
1.7311827956989247
1.7086999022482894
1.6852394916911049
1.6608015640273706
1.6363636363636365
1.6158357771260996
1.598240469208211
1.5786901270772238
1.5581622678396871
1.5366568914956011
1.5131964809384164
1.4897360703812317
1.4652981427174976
1.4408602150537635
1.4173998044965788
1.3949169110459434
1.3743890518084063
1.3558162267839686
1.3421309872922775
1.3304007820136852
1.3176930596285434
1.3049853372434017
1.2932551319648091
1.2805474095796676
1.2688172043010753
1.2551319648093842
1.2404692082111437
1.2267839687194526
1.2150537634408602
1.2043010752688172
1.1974584555229717
1.1925708699902249
1.18475073313783
1.1779081133919844
1.1710654936461389
1.163245356793744
1.155425219941349
1.1466275659824048
1.13880742913001
1.130987292277615
1.1241446725317692
1.118279569892473
1.115347018572825
1.1143695014662756
1.1124144672531768
1.1085043988269794
1.1055718475073313
1.1026392961876832
1.1006842619745845
1.0987292277614855
1.0977517106549364
1.0957966764418376
1.0928641251221896
1.0909090909090908
1.0879765395894427
1.0869990224828934
1.0879765395894427
1.0869990224828934
1.0840664711632453
1.0791788856304985
1.0742913000977516
1.0684261974584557
1.0635386119257086
1.0596285434995112
1.0547409579667644
1.0488758553274682
1.043010752688172
1.040078201368524
1.0391006842619743
1.0371456500488758
1.0361681329423265
1.0410557184750733
1.0547409579667644
1.0811339198435972
1.1241446725317692
1.1896383186705768
1.2795698924731185
1.393939393939394
1.5298142717497556
1.683284457478006
1.8240469208211143
1.9589442815249267
2.110459433040078
2.264907135874878
2.410557184750733
2.5425219941348973
2.658846529814272
2.757575757575758
2.838709677419355
2.9012707722385143
2.9472140762463344
2.978494623655914
2.9872922776148583
2.981427174975562
2.9716520039100685
2.9550342130987293
2.930596285434995
2.897360703812317
2.8563049853372435
2.806451612903226
2.750733137829912
2.689149560117302
2.625610948191593
2.5591397849462365
2.4916911045943304
2.429130009775171
2.3714565004887587
2.313782991202346
2.2580645161290325
2.206256109481916
2.160312805474096
2.120234604105572
2.0840664711632453
2.053763440860215
2.0283479960899315
2.006842619745845
1.9872922776148585
1.970674486803519
1.9560117302052784
1.9403714565004888
1.9237536656891496
1.906158357771261
1.8866080156402736
1.868035190615836
1.847507331378299
1.825024437927664
1.8025415444770283
1.780058651026393
1.7575757575757576
1.7350928641251222
1.7145650048875856
1.694037145650049
1.6705767350928642
1.6441837732160314
1.616813294232649
1.5894428152492668
1.5610948191593352
1.533724340175953
1.5063538611925709
1.4809384164222874
1.455522971652004
1.4320625610948192
1.414467253176931
1.3998044965786902
1.3851417399804498
1.3695014662756595
1.35386119257087
1.3391984359726294
1.3225806451612905
1.305962854349951
1.289345063538612
1.2727272727272727
1.2561094819159335
1.2394916911045943
1.2238514173998043
1.2130987292277615
1.2052785923753666
1.1964809384164223
1.1886608015640274
1.1808406647116323
1.1720430107526882
1.163245356793744
1.1544477028347997
1.147605083088954
1.1397849462365592
1.1329423264907137
1.126099706744868
1.121212121212121
1.1173020527859236
1.110459433040078
1.1036168132942326
1.096774193548387
1.0058651026392962
1.0068426197458455
1.0127077223851415
1.0303030303030305
1.0635386119257086
1.118279569892473
1.1974584555229717
1.303030303030303
1.4134897360703813
1.5298142717497556
1.6735092864125125
1.8328445747800584
1.997067448680352
2.1593352883675463
2.312805474095797
2.453567937438905
2.576735092864125
2.681329423264907
2.766373411534702
2.833822091886608
2.875855327468231
2.8993157380254155
2.9159335288367547
2.9227761485826003
2.918866080156403
2.906158357771261
2.884652981427175
2.852394916911046
2.8103616813294234
2.7595307917888565
2.701857282502444
2.6373411534701856
2.5698924731182795
2.50733137829912
2.44672531769306
2.3822091886608017
2.317693059628544
2.2561094819159337
2.19941348973607
2.147605083088954
2.099706744868035
2.056695992179863
2.0175953079178885
1.9843597262952104
1.9560117302052784
1.9335288367546437
1.9159335288367547
1.8993157380254155
1.8836754643206255
1.8699902248289344
1.855327468230694
1.8387096774193548
1.8211143695014664
1.8025415444770283
1.7839687194525904
1.7653958944281525
1.7448680351906158
1.7253176930596286
1.7057673509286413
1.683284457478006
1.6598240469208212
1.635386119257087
1.611925708699902
1.5894428152492668
1.5679374389051808
1.5464320625610948
1.5249266862170088
1.5034213098729228
1.4809384164222874
1.457478005865103
1.436950146627566
1.418377321603128
1.396871945259042
1.375366568914956
1.3548387096774193
1.3343108504398826
1.3157380254154447
1.300097751710655
1.2864125122189638
1.273704789833822
1.2609970674486803
1.2473118279569892
1.2355816226783969
1.2258064516129032
1.2140762463343109
1.2013685239491692
1.1886608015640274
1.176930596285435
1.1652003910068427
1.1534701857282503
1.142717497556207
1.1329423264907137
1.1231671554252198
1.1133919843597262
1.104594330400782
1.1006842619745845
1.0987292277614855
1.0948191593352885
1.0909090909090908
1.0879765395894427
1.0850439882697946
1.0801564027370478
1.0742913000977516
1.0684261974584557
1.0625610948191593
1.056695992179863
1.050830889540567
1.0478983382209188
1.0478983382209188
1.0478983382209188
1.0478983382209188
1.0469208211143697
1.0449657869012707
1.0410557184750733
1.0361681329423265
1.0312805474095796
1.0254154447702837
1.018572825024438
1.0117302052785924
1.0068426197458455
1.0058651026392962
1.0058651026392962
1.0048875855327468
1.0039100684261977
1.002932551319648
1.002932551319648
1.0009775171065494
0.9980449657869012
0.9951124144672532
0.9941348973607038
0.997067448680352
1.007820136852395
1.0273704789833822
1.0596285434995112
1.1124144672531768
1.1886608015640274
1.2903225806451613
1.414467253176931
1.5581622678396871
1.715542521994135
1.8807429130009776
2.04594330400782
2.2052785923753664
2.3528836754643208
2.4838709677419355
2.582600195503421
2.656891495601173
2.7253176930596283
2.782013685239492
2.822091886608016
2.8484848484848486
2.866080156402737
2.8729227761485827
2.865102639296188
2.844574780058651
2.8132942326490715
2.7722385141739982
2.7262952101661777
2.674486803519061
2.6158357771261
2.552297165200391
2.4858260019550342
2.4164222873900294
2.347996089931574
2.283479960899316
2.220918866080156
2.163245356793744
2.1094819159335287
2.06158357771261
2.0205278592375366
1.9872922776148585
1.9608993157380252
2.905180840664712
2.874877810361681
2.834799608993157
2.7859237536656893
2.727272727272727
2.6637341153470184
2.5962854349951123
2.5268817204301075
2.4574780058651027
2.3900293255131966
2.324535679374389
2.26197458455523
2.203323558162268
2.1515151515151514
2.1094819159335287
2.0733137829912023
2.040078201368524
2.0117302052785924
1.986314760508309
1.962854349951124
1.9403714565004888
1.920821114369501
1.9042033235581624
1.8885630498533723
1.871945259042033
1.8543499511241448
1.835777126099707
1.818181818181818
1.8005865102639296
1.7810361681329423
1.7605083088954057
1.739980449657869
1.7204301075268815
1.7008797653958945
1.6803519061583578
1.656891495601173
1.6334310850439884
1.6099706744868034
1.58455522971652
1.5620723362658846
1.541544477028348
1.5190615835777126
1.495601173020528
1.4731182795698925
1.4506353861192571
1.4291300097751711
1.4086021505376345
1.388074291300098
1.367546432062561
1.3479960899315735
1.3294232649071358
1.3128054740957966
1.300097751710655
1.2903225806451613
1.2795698924731185
1.267839687194526
1.2541544477028348
1.2404692082111437
1.2287390029325511
1.2179863147605083
1.2082111436950147
1.198435972629521
1.1886608015640274
1.1788856304985338
1.1720430107526882
1.1652003910068427
1.1564027370478984
1.1466275659824048
1.1378299120234605
1.1290322580645162
1.121212121212121
1.115347018572825
1.1094819159335287
1.1036168132942326
1.0977517106549364
1.0918866080156402
1.086021505376344
1.0850439882697946
1.0850439882697946
1.083088954056696
1.0801564027370478
1.0762463343108504
1.0733137829912025
1.0694037145650048
1.064516129032258
1.0596285434995112
1.053763440860215
1.0488758553274682
1.0449657869012707
1.043010752688172
1.0420332355816226
1.0391006842619743
1.0361681329423265
1.032258064516129
1.0283479960899315
1.0263929618768328
1.0254154447702837
1.0224828934506354
1.0195503421309873
1.0175953079178883
1.0175953079178883
1.018572825024438
1.0234604105571847
1.0312805474095796
1.0439882697947214
1.0684261974584557
1.1094819159335287
1.1720430107526882
1.260019550342131
1.3734115347018572
1.509286412512219
1.6627565982404693
1.8299120234604105
2.002932551319648
2.1524926686217007
2.283479960899316
2.423264907135875
2.5562072336265884
2.67644183773216
2.780058651026393
2.865102639296188
2.930596285434995
2.9775171065493646
3.0087976539589443
3.026392961876833
3.0303030303030303
3.0205278592375366
3.0009775171065494
2.975562072336266
2.941348973607038
2.8993157380254155
2.849462365591398
2.789833822091887
2.724340175953079
2.653958944281525
2.581622678396872
2.5083088954056696
2.4379276637341154
2.3714565004887587
2.313782991202346
2.2629521016617797
2.2130987292277613
2.167155425219941
2.1251221896383186
2.0879765395894427
2.0547409579667644
2.026392961876833
2.002932551319648
1.9833822091886608
1.9657869012707725
1.949169110459433
1.9335288367546437
1.9188660801564028
1.906158357771261
1.89247311827957
1.87683284457478
1.8592375366568916
1.8406647116324533
1.8201368523949168
1.7986314760508308
1.7761485826001957
1.7517106549364614
1.726295210166178
1.7008797653958945
1.678396871945259
1.6578690127077225
1.635386119257087
1.6129032258064515
1.5894428152492668
1.5650048875855327
1.5405669599217986
1.517106549364614
1.4926686217008798
1.4682306940371457
1.4467253176930597
1.4281524926686218
1.4134897360703813
1.401759530791789
1.388074291300098
1.3714565004887584
1.3528836754643203
1.335288367546432
1.3176930596285434
1.3010752688172045
1.2864125122189638
1.2727272727272727
1.2590420332355816
1.24633431085044
1.2346041055718475
1.2267839687194526
1.2218963831867058
1.2160312805474096
1.2082111436950147
1.1994134897360704
1.1906158357771262
1.181818181818182
1.1720430107526882
1.1622678396871946
1.1544477028347997
1.1485826001955035
1.142717497556207
1.1407624633431086
1.13880742913001
1.133919843597263
1.1290322580645162
1.1241446725317692
1.1192570869990224
1.115347018572825
1.1124144672531768
1.110459433040078
1.1094819159335287
1.1085043988269794
1.10752688172043
1.104594330400782
1.1055718475073313
1.1065493646138806
1.1036168132942326
1.1006842619745845
1.0987292277614855
1.0957966764418376
1.093841642228739
1.0909090909090908
1.0869990224828934
1.0821114369501466
1.078201368523949
1.0742913000977516
1.072336265884653
1.0713587487781036
1.0703812316715542
1.0703812316715542
1.0713587487781036
1.078201368523949
1.0948191593352885
1.1251221896383188
1.176930596285435
1.2531769305962854
1.3548387096774193
1.4819159335288368
1.629521016617791
1.7683284457478006
1.9042033235581624
2.060606060606061
2.2218963831867056
2.378299120234604
2.5239491691104594
2.653958944281525
2.766373411534702
2.8611925708699903
2.9374389051808407
2.997067448680352
3.040078201368524
3.0625610948191597
3.070381231671554
3.0733137829912023
3.0439882697947214
2.995112414467253
2.95405669599218
2.913978494623656
2.8699902248289346
2.820136852394917
2.763440860215054
2.701857282502444
2.635386119257087
2.5669599217986314
2.5034213098729228
2.443792766373412
2.3822091886608017
2.3225806451612905
2.2668621700879767
2.21505376344086
2.1681329423264906
2.1251221896383186
2.0869990224828934
2.0547409579667644
2.026392961876833
2.0009775171065494
1.9804496578690127
1.9618768328445748
1.945259042033236
1.9296187683284456
1.9130009775171064
1.8934506353861196
1.873900293255132
1.8543499511241448
1.8328445747800584
1.8103616813294232
1.7859237536656891
1.7605083088954057
1.7341153470185728
1.7096774193548387
1.6871945259042034
1.664711632453568
1.6412512218963833
1.616813294232649
1.5933528836754642
1.5718475073313782
1.5483870967741935
1.52297165200391
1.4975562072336266
1.4721407624633431
1.447702834799609
1.4271749755620724
1.409579667644184
1.3900293255131966
1.3714565004887584
1.35386119257087
1.3372434017595307
1.321603128054741
1.3069403714565004
1.2932551319648091
1.2805474095796676
1.267839687194526
1.2561094819159335
1.2424242424242424
1.23069403714565
1.2209188660801564
1.209188660801564
1.198435972629521
1.1867057673509287
1.1749755620723363
1.164222873900293
1.1544477028347997
1.144672531769306
1.1358748778103618
1.1270772238514175
1.1173020527859236
1.1114369501466277
1.10752688172043
1.1026392961876832
1.0977517106549364
1.0918866080156402
1.086021505376344
1.0801564027370478
1.0742913000977516
1.067448680351906
1.06158357771261
1.0557184750733135
1.0498533724340176
1.0469208211143697
1.0469208211143697
1.0478983382209188
1.0478983382209188
1.04594330400782
1.0439882697947214
1.0420332355816226
1.040078201368524
1.0391006842619743
1.0371456500488758
1.0361681329423265
1.035190615835777
1.035190615835777
1.0371456500488758
1.040078201368524
1.0420332355816226
1.0439882697947214
1.0478983382209188
1.0547409579667644
1.0664711632453567
1.0850439882697946
1.115347018572825
1.1612903225806452
1.227761485826002
1.3176930596285434
1.4134897360703813
1.521994134897361
1.6656891495601174
1.8347996089931573
2.021505376344086
2.2170087976539588
2.4134897360703813
2.603128054740958
2.779081133919844
2.9374389051808407
3.075268817204301
3.1915933528836757
3.2854349951124147
3.346041055718475
3.383186705767351
3.4164222873900294
3.439882697947214
3.452590420332356
3.455522971652004
3.447702834799609
3.4281524926686218
3.398826979472141
3.360703812316716
3.313782991202346
3.2580645161290325
3.198435972629521
3.133919843597263
3.0625610948191597
2.9872922776148583
2.911045943304008
2.832844574780059
2.755620723362659
2.679374389051808
2.606060606060606
2.536656891495601
2.4711632453567938
2.4086021505376345
2.3489736070381237
2.297165200391007
2.251221896383187
2.2052785923753664
2.161290322580645
2.1192570869990224
2.0791788856304985
2.0410557184750733
2.004887585532747
1.9687194525904204
1.932551319648094
1.895405669599218
1.858260019550342
1.8240469208211143
1.7917888563049853
1.7556207233626588
1.7165200391006843
1.6764418377321604
1.635386119257087
1.5943304007820136
1.5503421309872922
1.5053763440860215
1.4594330400782014
1.414467253176931
1.370478983382209
1.3284457478005864
1.295210166177908
1.2668621700879763
1.238514173998045
1.2130987292277615
1.1915933528836755
1.173998044965787
1.1593352883675463
1.147605083088954
1.1368523949169111
1.1270772238514175
1.1173020527859236
1.1094819159335287
1.1055718475073313
1.1036168132942326
1.099706744868035
1.093841642228739
1.0879765395894427
1.0811339198435972
1.0713587487781036
1.0606060606060606
1.0488758553274682
1.0371456500488758
1.0254154447702837
1.0146627565982405
1.0039100684261977
0.997067448680352
0.9902248289345064
0.9794721407624634
0.9667644183773216
0.9521016617790812
0.9374389051808406
0.9217986314760508
0.906158357771261
0.8924731182795699
0.8797653958944281
0.8670576735092864
0.8543499511241447
0.8465298142717498
0.841642228739003
0.833822091886608
0.8250244379276638
0.8162267839687195
0.8074291300097751
0.7986314760508308
0.7908113391984359
0.7849462365591398
0.7810361681329423
0.7771260997067448
0.7741935483870968
0.7712609970674487
0.772238514173998
0.7732160312805474
0.7702834799608993
0.7673509286412512
0.7644183773216031
0.761485826001955
0.7585532746823069
0.7556207233626588
0.7536656891495601
0.7546432062561095
0.7585532746823069
0.7712609970674487
0.7927663734115347
0.8269794721407625
0.8797653958944281
0.95405669599218
1.0527859237536656
1.1759530791788857
1.3196480938416422
1.478005865102639
1.6441837732160314
1.8113391984359728
1.9736070381231672
2.1251221896383186
