ppg
1.7204301075268815
1.699902248289345
1.6803519061583578
1.6608015640273706
1.640273704789834
1.6177908113391983
1.595307917888563
1.5708699902248289
1.5454545454545454
1.5190615835777126
1.4946236559139785
1.4701857282502444
1.4506353861192571
1.4330400782013686
1.4134897360703813
1.391006842619746
1.367546432062561
1.343108504398827
1.3176930596285434
1.29227761485826
1.2688172043010753
1.24633431085044
1.224828934506354
1.2043010752688172
1.1896383186705768
1.1788856304985338
1.166177908113392
1.1534701857282503
1.1407624633431086
1.1280547409579669
1.1143695014662756
1.1016617790811338
1.0909090909090908
1.0811339198435972
1.072336265884653
1.064516129032258
1.0576735092864125
1.0547409579667644
1.053763440860215
1.0488758553274682
1.043010752688172
1.0371456500488758
1.032258064516129
1.0263929618768328
1.021505376344086
1.0166177908113392
1.0127077223851415
1.010752688172043
1.010752688172043
1.013685239491691
1.0175953079178883
1.0195503421309873
1.0195503421309873
1.0175953079178883
1.0146627565982405
1.0117302052785924
1.0097751710654936
1.0068426197458455
1.0039100684261977
1.0019550342130987
1.002932551319648
1.007820136852395
1.018572825024438
1.0391006842619743
1.0742913000977516
1.1280547409579669
1.203323558162268
1.3020527859237536
1.4222873900293256
1.560117302052786
1.7116324535679377
1.869012707722385
2.0254154447702835
2.176930596285435
2.300097751710655
2.403714565004888
2.509286412512219
2.6080156402737047
2.6959921798631474
2.7722385141739982
2.833822091886608
2.8836754643206257
2.9237536656891496
2.9530791788856305
2.9716520039100685
2.979472140762464
2.979472140762464
2.9687194525904204
2.949169110459433
2.921798631476051
2.8856304985337244
2.8406647116324537
2.78494623655914
2.720430107526881
2.649071358748778
2.570869990224829
2.489736070381232
2.407624633431085
2.326490713587488
2.254154447702835
2.188660801564027
2.1221896383186705
2.059628543499511
2.0019550342130987
1.9501466275659824
1.9042033235581624
1.865102639296188
1.8318670576735088
1.8025415444770283
1.7771260997067448
1.75366568914956
1.7311827956989247
1.7116324535679377
1.694037145650049
1.675464320625611
1.6549364613880744
1.6334310850439884
1.6109481915933528
1.5894428152492668
1.5679374389051808
1.544477028347996
1.520039100684262
1.495601173020528
1.4701857282502444
1.447702834799609
1.4281524926686218
1.4076246334310851
1.3870967741935485
1.3665689149560116
1.346041055718475
1.3255131964809383
1.3049853372434017
1.284457478005865
1.2658846529814272
1.249266862170088
1.2326490713587488
1.2160312805474096
1.2043010752688172
1.1945259042033236
1.181818181818182
1.1700879765395895
1.1583577712609971
1.147605083088954
1.1368523949169111
1.126099706744868
1.1163245356793745
1.1065493646138806
1.0977517106549364
1.0909090909090908
1.088954056695992
1.0879765395894427
1.0850439882697946
1.0811339198435972
1.0772238514173995
1.0733137829912025
1.0713587487781036
1.0684261974584557
1.0664711632453567
1.0654936461388074
1.064516129032258
1.064516129032258
1.064516129032258
1.0664711632453567
1.0703812316715542
1.072336265884653
1.0733137829912025
1.0733137829912025
1.0713587487781036
1.067448680351906
1.0625610948191593
1.0586510263929618
1.0576735092864125
1.064516129032258
1.083088954056696
1.1114369501466277
1.1534701857282503
1.2189638318670577
1.3088954056695992
1.423264907135875
1.5571847507331378
1.7067448680351909
1.865102639296188
2.0254154447702835
2.182795698924731
2.3304007820136854
2.4652981427174976
2.5698924731182795
2.6529814271749754
2.736070381231672
2.811339198435973
2.875855327468231
2.930596285434995
2.9745845552297165
3.007820136852395
3.032258064516129
3.046920821114369
3.0518084066471163
3.047898338220919
3.034213098729228
3.010752688172043
2.978494623655914
2.93841642228739
2.8885630498533725
2.8289345063538613
2.7614858260019552
2.687194525904203
2.6070381231671558
2.5239491691104594
2.439882697947214
2.358748778103617
2.2825024437927666
2.217986314760508
2.15347018572825
2.0869990224828934
2.032258064516129
1.9872922776148585
1.948191593352884
1.9149560117302051
1.8866080156402736
1.86119257086999
1.8377321603128052
1.8162267839687196
1.7956989247311828
1.775171065493646
1.7565982404692082
1.739980449657869
1.721407624633431
1.7018572825024438
1.6823069403714566
1.6627565982404693
1.6422287390029326
1.619745845552297
1.595307917888563
1.5708699902248289
1.5464320625610948
1.52297165200391
1.5034213098729228
1.4887585532746823
1.4721407624633431
1.4545454545454546
1.436950146627566
1.418377321603128
1.3988269794721409
1.3792766373411536
1.359726295210166
1.3421309872922775
1.327468230694037
1.313782991202346
1.300097751710655
1.2903225806451613
1.2834799608993157
1.2746823069403714
1.2649071358748778
1.2561094819159335
1.2473118279569892
1.2394916911045943
1.2316715542521994
1.2238514173998043
1.217008797653959
1.2101661779081134
1.2043010752688172
1.2013685239491692
1.2003910068426198
1.1974584555229717
1.1935483870967742
1.1886608015640274
1.18475073313783
1.1808406647116323
1.1788856304985338
1.176930596285435
1.1749755620723363
1.1730205278592376
1.1700879765395895
1.1671554252199414
1.166177908113392
1.1671554252199414
1.166177908113392
1.164222873900293
1.1622678396871946
1.1593352883675463
1.1573802541544478
1.1583577712609971
1.1652003910068427
1.181818181818182
1.2130987292277615
1.2639296187683284
1.324535679374389
1.3998044965786902
1.5024437927663734
1.6275659824046922
1.76930596285435
1.919843597262952
2.072336265884653
2.220918866080156
2.3597262952101663
2.486803519061584
2.598240469208211
2.695014662756598
2.777126099706745
2.834799608993157
2.877810361681329
2.920821114369501
2.959921798631476
2.9931573802541545
3.0205278592375366
3.0410557184750733
3.0547409579667644
3.060606060606061
3.058651026392962
3.046920821114369
3.0234604105571847
2.9902248289345064
2.948191593352884
2.897360703812317
2.838709677419355
2.771260997067449
2.696969696969697
2.6177908113391983
2.535679374389052
2.453567937438905
2.3734115347018574
2.2961876832844577
2.2238514173998043
2.157380254154448
2.102639296187683
2.0576735092864125
2.0146627565982405
1.975562072336266
1.9393939393939397
1.9071358748778104
1.8778103616813293
1.8504398826979471
1.825024437927664
1.8005865102639296
1.775171065493646
1.7497556207233629
1.7272727272727273
1.7057673509286413
1.6813294232649072
1.6559139784946235
1.629521016617791
1.603128054740958
1.5777126099706744
1.5513196480938416
1.525904203323558
1.499511241446725
1.4731182795698925
1.4467253176930597
1.4213098729227762
1.401759530791789
1.3851417399804498
1.364613880742913
1.3440860215053765
1.3225806451612905
1.3020527859237536
1.281524926686217
1.262952101661779
1.24633431085044
1.23069403714565
1.2150537634408602
1.1994134897360704
1.187683284457478
1.1788856304985338
1.1681329423264908
1.1564027370478984
1.1436950146627567
1.1319648093841643
1.121212121212121
1.1124144672531768
1.104594330400782
1.096774193548387
1.0909090909090908
1.0850439882697946
1.0791788856304985
1.0772238514173995
1.0772238514173995
1.0742913000977516
1.0703812316715542
1.0654936461388074
1.0606060606060606
1.0557184750733135
1.050830889540567
1.04594330400782
1.0410557184750733
1.0361681329423265
1.032258064516129
1.0312805474095796
1.032258064516129
1.0303030303030305
1.0273704789833822
1.0254154447702837
1.0254154447702837
1.0283479960899315
1.0410557184750733
1.067448680351906
1.1114369501466277
1.1759530791788857
1.262952101661779
1.3724340175953078
1.482893450635386
1.5972629521016617
1.7341153470185728
1.8807429130009776
2.029325513196481
2.1730205278592374
2.3059628543499517
2.4252199413489737
2.5288367546432062
2.616813294232649
2.6901270772238512
2.7497556207233624
2.788856304985337
2.814271749755621
2.8367546432062563
2.852394916911046
2.8611925708699903
2.86217008797654
2.855327468230694
2.8396871945259043
2.8152492668621703
2.782013685239492
2.739980449657869
2.687194525904203
2.631476050830889
2.5718475073313782
2.5024437927663734
2.4271749755620724
2.347996089931574
2.2688172043010755
2.1925708699902247
2.120234604105572
2.0527859237536656
1.991202346041056
1.935483870967742
1.8856304985337244
1.8416422287390029
1.8064516129032255
1.7771260997067448
1.7487781036168133
1.7233626588465298
1.7008797653958945
1.6793743890518085
1.6588465298142718
1.6373411534701858
1.6148582600195502
1.5933528836754642
1.5718475073313782
1.5503421309872922
1.5317693059628543
1.5141739980449658
1.4946236559139785
1.474095796676442
1.4516129032258065
1.4291300097751711
1.4056695992179864
1.3812316715542523
1.356793743890518
1.3333333333333333
1.3098729227761483
1.2883675464320623
1.2697947214076246
1.2561094819159335
1.2453567937438903
1.23069403714565
1.2150537634408602
1.198435972629521
1.181818181818182
1.166177908113392
1.144672531769306
1.1202346041055715
1.1016617790811338
1.086021505376344
1.072336265884653
1.0635386119257086
1.0576735092864125
1.0498533724340176
1.0420332355816226
1.0342130987292275
1.0283479960899315
1.0224828934506354
1.0175953079178883
1.013685239491691
1.010752688172043
1.0068426197458455
1.002932551319648
0.9990224828934506
0.9980449657869012
0.9980449657869012
0.9951124144672532
0.9921798631476052
0.9902248289345064
0.9882697947214076
0.9872922776148584
0.9872922776148584
0.9872922776148584
0.9863147605083088
0.9853372434017597
0.9833822091886608
0.9833822091886608
0.9843597262952102
0.9824046920821116
0.9824046920821116
0.9863147605083088
1.0
1.0283479960899315
1.0762463343108504
1.1456500488758554
1.238514173998045
1.3519061583577712
1.4819159335288368
1.624633431085044
1.75366568914956
1.873900293255132
2.005865102639296
2.1358748778103616
2.259042033235582
2.3704789833822093
2.4682306940371457
2.552297165200391
2.6236559139784945
2.6832844574780057
2.7311827956989245
2.7673509286412514
2.787878787878788
2.795698924731183
2.80058651026393
2.798631476050831
2.788856304985337
2.7702834799608995
2.7438905180840663
2.70772238514174
2.6637341153470184
2.611925708699902
2.5532746823069403
2.4858260019550342
2.4134897360703813
2.346041055718475
2.280547409579668
2.209188660801564
2.136852394916911
2.0664711632453567
2.0019550342130987
1.9423264907135875
1.8885630498533723
1.8416422287390029
1.7996089931573802
1.7644183773216031
1.7331378299120237
1.70772238514174
1.6871945259042034
1.667644183773216
1.6471163245356797
1.6275659824046922
1.6080156402737047
1.5884652981427174
1.5679374389051808
1.547409579667644
1.525904203323558
1.5034213098729228
1.479960899315738
1.457478005865103
1.4389051808406648
1.4213098729227762
1.4007820136852396
1.3792766373411536
1.356793743890518
1.3343108504398826
1.3128054740957966
1.29227761485826
1.2727272727272727
1.2531769305962854
1.2336265884652982
1.2150537634408602
1.2013685239491692
1.1906158357771262
1.1779081133919844
1.163245356793744
1.1495601173020529
1.1368523949169111
1.1241446725317692
1.1114369501466277
1.0987292277614855
1.0869990224828934
1.0772238514173995
1.0694037145650048
1.064516129032258
1.064516129032258
1.0664711632453567
1.067448680351906
1.0694037145650048
1.0713587487781036
1.0733137829912025
1.0762463343108504
1.078201368523949
1.0811339198435972
1.083088954056696
1.0840664711632453
1.0821114369501466
1.0811339198435972
1.078201368523949
1.0694037145650048
1.0557184750733135
1.0391006842619743
1.0205278592375366
1.0
0.9804496578690128
0.9618768328445748
0.9442815249266864
0.9257086999022482
0.9081133919843596
0.8914956011730205
0.8817204301075269
0.8778103616813294
0.8768328445747801
0.884652981427175
0.906158357771261
0.946236559139785
1.007820136852395
1.0928641251221896
1.1994134897360704
1.324535679374389
1.4633431085043989
1.608993157380254
1.7380254154447703
1.8543499511241448
1.978494623655914
2.099706744868035
2.2111436950146626
2.310850439882698
2.398826979472141
2.472140762463343
2.5317693059628543
2.579667644183773
2.6177908113391983
2.6471163245356792
2.6637341153470184
2.670576735092864
2.674486803519061
2.673509286412512
2.665689149560117
2.649071358748778
2.625610948191593
2.593352883675464
2.5513196480938416
2.5004887585532747
2.441837732160313
2.376344086021505
2.304985337243402
2.2385141739980448
2.174975562072336
2.10752688172043
2.0410557184750733
1.978494623655914
1.919843597262952
1.8670576735092863
1.8211143695014664
1.7810361681329423
1.7458455522971652
1.715542521994135
1.6901270772238517
1.6695992179863148
1.6520039100684265
1.6334310850439884
1.6148582600195502
1.5972629521016617
1.5796676441837731
1.5620723362658846
1.543499511241447
1.5249266862170088
1.5053763440860215
1.4858260019550342
1.466275659824047
1.4457478005865103
1.4281524926686218
1.4105571847507332
1.3900293255131966
1.3685239491691104
1.3470185728250244
1.3264907135874875
1.3069403714565004
1.2883675464320623
1.270772238514174
1.2531769305962854
1.2365591397849462
1.2209188660801564
1.209188660801564
1.1994134897360704
1.1857282502443791
1.1700879765395895
1.155425219941349
1.141739980449658
1.1290322580645162
1.1163245356793745
1.1036168132942326
1.0918866080156402
1.083088954056696
1.075268817204301
1.0684261974584557
1.0654936461388074
1.0635386119257086
1.0606060606060606
1.056695992179863
1.0518084066471165
1.0469208211143697
1.0420332355816226
1.0371456500488758
1.032258064516129
1.0273704789833822
1.0234604105571847
1.021505376344086
1.021505376344086
1.0234604105571847
1.024437927663734
1.0234604105571847
1.021505376344086
1.0205278592375366
1.018572825024438
1.0156402737047898
1.0117302052785924
1.0068426197458455
1.0019550342130987
0.997067448680352
0.9931573802541545
0.9921798631476052
1.0273704789833822
1.0811339198435972
1.115347018572825
1.1466275659824048
1.187683284457478
1.24633431085044
1.3255131964809383
1.426197458455523
1.5483870967741935
1.6871945259042034
1.836754643206256
1.9716520039100685
2.0977517106549364
2.2346041055718477
2.3704789833822093
2.4975562072336266
2.613880742913001
2.718475073313783
2.8084066471163247
2.884652981427175
2.9472140762463344
2.9980449657869013
3.037145650048876
3.065493646138808
3.0791788856304985
3.080156402737048
3.078201368523949
3.070381231671554
3.0527859237536656
3.027370478983382
2.992179863147605
2.9472140762463344
2.8944281524926687
2.833822091886608
2.766373411534702
2.6930596285435
2.622678396871945
2.5542521994134897
2.479960899315738
2.404692082111437
2.3304007820136854
2.260997067448681
2.196480938416422
2.1388074291300097
2.0879765395894427
2.042033235581622
2.0019550342130987
1.9667644183773216
1.935483870967742
1.9100684261974583
1.8885630498533723
1.8670576735092863
1.8455522971652003
1.825024437927664
1.804496578690127
1.7849462365591398
1.7663734115347018
1.7468230694037146
1.7253176930596286
1.7038123167155426
1.6813294232649072
1.66177908113392
1.6422287390029326
1.6207233626588464
1.598240469208211
1.573802541544477
1.5493646138807429
1.525904203323558
1.5034213098729228
1.4809384164222874
1.4594330400782014
1.4379276637341154
1.4173998044965788
1.396871945259042
1.380254154447703
1.367546432062561
1.3528836754643203
1.3372434017595307
1.3206256109481915
1.3049853372434017
1.2903225806451613
1.2766373411534702
1.2639296187683284
1.2531769305962854
1.2443792766373412
1.2355816226783969
1.23069403714565
1.2287390029325511
1.2258064516129032
1.2218963831867058
1.217008797653959
1.2121212121212122
1.2082111436950147
1.206256109481916
1.2052785923753666
1.2043010752688172
1.2043010752688172
1.2043010752688172
1.2023460410557183
1.2023460410557183
1.203323558162268
1.203323558162268
1.203323558162268
1.2023460410557183
1.2003910068426198
1.1994134897360704
1.198435972629521
1.198435972629521
1.198435972629521
1.198435972629521
1.198435972629521
1.2003910068426198
1.2052785923753666
1.2140762463343109
1.2336265884652982
1.267839687194526
1.3206256109481915
1.393939393939394
1.490713587487781
1.6099706744868034
1.747800586510264
1.8983382209188664
2.0547409579667644
2.2111436950146626
2.3421309872922778
2.4545454545454546
2.572825024437928
2.684261974584555
2.7859237536656893
2.875855327468231
2.9530791788856305
3.018572825024438
3.072336265884653
3.115347018572825
3.1485826001955037
3.172043010752688
3.179863147605083
3.177908113391984
3.172043010752688
3.1593352883675463
3.139784946236559
3.112414467253177
3.075268817204301
3.0283479960899315
2.9716520039100685
2.906158357771261
2.832844574780059
2.7536656891495603
2.679374389051808
2.608993157380254
2.535679374389052
2.462365591397849
2.393939393939394
2.3304007820136854
2.271749755620724
2.219941348973607
2.174975562072336
2.134897360703812
2.1006842619745845
2.071358748778104
2.0449657869012707
2.022482893450636
2.002932551319648
1.9833822091886608
1.962854349951124
1.9423264907135875
1.919843597262952
1.8973607038123168
1.8748778103616808
1.8523949169110456
1.8299120234604105
1.8054740957966764
1.7810361681329423
1.7595307917888563
1.7380254154447703
1.7145650048875856
1.6901270772238517
1.6666666666666667
1.643206256109482
1.6217008797653958
1.6001955034213098
1.5786901270772238
1.5571847507331378
1.5366568914956011
1.517106549364614
1.4975562072336266
1.4809384164222874
1.4672531769305963
1.452590420332356
1.435972629521017
1.4203323558162269
1.404692082111437
1.3890518084066472
1.375366568914956
1.3636363636363635
1.35386119257087
1.3450635386119256
1.3372434017595307
1.3333333333333333
1.3294232649071358
1.3225806451612905
1.313782991202346
1.3049853372434017
1.2971652003910068
1.289345063538612
1.2825024437927663
1.2756598240469208
1.2697947214076246
1.262952101661779
1.2570869990224829
1.252199413489736
1.2512218963831867
1.252199413489736
1.2512218963831867
1.249266862170088
1.2453567937438903
1.241446725317693
1.2375366568914956
1.2326490713587488
1.227761485826002
1.2209188660801564
1.2150537634408602
1.2111436950146628
1.2111436950146628
1.2160312805474096
1.2267839687194526
1.2482893450635386
1.2854349951124144
1.3411534701857282
1.4193548387096775
1.520039100684262
1.6412512218963833
1.7790811339198436
1.927663734115347
2.081133919843597
2.232649071358749
2.3597262952101663
2.4672531769305963
2.5777126099706744
2.6803519061583576
2.7722385141739982
2.8514173998044967
2.916911045943304
2.9716520039100685
3.01564027370479
3.048875855327468
3.072336265884653
3.086021505376344
3.0869990224828934
3.078201368523949
3.064516129032258
3.043010752688172
3.0127077223851417
2.972629521016618
2.9237536656891496
2.8670576735092865
2.757575757575758
2.619745845552297
2.5112414467253177
2.4164222873900294
2.329423264907136
2.2551319648093844
2.187683284457478
2.118279569892473
2.050830889540567
1.988269794721408
1.932551319648094
1.884652981427175
1.842619745845552
1.8064516129032255
1.7741935483870968
1.7458455522971652
1.7204301075268815
1.699902248289345
1.6803519061583578
1.6598240469208212
1.6392961876832846
1.6187683284457477
1.5972629521016617
1.5757575757575757
1.5542521994134897
1.533724340175953
1.512218963831867
1.4897360703812317
1.4652981427174976
1.4389051808406648
1.4164222873900294
1.396871945259042
1.3763440860215057
1.3558162267839686
1.335288367546432
1.3157380254154447
1.2971652003910068
1.2776148582600195
1.2570869990224829
1.2375366568914956
1.2179863147605083
1.198435972629521
1.1827956989247312
1.1700879765395895
1.1544477028347997
1.1378299120234605
1.121212121212121
1.10752688172043
1.093841642228739
1.0821114369501466
1.0713587487781036
1.0606060606060606
1.050830889540567
1.0420332355816226
1.032258064516129
1.0263929618768328
1.024437927663734
1.0205278592375366
1.0166177908113392
1.0117302052785924
1.0068426197458455
1.0019550342130987
0.9980449657869012
0.9951124144672532
0.9921798631476052
0.989247311827957
0.9863147605083088
0.9872922776148584
0.989247311827957
0.9902248289345064
0.9912023460410556
0.9912023460410556
0.9902248289345064
0.9882697947214076
0.9863147605083088
0.9833822091886608
0.981427174975562
0.978494623655914
0.9765395894428152
0.978494623655914
0.9863147605083088
1.0019550342130987
1.029325513196481
1.0733137829912025
1.1368523949169111
1.2228739002932552
1.3304007820136852
1.455522971652004
1.5943304007820136
1.7409579667644184
1.889540566959922
2.0332355816226784
2.1515151515151514
2.2521994134897363
2.35386119257087
2.449657869012708
2.5347018572825024
2.6070381231671558
2.6666666666666665
2.7155425219941347
2.755620723362659
2.78494623655914
2.8044965786901277
2.814271749755621
2.81622678396872
2.807429130009776
2.789833822091887
2.766373411534702
2.735092864125122
2.6940371456500487
2.643206256109482
2.582600195503421
2.5141739980449658
2.4408602150537635
2.3626588465298144
2.2825024437927666
2.204301075268817
2.1358748778103616
2.0762463343108504
2.016617790811339
1.9608993157380252
1.9100684261974583
1.8641251221896384
1.822091886608016
1.7849462365591398
1.7526881720430108
1.7233626588465298
1.696969696969697
1.6744868035190617
1.6559139784946235
1.6392961876832846
1.6217008797653958
1.6041055718475072
1.585532746823069
1.5650048875855327
1.542521994134897
1.5190615835777126
1.495601173020528
1.4711632453567938
1.4486803519061584
1.4252199413489737
1.4007820136852396
1.3812316715542523
1.364613880742913
1.3450635386119256
1.3255131964809383
1.3049853372434017
1.2854349951124144
1.2658846529814272
1.2473118279569892
1.2287390029325511
1.2101661779081134
1.1925708699902249
1.1749755620723363
1.1612903225806452
1.1495601173020529
1.1358748778103618
1.121212121212121
1.10752688172043
1.093841642228739
1.0821114369501466
1.0713587487781036
1.0606060606060606
1.0498533724340176
1.040078201368524
1.0303030303030305
1.0205278592375366
1.0156402737047898
1.013685239491691
1.010752688172043
1.0068426197458455
1.0048875855327468
1.0039100684261977
1.0019550342130987
1.0
0.9990224828934506
0.997067448680352
0.9951124144672532
0.9931573802541545
0.9931573802541545
0.9941348973607038
0.9931573802541545
0.9921798631476052
0.9921798631476052
0.9921798631476052
0.9921798631476052
0.9921798631476052
0.9902248289345064
0.9882697947214076
0.9863147605083088
0.9853372434017597
0.9872922776148584
0.9951124144672532
1.010752688172043
1.0391006842619743
1.0850439882697946
1.1515151515151516
1.2404692082111437
1.3499511241446724
1.478005865102639
1.6187683284457477
1.7663734115347018
1.9159335288367547
2.060606060606061
2.179863147605083
2.2795698924731185
2.3812316715542523
2.4760508308895406
2.560117302052786
2.632453567937439
2.6911045943304006
2.7390029325513194
2.777126099706745
2.8054740957966766
2.823069403714565
2.83088954056696
2.83088954056696
2.8211143695014664
2.803519061583578
2.780058651026393
2.748778103616813
2.70772238514174
2.6578690127077222
2.60019550342131
2.5347018572825024
2.462365591397849
2.3851417399804498
2.3069403714565007
2.2297165200391005
2.1622678396871944
2.101661779081134
2.0410557184750733
1.9833822091886608
1.9315738025415443
1.8856304985337244
1.844574780058651
1.8084066471163245
1.7761485826001957
1.7468230694037146
1.7204301075268815
1.696969696969697
1.675464320625611
1.656891495601173
1.640273704789834
1.6226783968719452
1.6050830889540566
1.585532746823069
1.5650048875855327
1.543499511241447
1.521016617790811
1.4975562072336266
1.4731182795698925
1.4467253176930597
1.4203323558162269
1.3978494623655917
1.3782991202346042
1.3695014662756595
1.3655913978494625
1.35386119257087
1.33822091886608
1.321603128054741
1.303030303030303
1.2834799608993157
1.262952101661779
1.2434017595307918
1.2238514173998043
1.2052785923753666
1.1925708699902249
1.1837732160312806
1.1720430107526882
