ppg
1.086021505376344
1.0987292277614855
1.1231671554252198
1.164222873900293
1.227761485826002
1.316715542521994
1.43108504398827
1.56891495601173
1.726295210166178
1.8944281524926687
2.042033235581622
2.1739980449657867
2.314760508308896
2.4486803519061584
2.5669599217986314
2.6666666666666665
2.747800586510264
2.8132942326490715
2.8641251221896384
2.903225806451613
2.9335288367546437
2.9550342130987293
2.962854349951124
2.961876832844575
2.956989247311828
2.946236559139785
2.927663734115347
2.8993157380254155
2.859237536656892
2.8084066471163247
2.747800586510264
2.679374389051808
2.6050830889540566
2.529814271749756
2.4613880742913
2.398826979472141
2.337243401759531
2.2795698924731185
2.2277614858260018
2.1818181818181817
2.1417399804496577
2.1055718475073317
2.070381231671554
2.035190615835777
2.0
1.9667644183773216
1.935483870967742
1.9071358748778104
1.881720430107527
1.855327468230694
1.827956989247312
1.7996089931573802
1.76930596285435
1.726295210166178
1.675464320625611
1.629521016617791
1.585532746823069
1.544477028347996
1.5053763440860215
1.474095796676442
1.447702834799609
1.4203323558162269
1.393939393939394
1.370478983382209
1.348973607038123
1.3284457478005864
1.3069403714565004
1.2864125122189638
1.2658846529814272
1.2453567937438903
1.2258064516129032
1.206256109481916
1.1925708699902249
1.181818181818182
1.1681329423264908
1.155425219941349
1.1456500488758554
1.13880742913001
1.1348973607038124
1.1329423264907137
1.1329423264907137
1.133919843597263
1.133919843597263
1.133919843597263
1.1358748778103618
1.1397849462365592
1.141739980449658
1.142717497556207
1.142717497556207
1.142717497556207
1.1397849462365592
1.133919843597263
1.1251221896383188
1.1133919843597262
1.1006842619745845
1.086021505376344
1.0713587487781036
1.0606060606060606
1.0518084066471165
1.0410557184750733
1.029325513196481
1.0175953079178883
1.0068426197458455
0.997067448680352
0.989247311827957
0.9824046920821116
0.978494623655914
0.9765395894428152
0.9775171065493646
0.9833822091886608
0.9931573802541545
1.007820136852395
1.0303030303030305
1.064516129032258
1.1143695014662756
1.1867057673509287
1.2834799608993157
1.4066471163245358
1.5542521994134897
1.721407624633431
1.900293255131965
2.0821114369501466
2.2355816226783967
2.3685239491691106
2.504398826979472
2.6285434995112413
2.735092864125122
2.8211143695014664
2.8905180840664717
2.943304007820137
2.9824046920821115
3.010752688172043
3.0303030303030303
3.042033235581622
3.040078201368524
3.0283479960899315
3.0117302052785924
2.986314760508309
2.949169110459433
2.900293255131965
2.8396871945259043
2.768328445747801
2.689149560117302
2.606060606060606
2.52297165200391
2.442815249266862
2.3685239491691106
2.3059628543499517
2.2531769305962857
2.203323558162268
2.157380254154448
2.115347018572825
2.075268817204301
2.037145650048876
2.0
1.9618768328445748
1.9237536656891496
1.884652981427175
1.844574780058651
1.8084066471163245
1.7732160312805474
1.7350928641251222
1.6959921798631477
1.656891495601173
1.6177908113391983
1.5806451612903225
1.544477028347996
1.5112414467253177
1.479960899315738
1.4506353861192571
1.423264907135875
1.3988269794721409
1.3792766373411536
1.364613880742913
1.3509286412512218
1.3362658846529814
1.3225806451612905
1.3088954056695992
1.295210166177908
1.281524926686217
1.2658846529814272
1.249266862170088
1.2326490713587488
1.217008797653959
1.2052785923753666
1.195503421309873
1.1827956989247312
1.1691104594330402
1.155425219941349
1.141739980449658
1.1280547409579669
1.1143695014662756
1.1016617790811338
1.088954056695992
1.0772238514173995
1.0654936461388074
1.0547409579667644
1.0469208211143697
1.0420332355816226
1.035190615835777
1.0283479960899315
1.021505376344086
1.0156402737047898
1.0097751710654936
1.0048875855327468
1.0
0.997067448680352
0.9951124144672532
0.9941348973607038
0.997067448680352
1.0009775171065494
1.0039100684261977
1.0068426197458455
1.007820136852395
1.0087976539589445
1.0087976539589445
1.0087976539589445
1.0087976539589445
1.0087976539589445
1.0097751710654936
1.0127077223851415
1.021505376344086
1.0391006842619743
1.067448680351906
1.1133919843597262
1.181818181818182
1.2746823069403714
1.3958944281524928
1.541544477028348
1.7067448680351909
1.8826979472140764
2.06158357771261
2.232649071358749
2.389051808406647
2.509286412512219
2.6021505376344085
2.6901270772238512
2.766373411534702
2.83088954056696
2.8836754643206257
2.924731182795699
2.956989247311828
2.981427174975562
2.9980449657869013
3.0087976539589443
3.010752688172043
3.004887585532747
2.988269794721408
2.961876832844575
2.927663734115347
2.881720430107527
2.8260019550342133
2.7595307917888565
2.686217008797654
2.6070381231671558
2.5268817204301075
2.44672531769306
2.3714565004887587
2.303030303030303
2.2453567937438903
2.196480938416422
2.1515151515151514
2.110459433040078
2.0733137829912023
2.038123167155425
2.002932551319648
1.967741935483871
1.932551319648094
1.8963831867057677
1.858260019550342
1.818181818181818
1.7820136852394917
1.747800586510264
1.7086999022482894
1.667644183773216
1.6265884652981428
1.587487781036168
1.5503421309872922
1.5141739980449658
1.479960899315738
1.4467253176930597
1.41544477028348
1.3870967741935485
1.3616813294232648
1.3421309872922775
1.3264907135874875
1.3088954056695992
1.289345063538612
1.2697947214076246
1.2502443792766371
1.2326490713587488
1.2160312805474096
1.2003910068426198
1.18475073313783
1.1691104594330402
1.155425219941349
1.1456500488758554
1.1368523949169111
1.0058651026392962
1.0048875855327468
1.0039100684261977
1.0039100684261977
1.0039100684261977
1.0039100684261977
1.0058651026392962
1.0117302052785924
1.024437927663734
1.0449657869012707
1.0791788856304985
1.1319648093841643
1.209188660801564
1.3128054740957966
1.4408602150537635
1.5894428152492668
1.750733137829912
1.916911045943304
2.156402737047898
2.29227761485826
2.40078201368524
2.5425219941348973
2.622678396871945
2.689149560117302
2.740957966764418
2.780058651026393
2.8084066471163247
2.827956989247312
2.8396871945259043
2.841642228739003
2.835777126099707
2.820136852394917
2.795698924731183
2.7624633431085046
2.719452590420332
2.6666666666666665
2.6050830889540566
2.536656891495601
2.463343108504399
2.388074291300098
2.315738025415445
2.2482893450635384
2.187683284457478
2.133919843597263
2.09188660801564
2.056695992179863
2.0234604105571847
1.9931573802541545
1.963831867057673
1.9335288367546437
1.902248289345064
1.870967741935484
1.8377321603128052
1.8025415444770283
1.7663734115347018
1.7282502443792769
1.689149560117302
1.6559139784946235
1.6256109481915937
1.5933528836754642
1.560117302052786
1.5278592375366569
1.4975562072336266
1.469208211143695
1.4418377321603129
1.41544477028348
1.3900293255131966
1.3665689149560116
1.343108504398827
1.3255131964809383
1.310850439882698
1.295210166177908
1.2795698924731185
1.2649071358748778
1.2512218963831867
1.2394916911045943
1.2287390029325511
1.2179863147605083
1.2072336265884651
1.195503421309873
1.1837732160312806
1.1730205278592376
1.1652003910068427
1.160312805474096
1.152492668621701
1.141739980449658
1.1300097751710656
1.118279569892473
1.1085043988269794
1.1006842619745845
1.093841642228739
1.0869990224828934
1.0801564027370478
1.0733137829912025
1.0703812316715542
1.0684261974584557
1.064516129032258
1.0596285434995112
1.053763440860215
1.0478983382209188
1.043010752688172
1.040078201368524
1.0381231671554252
1.0371456500488758
1.0371456500488758
1.0371456500488758
1.0371456500488758
1.0391006842619743
1.0420332355816226
1.0420332355816226
1.0410557184750733
1.0391006842619743
1.0381231671554252
1.0371456500488758
1.0371456500488758
1.0391006842619743
1.04594330400782
1.0596285434995112
1.0840664711632453
1.1173020527859236
1.164222873900293
1.2365591397849462
1.3362658846529814
1.4613880742913
1.6099706744868034
1.7741935483870968
1.945259042033236
2.114369501466276
2.271749755620724
2.4115347018572826
2.5317693059628543
2.631476050830889
2.701857282502444
2.7517106549364616
2.7966764418377323
2.834799608993157
2.8641251221896384
2.8856304985337244
2.900293255131965
2.90811339198436
2.906158357771261
2.8944281524926687
2.8729227761485827
2.8406647116324537
2.801564027370479
2.7536656891495603
2.6959921798631474
2.631476050830889
2.5610948191593352
2.487781036168133
2.4134897360703813
2.343108504398827
2.27761485826002
2.218963831867057
2.167155425219941
2.1221896383186705
2.083088954056696
2.0498533724340176
2.0195503421309877
1.989247311827957
1.9579667644183771
1.9257086999022484
1.8905180840664717
1.8533724340175952
1.81524926686217
1.7761485826001957
1.737047898338221
1.6979472140762464
1.6608015640273706
1.6285434995112416
1.5992179863147604
1.5669599217986314
1.533724340175953
1.501466275659824
1.4701857282502444
1.4418377321603129
1.41544477028348
1.3919843597262953
1.3714565004887584
1.3519061583577712
1.332355816226784
1.316715542521994
1.303030303030303
1.2883675464320623
1.2727272727272727
1.2570869990224829
1.241446725317693
1.2258064516129032
1.2111436950146628
1.1964809384164223
1.181818181818182
1.1681329423264908
1.155425219941349
1.1436950146627567
1.1348973607038124
1.1280547409579669
1.1202346041055715
1.110459433040078
1.1006842619745845
1.0918866080156402
1.0840664711632453
1.0762463343108504
1.0694037145650048
1.0625610948191593
1.056695992179863
1.0498533724340176
1.0469208211143697
1.0449657869012707
1.0420332355816226
1.0381231671554252
1.035190615835777
1.0332355816226784
1.0312805474095796
1.029325513196481
1.0273704789833822
1.0263929618768328
1.024437927663734
1.0234604105571847
1.0224828934506354
1.024437927663734
1.0283479960899315
1.0312805474095796
1.0332355816226784
1.0342130987292275
1.035190615835777
1.0361681329423265
1.0381231671554252
1.043010752688172
1.0547409579667644
1.078201368523949
1.118279569892473
1.1691104594330402
1.2365591397849462
1.3343108504398826
1.4604105571847508
1.6099706744868034
1.775171065493646
1.9472140762463344
2.1309872922776147
2.312805474095797
2.4682306940371457
2.598240469208211
2.704789833822092
2.788856304985337
2.844574780058651
2.8826979472140764
2.916911045943304
2.945259042033236
2.9657869012707723
2.9804496578690127
2.9872922776148583
2.986314760508309
2.9765395894428157
2.956011730205278
2.924731182795699
2.8826979472140764
2.833822091886608
2.7781036168132944
2.7116324535679373
2.6392961876832843
2.5620723362658846
2.4838709677419355
2.407624633431085
2.3362658846529816
2.271749755620724
2.21505376344086
2.166177908113392
2.124144672531769
2.0869990224828934
2.0547409579667644
2.0254154447702835
1.9951124144672527
1.963831867057673
1.9305962854349952
1.895405669599218
1.8592375366568916
1.822091886608016
1.7839687194525904
1.7448680351906158
1.7067448680351909
1.6686217008797657
1.6363636363636365
1.607038123167155
1.5747800586510263
1.541544477028348
1.509286412512219
1.478983382209189
1.4516129032258065
1.426197458455523
1.4037145650048877
1.3822091886608017
1.3616813294232648
1.343108504398827
1.3255131964809383
1.3118279569892473
1.3010752688172045
1.2873900293255132
1.2717497556207231
1.2570869990224829
1.2424242424242424
1.2287390029325511
1.2160312805474096
1.2043010752688172
1.1935483870967742
1.1837732160312806
1.1749755620723363
1.1691104594330402
1.1652003910068427
1.1593352883675463
1.152492668621701
1.144672531769306
1.1358748778103618
1.1270772238514175
1.118279569892473
1.1085043988269794
1.0987292277614855
1.0899315738025417
1.0821114369501466
1.0742913000977516
1.0703812316715542
1.0684261974584557
1.0654936461388074
1.0635386119257086
1.06158357771261
1.0586510263929618
1.056695992179863
1.0547409579667644
1.0527859237536656
1.0498533724340176
1.0478983382209188
1.04594330400782
1.04594330400782
1.0478983382209188
1.0488758553274682
1.0488758553274682
1.0478983382209188
1.0478983382209188
1.0498533724340176
1.053763440860215
1.0635386119257086
1.0850439882697946
1.1241446725317692
1.18475073313783
1.2727272727272727
1.3685239491691104
1.478005865102639
1.6207233626588464
1.7859237536656891
1.9608993157380252
2.134897360703812
2.3010752688172045
2.4516129032258065
2.582600195503421
2.69208211143695
2.7810361681329425
2.852394916911046
2.8993157380254155
2.929618768328446
2.956989247311828
2.979472140762464
2.995112414467253
3.002932551319648
3.002932551319648
2.994134897360704
2.9765395894428157
2.9472140762463344
2.9071358748778104
2.855327468230694
2.792766373411535
2.727272727272727
2.659824046920821
2.5835777126099706
2.505376344086021
2.4281524926686218
2.3548387096774195
2.289345063538612
2.232649071358749
2.1837732160312804
2.1407624633431084
2.102639296187683
2.0684261974584555
2.038123167155425
2.0087976539589443
1.9765395894428155
1.9413489736070384
1.903225806451613
1.8631476050830889
1.8211143695014664
1.780058651026393
1.7390029325513197
1.6989247311827955
1.6608015640273706
1.6236559139784943
1.5923753665689149
1.5650048875855327
1.5347018572825024
1.504398826979472
1.4760508308895406
1.4486803519061584
1.4222873900293256
1.3978494623655917
1.3763440860215057
1.3548387096774193
1.335288367546432
1.316715542521994
1.2991202346041055
1.2854349951124144
1.2746823069403714
1.2619745845552297
1.249266862170088
1.2355816226783969
1.2218963831867058
1.2072336265884651
1.1935483870967742
1.1808406647116323
1.1691104594330402
1.1583577712609971
1.1485826001955035
1.142717497556207
1.1378299120234605
1.1290322580645162
1.1192570869990224
1.1114369501466277
1.1036168132942326
1.096774193548387
1.0899315738025417
1.0840664711632453
1.078201368523949
1.072336265884653
1.0664711632453567
1.0606060606060606
1.0576735092864125
1.0557184750733135
1.0518084066471165
1.0469208211143697
1.0439882697947214
1.0420332355816226
1.0410557184750733
1.0410557184750733
1.0410557184750733
1.0410557184750733
1.0410557184750733
1.0410557184750733
1.0439882697947214
1.0488758553274682
1.0518084066471165
1.0518084066471165
1.0518084066471165
1.0518084066471165
1.053763440860215
1.06158357771261
1.0801564027370478
1.1143695014662756
1.1700879765395895
1.252199413489736
1.3626588465298142
1.478983382209189
1.6050830889540566
1.7624633431085044
1.935483870967742
2.112414467253177
2.2844574780058653
2.443792766373412
2.582600195503421
2.699902248289345
2.7947214076246336
2.8690127077223853
2.9266862170087977
2.961876832844575
2.983382209188661
3.003910068426197
3.0205278592375366
3.03128054740958
3.035190615835777
3.032258064516129
3.0195503421309877
2.9960899315738025
2.960899315738025
2.913000977517106
2.8533724340175954
2.782991202346041
2.7116324535679373
2.6392961876832843
2.5610948191593352
2.4819159335288368
2.406647116324536
2.3382209188660803
2.2766373411534704
2.222873900293255
2.176930596285435
2.136852394916911
2.099706744868035
2.064516129032258
2.0332355816226784
1.9931573802541545
1.945259042033236
1.903225806451613
1.8631476050830889
1.8240469208211143
1.7849462365591398
1.7448680351906158
1.704789833822092
1.6656891495601174
1.6275659824046922
1.590420332355816
1.5542521994134897
1.52297165200391
1.4965786901270772
1.469208211143695
1.4418377321603129
1.41544477028348
1.3919843597262953
1.3695014662756595
1.3479960899315735
1.327468230694037
1.3079178885630498
1.289345063538612
1.2727272727272727
1.2609970674486803
1.2512218963831867
1.238514173998045
1.224828934506354
1.2101661779081134
1.1964809384164223
1.181818181818182
1.166177908113392
1.1515151515151516
1.1378299120234605
1.126099706744868
1.1143695014662756
1.1036168132942326
1.096774193548387
1.0928641251221896
1.086021505376344
1.0791788856304985
1.072336265884653
1.0654936461388074
1.0586510263929618
1.0527859237536656
1.0469208211143697
1.0420332355816226
1.0381231671554252
1.035190615835777
1.035190615835777
1.0381231671554252
1.0420332355816226
1.0478983382209188
1.0557184750733135
1.064516129032258
1.072336265884653
1.078201368523949
1.0801564027370478
1.0772238514173995
1.0713587487781036
1.0625610948191593
1.0527859237536656
1.0469208211143697
1.043010752688172
1.0381231671554252
1.035190615835777
1.0342130987292275
1.035190615835777
1.0391006842619743
1.04594330400782
1.0586510263929618
1.0801564027370478
1.1163245356793745
1.1720430107526882
1.2365591397849462
1.3157380254154447
1.4271749755620724
1.5650048875855327
1.7233626588465298
1.8944281524926687
2.070381231671554
2.241446725317693
2.40078201368524
2.5434995112414467
2.6666666666666665
2.768328445747801
2.849462365591398
2.902248289345064
2.9345063538611926
2.960899315738025
2.979472140762464
2.989247311827957
2.989247311827957
2.9804496578690127
2.961876832844575
2.9335288367546437
2.89345063538612
2.8426197458455524
2.780058651026393
2.7145650048875853
2.6451612903225805
2.5650048875855327
2.4809384164222874
2.3978494623655915
2.3196480938416424
2.249266862170088
2.1867057673509285
2.131964809384164
2.085043988269794
2.04594330400782
2.0117302052785924
1.9833822091886608
1.959921798631476
1.93841642228739
1.916911045943304
1.895405669599218
1.871945259042033
1.8465298142717497
1.8172043010752688
1.7839687194525904
1.7468230694037146
1.7067448680351909
1.6656891495601174
1.6226783968719452
1.585532746823069
1.552297165200391
1.517106549364614
1.4809384164222874
1.4467253176930597
1.4164222873900294
1.3890518084066472
1.364613880742913
1.3440860215053765
1.3255131964809383
1.3079178885630498
1.289345063538612
1.2756598240469208
1.2639296187683284
1.2482893450635386
1.2316715542521994
1.2160312805474096
1.2003910068426198
1.1857282502443791
1.1730205278592376
1.1622678396871946
1.1544477028347997
1.1495601173020529
1.147605083088954
1.147605083088954
1.1495601173020529
1.1534701857282503
1.1564027370478984
1.1593352883675463
1.1612903225806452
1.1622678396871946
1.1612903225806452
1.1583577712609971
1.1534701857282503
1.147605083088954
1.142717497556207
1.13880742913001
1.1368523949169111
1.1378299120234605
1.1378299120234605
1.1348973607038124
1.1319648093841643
1.1280547409579669
1.1221896383186705
1.115347018572825
1.10752688172043
1.1006842619745845
1.0948191593352885
1.0899315738025417
1.0850439882697946
1.083088954056696
1.0850439882697946
1.086021505376344
1.088954056695992
1.096774193548387
1.1143695014662756
1.144672531769306
1.1925708699902249
1.2639296187683284
1.3616813294232648
1.4848484848484849
1.6304985337243405
1.76930596285435
1.906158357771261
2.0635386119257086
2.2248289345063537
2.376344086021505
2.512218963831867
2.627565982404692
2.721407624633431
2.7976539589442817
2.857282502443793
2.903225806451613
2.9393939393939394
2.9687194525904204
2.98435972629521
2.991202346041056
2.9980449657869013
3.0
2.995112414467253
2.981427174975562
2.956989247311828
2.920821114369501
2.8719452590420333
2.84652981427175
2.803519061583578
2.752688172043011
2.6901270772238512
2.6177908113391983
2.539589442815249
2.458455522971652
2.3792766373411536
2.304985337243402
2.239491691104594
2.182795698924731
2.133919843597263
2.0928641251221896
2.056695992179863
2.027370478983382
2.0
1.9716520039100685
1.9413489736070384
1.90811339198436
1.8729227761485825
1.836754643206256
1.7976539589442817
1.7575757575757576
1.7174975562072337
1.678396871945259
1.6412512218963833
1.608993157380254
1.5796676441837731
1.547409579667644
1.5141739980449658
1.4819159335288368
1.4506353861192571
1.4222873900293256
1.3958944281524928
1.3724340175953078
1.3499511241446724
1.3294232649071358
1.3098729227761483
1.2913000977517106
1.2766373411534702
1.2649071358748778
1.2512218963831867
1.2375366568914956
1.2238514173998043
1.2101661779081134
1.195503421309873
1.1808406647116323
1.1681329423264908
1.1564027370478984
1.144672531769306
1.1329423264907137
1.1251221896383188
1.1192570869990224
1.1114369501466277
1.1016617790811338
1.0928641251221896
1.086021505376344
1.0791788856304985
1.0742913000977516
1.0694037145650048
1.064516129032258
1.0586510263929618
1.0518084066471165
1.0488758553274682
1.0469208211143697
1.043010752688172
1.0391006842619743
1.0361681329423265
1.032258064516129
1.029325513196481
1.0263929618768328
1.024437927663734
1.0224828934506354
1.0224828934506354
1.0224828934506354
1.021505376344086
1.0224828934506354
1.024437927663734
1.0234604105571847
1.0224828934506354
1.021505376344086
1.0205278592375366
1.0205278592375366
1.0234604105571847
1.0332355816226784
1.0547409579667644
1.0948191593352885
1.1573802541544478
1.23069403714565
1.3196480938416422
1.4418377321603129
1.590420332355816
1.7575757575757576
1.932551319648094
2.1065493646138806
2.269794721407625
2.4173998044965788
2.5454545454545454
2.6529814271749754
2.7390029325513194
2.806451612903226
2.850439882697948
2.878787878787879
2.906158357771261
2.927663734115347
2.943304007820137
2.9530791788856305
2.9550342130987293
2.949169110459433
2.9345063538611926
2.9100684261974585
2.873900293255132
2.8260019550342133
2.7722385141739982
2.7126099706744866
2.6422287390029324
2.565982404692082
2.484848484848485
2.403714565004888
2.3274682306940373
2.2561094819159337
2.1925708699902247
2.1378299120234603
2.090909090909091
2.050830889540567
2.01564027370479
1.9853372434017595
1.9560117302052784
1.924731182795699
1.8914956011730208
1.8563049853372435
1.8201368523949168
1.782991202346041
1.7438905180840665
1.704789833822092
1.6656891495601174
1.6256109481915937
1.5865102639296187
1.552297165200391
1.52297165200391
1.4926686217008798
1.4613880742913
1.43108504398827
1.401759530791789
1.375366568914956
1.3519061583577712
1.3313782991202343
1.3118279569892473
1.2932551319648091
1.2756598240469208
1.2580645161290325
1.2443792766373412
1.2326490713587488
1.2189638318670577
1.2043010752688172
1.1886608015640274
1.173998044965787
1.160312805474096
1.1466275659824048
1.1329423264907137
1.1202346041055715
1.1085043988269794
1.0977517106549364
1.0918866080156402
1.0879765395894427
1.0811339198435972
1.072336265884653
1.0625610948191593
1.0518084066471165
1.040078201368524
1.0263929618768328
1.0097751710654936
0.9912023460410556
0.9706744868035192
0.9491691104594332
0.9296187683284456
0.9149560117302052
0.9042033235581622
0.8905180840664711
0.8778103616813294
0.8670576735092864
0.8582600195503421
0.8533724340175953
0.8514173998044966
0.8514173998044966
0.855327468230694
0.8621700879765396
0.8709677419354839
0.8826979472140762
0.8973607038123167
0.9110459433040078
0.9247311827956988
0.9374389051808406
0.9481915933528836
0.9589442815249268
0.9726295210166178
0.9902248289345064
1.0175953079178883
1.0596285434995112
1.121212121212121
1.206256109481916
1.2991202346041055
1.4056695992179864
1.5454545454545454
1.70772238514174
1.8826979472140764
2.059628543499511
2.23069403714565
2.388074291300098
2.525904203323558
2.643206256109482
2.7390029325513194
2.814271749755621
2.863147605083089
2.895405669599218
2.9257086999022484
2.9501466275659824
2.9696969696969697
2.983382209188661
2.989247311827957
2.9872922776148583
2.9745845552297165
2.951124144672532
2.9149560117302054
2.8670576735092865
2.8084066471163247
2.745845552297165
2.6803519061583576
2.606060606060606
2.5288367546432062
2.4516129032258065
2.378299120234604
2.310850439882698
2.2502443792766376
2.1974584555229715
2.1515151515151514
2.1114369501466275
2.074291300097752
2.042033235581622
2.010752688172043
1.9765395894428155
1.9403714565004888
1.902248289345064
1.8621700879765395
1.8211143695014664
1.7790811339198436
1.7390029325513197
1.699902248289345
1.6637341153470186
1.629521016617791
