ppg
2.099706744868035
2.099706744868035
2.089931573802541
2.0733137829912023
2.0518084066471163
2.03128054740958
2.010752688172043
1.986314760508309
1.9618768328445748
1.9364613880742916
1.90811339198436
1.8778103616813293
1.8465298142717497
1.8162267839687196
1.7859237536656891
1.7565982404692082
1.7282502443792769
1.7008797653958945
1.6774193548387095
1.6578690127077225
1.6363636363636365
1.6158357771260996
1.595307917888563
1.573802541544477
1.5532746823069403
1.5347018572825024
1.5190615835777126
1.504398826979472
1.490713587487781
1.47702834799609
1.466275659824047
1.457478005865103
1.4457478005865103
1.4320625610948192
1.418377321603128
1.404692082111437
1.391006842619746
1.3782991202346042
1.3655913978494625
1.3519061583577712
1.3391984359726294
1.3255131964809383
1.316715542521994
1.3118279569892473
1.3098729227761483
1.313782991202346
1.3313782991202343
1.364613880742913
1.41544477028348
1.4838709677419355
1.5708699902248289
1.6744868035190617
1.7927663734115349
1.9227761485826005
2.06158357771261
2.1867057673509285
2.304007820136853
2.4330400782013686
2.5610948191593352
2.681329423264907
2.791788856304985
2.889540566959922
2.9765395894428157
3.0518084066471163
3.115347018572825
3.16911045943304
3.212121212121212
3.2385141739980448
3.2531769305962857
3.2668621700879767
3.278592375366569
3.2854349951124147
3.2873900293255134
3.2844574780058653
3.274682306940372
3.2580645161290325
3.2355816226783967
3.207233626588465
3.1730205278592374
3.1309872922776147
3.086021505376344
3.040078201368524
2.991202346041056
2.93841642228739
2.881720430107527
2.822091886608016
2.7653958944281527
2.710654936461388
2.658846529814272
2.6099706744868034
2.563049853372434
2.5180840664711632
2.4789833822091887
2.441837732160313
2.403714565004888
2.3655913978494625
2.326490713587488
2.286412512218964
2.24633431085044
2.2082111436950145
2.1700879765395893
2.1309872922776147
2.09188660801564
2.053763440860215
2.0146627565982405
1.978494623655914
1.9442815249266865
1.9071358748778104
1.868035190615836
1.828934506353861
1.7917888563049853
1.7546432062561097
1.718475073313783
1.683284457478006
1.6500488758553276
1.6187683284457477
1.5894428152492668
1.565982404692082
1.5454545454545454
1.521994134897361
1.498533724340176
1.474095796676442
1.4486803519061584
1.4242424242424243
1.401759530791789
1.380254154447703
1.3616813294232648
1.346041055718475
1.3313782991202343
1.316715542521994
1.3069403714565004
1.300097751710655
1.2873900293255132
1.2697947214076246
1.2512218963831867
1.2326490713587488
1.2140762463343109
1.195503421309873
1.1798631476050832
1.1681329423264908
1.1622678396871946
1.1691104594330402
1.1896383186705768
1.2218963831867058
1.2727272727272727
1.3440860215053765
1.435972629521017
1.5454545454545454
1.6705767350928642
1.8064516129032255
1.949169110459433
2.096774193548387
2.244379276637341
2.386119257086999
2.5190615835777126
2.6265884652981426
2.717497556207233
2.8103616813294234
2.898338220918866
2.9775171065493646
3.047898338220919
3.1094819159335287
3.163245356793744
3.2082111436950145
3.24633431085044
3.2795698924731185
3.304985337243402
3.317693059628544
3.321603128054741
3.3255131964809386
3.3255131964809386
3.3225806451612905
3.313782991202346
3.2981427174975564
3.274682306940372
3.243401759530792
3.2052785923753664
3.157380254154448
3.101661779081134
3.040078201368524
2.978494623655914
2.917888563049853
2.852394916911046
2.78494623655914
2.719452590420332
2.6578690127077222
2.598240469208211
2.5425219941348973
2.490713587487781
2.442815249266862
2.39980449657869
2.3597262952101663
2.3255131964809386
2.29227761485826
2.2551319648093844
2.2160312805474094
2.176930596285435
2.136852394916911
2.096774193548387
2.058651026392962
2.021505376344086
1.9853372434017595
1.948191593352884
1.9090909090909087
1.869012707722385
1.8347996089931573
1.8035190615835777
1.7683284457478006
1.732160312805474
1.6950146627565983
1.6598240469208212
1.624633431085044
1.5884652981427174
1.5542521994134897
1.52297165200391
1.4936461388074291
1.4652981427174976
1.4428152492668622
1.4242424242424243
1.401759530791789
1.3792766373411536
1.356793743890518
1.3343108504398826
1.3118279569892473
1.289345063538612
1.267839687194526
1.249266862170088
1.2316715542521994
1.2140762463343109
1.1974584555229717
1.1867057673509287
1.1779081133919844
1.164222873900293
1.1505376344086022
1.13880742913001
1.1300097751710656
1.1251221896383188
1.1300097751710656
1.1485826001955035
1.1837732160312806
1.2375366568914956
1.310850439882698
1.391006842619746
1.479960899315738
1.5913978494623655
1.7194525904203324
1.858260019550342
2.0009775171065494
2.142717497556207
2.2795698924731185
2.407624633431085
2.5249266862170088
2.631476050830889
2.727272727272727
2.7262952101661777
2.6725317693059627
2.670576735092864
2.6930596285435
2.721407624633431
2.748778103616813
2.7722385141739982
2.791788856304985
2.806451612903226
2.81622678396872
2.820136852394917
2.8181818181818183
2.811339198435973
2.7966764418377323
2.776148582600196
2.7517106549364616
2.721407624633431
2.686217008797654
2.6451612903225805
2.5992179863147604
2.549364613880743
2.495601173020528
2.4389051808406648
2.3822091886608017
2.326490713587488
2.27761485826002
2.2355816226783967
2.1915933528836757
2.1485826001955037
2.10752688172043
2.069403714565005
2.034213098729228
2.002932551319648
1.9716520039100685
1.9393939393939397
1.9071358748778104
1.8748778103616808
1.842619745845552
1.8142717497556209
1.7878787878787878
1.758553274682307
1.726295210166178
1.6920821114369502
1.656891495601173
1.6236559139784943
1.590420332355816
1.5571847507331378
1.52297165200391
1.4897360703812317
1.456500488758553
1.4281524926686218
1.401759530791789
1.3724340175953078
1.346041055718475
1.3206256109481915
1.295210166177908
1.270772238514174
1.2473118279569892
1.224828934506354
1.203323558162268
1.1827956989247312
1.1622678396871946
1.141739980449658
1.1270772238514175
1.1163245356793745
1.104594330400782
1.0928641251221896
1.0811339198435972
1.0684261974584557
1.0547409579667644
1.040078201368524
1.024437927663734
1.007820136852395
0.9931573802541545
0.9794721407624634
0.9716520039100685
0.9687194525904204
0.9657869012707724
0.9667644183773216
0.975562072336266
0.997067448680352
1.0332355816226784
1.086021505376344
1.1564027370478984
1.2434017595307918
1.3440860215053765
1.455522971652004
1.5757575757575757
1.6842619745845553
1.7869012707722385
1.8983382209188664
2.010752688172043
2.1192570869990224
2.220918866080156
2.312805474095797
2.393939393939394
2.463343108504399
2.5219941348973607
2.570869990224829
2.6099706744868034
2.634408602150537
2.649071358748778
2.66177908113392
2.670576735092864
2.675464320625611
2.675464320625611
2.6715542521994133
2.6637341153470184
2.6510263929618767
2.633431085043988
2.610948191593353
2.5806451612903225
2.5454545454545454
2.5083088954056696
2.4672531769305963
2.420332355816227
2.3685239491691106
2.315738025415445
2.264907135874878
2.2160312805474094
2.1700879765395893
2.129032258064516
2.09188660801564
2.0576735092864125
2.024437927663734
1.997067448680352
1.9716520039100685
1.945259042033236
1.916911045943304
1.889540566959922
1.8641251221896384
1.836754643206256
1.8064516129032255
1.7761485826001957
1.7468230694037146
1.7165200391006843
1.6823069403714566
1.6480938416422288
1.619745845552297
1.5943304007820136
1.5650048875855327
1.5347018572825024
1.5024437927663734
1.4701857282502444
1.4379276637341154
1.4056695992179864
1.3734115347018572
1.343108504398827
1.3147605083088951
1.2883675464320623
1.267839687194526
1.2512218963831867
1.2326490713587488
1.2130987292277615
1.1935483870967742
1.1749755620723363
1.1564027370478984
1.1378299120234605
1.1202346041055715
1.104594330400782
1.0909090909090908
1.0801564027370478
1.0703812316715542
1.0654936461388074
1.0635386119257086
1.0576735092864125
1.0478983382209188
1.0361681329423265
1.0224828934506354
1.0068426197458455
0.9931573802541545
0.9833822091886608
0.9775171065493646
0.9765395894428152
0.9833822091886608
0.9990224828934506
1.0254154447702837
1.0654936461388074
1.1241446725317692
1.2003910068426198
1.29227761485826
1.3988269794721409
1.517106549364614
1.6412512218963833
1.7673509286412512
1.8905180840664717
2.007820136852395
2.117302052785924
2.206256109481916
2.280547409579668
2.3548387096774195
2.423264907135875
2.4819159335288368
2.5317693059628543
2.5718475073313782
2.6021505376344085
2.624633431085044
2.6402737047898337
2.650048875855328
2.654936461388074
2.6510263929618767
2.6392961876832843
2.624633431085044
2.606060606060606
2.581622678396872
2.550342130987292
2.5131964809384164
2.469208211143695
2.4222873900293256
2.3714565004887587
2.318670576735093
2.2668621700879767
2.2170087976539588
2.1739980449657867
2.134897360703812
2.096774193548387
2.06158357771261
2.0283479960899315
1.9980449657869013
1.9687194525904204
1.9393939393939397
1.9090909090909087
1.8797653958944285
1.8504398826979471
1.822091886608016
1.7976539589442817
1.7732160312805474
1.7458455522971652
1.7165200391006843
1.6852394916911049
1.6520039100684265
1.616813294232649
1.5786901270772238
1.5395894428152492
1.500488758553275
1.4623655913978495
1.4242424242424243
1.392961876832845
1.3665689149560116
1.3372434017595307
1.305962854349951
1.273704789833822
1.2443792766373412
1.217008797653959
1.1915933528836755
1.1671554252199414
1.142717497556207
1.1202346041055715
1.099706744868035
1.0801564027370478
1.067448680351906
1.0586510263929618
1.04594330400782
1.0312805474095796
1.0156402737047898
1.0
0.9951124144672532
0.9960899315738024
0.9902248289345064
0.9804496578690128
0.9696969696969696
0.956989247311828
0.9491691104594332
0.9423264907135877
0.9325513196480938
0.9208211143695014
0.9090909090909092
0.8963831867057673
0.8866080156402737
0.8836754643206256
0.8914956011730205
0.913978494623656
0.95405669599218
1.0117302052785924
1.088954056695992
1.1720430107526882
1.262952101661779
1.3743890518084063
1.498533724340176
1.629521016617791
1.7634408602150538
1.8963831867057677
2.0234604105571847
2.1436950146627565
2.2521994134897363
2.347018572825025
2.4281524926686218
2.4887585532746823
2.533724340175953
2.576735092864125
2.611925708699902
2.638318670576735
2.6559139784946235
2.664711632453568
2.665689149560117
2.6608015640273703
2.6510263929618767
2.634408602150537
2.611925708699902
2.58455522971652
2.5542521994134897
2.5210166177908118
2.4809384164222874
2.436950146627566
2.391006842619746
2.3440860215053765
2.2981427174975564
2.257086999022483
2.218963831867057
2.182795698924731
2.150537634408602
2.1221896383186705
2.099706744868035
2.0791788856304985
2.058651026392962
2.037145650048876
2.01564027370479
1.992179863147605
1.967741935483871
1.9423264907135875
1.9159335288367547
1.8875855327468232
1.857282502443793
1.8269794721407624
1.796676441837732
1.7702834799608993
1.7448680351906158
1.715542521994135
1.686217008797654
1.6549364613880744
1.6217008797653958
1.5884652981427174
1.5591397849462365
1.530791788856305
1.5034213098729228
1.478983382209189
1.455522971652004
1.4389051808406648
1.426197458455523
1.4105571847507332
1.393939393939394
1.3773216031280548
1.359726295210166
1.343108504398827
1.3294232649071358
1.3186705767350928
1.3088954056695992
1.300097751710655
1.2942326490713587
1.2903225806451613
1.289345063538612
1.2883675464320623
1.2854349951124144
1.2825024437927663
1.278592375366569
1.2746823069403714
1.2697947214076246
1.2639296187683284
1.2580645161290325
1.2531769305962854
1.249266862170088
1.249266862170088
1.2561094819159335
1.2697947214076246
1.29227761485826
1.3284457478005864
1.3812316715542523
1.4516129032258065
1.5405669599217986
1.6471163245356797
1.7653958944281525
1.8944281524926687
2.0303030303030303
2.167155425219941
2.3010752688172045
2.409579667644184
2.501466275659824
2.5962854349951123
2.686217008797654
2.7673509286412514
2.8367546432062563
2.8944281524926687
2.9423264907135875
2.979472140762464
3.007820136852395
3.0283479960899315
3.0410557184750733
3.043010752688172
3.040078201368524
3.0361681329423265
3.027370478983382
3.0127077223851417
2.9931573802541545
2.9687194525904204
2.93841642228739
2.903225806451613
2.863147605083089
2.819159335288368
2.7722385141739982
2.720430107526881
2.670576735092864
2.621700879765396
2.570869990224829
2.5219941348973607
2.4760508308895406
2.432062561094819
2.3919843597262958
2.3548387096774195
2.320625610948192
2.286412512218964
2.2531769305962857
2.218963831867057
2.187683284457478
2.157380254154448
2.1251221896383186
2.09188660801564
2.0576735092864125
2.021505376344086
1.9843597262952104
1.948191593352884
1.9130009775171064
1.87683284457478
1.8387096774193548
1.8005865102639296
1.761485826001955
1.7282502443792769
1.699902248289345
1.6666666666666667
1.6314760508308896
1.598240469208211
1.5650048875855327
1.5317693059628543
1.499511241446725
1.4682306940371457
1.4379276637341154
1.409579667644184
1.3822091886608017
1.3607038123167154
1.343108504398827
1.321603128054741
1.3020527859237536
1.2854349951124144
1.267839687194526
1.2512218963831867
1.2346041055718475
1.217008797653959
1.2013685239491692
1.1867057673509287
1.1710654936461389
1.1573802541544478
1.1495601173020529
1.142717497556207
1.1319648093841643
1.118279569892473
1.104594330400782
1.093841642228739
1.0850439882697946
1.0811339198435972
1.086021505376344
1.1055718475073313
1.142717497556207
1.1974584555229717
1.2609970674486803
1.33822091886608
1.439882697947214
1.5610948191593352
1.6950146627565983
1.8377321603128052
1.9843597262952104
2.1300097751710654
2.270772238514174
2.403714565004888
2.5268817204301075
2.638318670576735
2.7253176930596283
2.7947214076246336
2.866080156402737
2.932551319648094
2.992179863147605
3.0439882697947214
3.0879765395894427
3.1270772238514173
3.158357771260997
3.182795698924731
3.201368523949169
3.21505376344086
3.2248289345063537
3.222873900293255
3.2130987292277613
3.2023460410557183
3.188660801564027
3.1681329423264906
3.1388074291300097
3.1006842619745845
3.0527859237536656
2.997067448680352
2.935483870967742
2.8690127077223853
2.801564027370479
2.73802541544477
2.678396871945259
2.616813294232649
2.5562072336265884
2.4995112414467253
2.4457478005865103
2.3949169110459434
2.346041055718475
2.2991202346041058
2.257086999022483
2.2170087976539588
2.177908113391984
2.1378299120234603
2.088954056695992
2.037145650048876
1.994134897360704
1.956989247311828
1.9237536656891496
1.8914956011730208
1.858260019550342
1.825024437927664
1.7917888563049853
1.758553274682307
1.726295210166178
1.6950146627565983
1.6686217008797657
1.6422287390029326
1.611925708699902
1.5826001955034212
1.5542521994134897
1.525904203323558
1.499511241446725
1.4750733137829912
1.4516129032258065
1.4291300097751711
1.4066471163245358
1.3841642228739004
1.3626588465298142
1.3470185728250244
1.3343108504398826
1.3186705767350928
1.3020527859237536
1.284457478005865
1.2658846529814272
1.249266862170088
1.2346041055718475
1.219941348973607
1.2052785923753666
1.1906158357771262
1.1759530791788857
1.1652003910068427
1.1583577712609971
1.1505376344086022
1.1436950146627567
1.1397849462365592
1.1436950146627567
1.160312805474096
1.1915933528836755
1.2394916911045943
1.3040078201368523
1.3851417399804498
1.4809384164222874
1.5884652981427174
1.6881720430107527
1.7849462365591398
1.8934506353861196
2.006842619745845
2.118279569892473
2.2238514173998043
2.3225806451612905
2.412512218963832
2.49266862170088
2.563049853372434
2.6236559139784945
2.674486803519061
2.7096774193548385
2.7331378299120237
2.7565982404692084
2.779081133919844
2.798631476050831
2.8152492668621703
2.827956989247312
2.8377321603128056
2.8426197458455524
2.8406647116324537
2.831867057673509
2.817204301075269
2.7947214076246336
2.7673509286412514
2.736070381231672
2.6989247311827955
2.6578690127077222
2.6129032258064515
2.5650048875855327
2.5131964809384164
2.4604105571847508
2.4086021505376345
2.355816226783969
2.3069403714565007
2.26197458455523
2.2218963831867056
2.1867057673509285
2.150537634408602
2.114369501466276
2.081133919843597
2.050830889540567
2.0205278592375366
1.9902248289345064
1.9589442815249267
1.9286412512218964
1.8983382209188664
1.8670576735092863
1.8347996089931573
1.8074291300097751
1.7810361681329423
1.7517106549364614
1.7194525904203324
1.6881720430107527
1.6559139784946235
1.6236559139784943
1.5923753665689149
1.5610948191593352
1.530791788856305
1.501466275659824
1.4731182795698925
1.4506353861192571
1.43108504398827
1.4086021505376345
1.3841642228739004
1.3607038123167154
1.3391984359726294
1.3176930596285434
1.2981427174975562
1.278592375366569
1.260019550342131
1.2453567937438903
1.2326490713587488
1.2189638318670577
1.209188660801564
1.2013685239491692
1.1906158357771262
1.176930596285435
1.164222873900293
1.1515151515151516
1.1368523949169111
1.1241446725317692
1.1143695014662756
1.1065493646138806
1.1016617790811338
1.1016617790811338
1.10752688172043
1.1231671554252198
1.1505376344086022
1.1915933528836755
1.249266862170088
1.321603128054741
1.4076246334310851
1.5073313782991202
1.6158357771260996
1.729227761485826
1.844574780058651
1.9589442815249267
2.0684261974584555
2.1593352883675463
2.236559139784946
2.314760508308896
2.388074291300098
2.4545454545454546
2.5131964809384164
2.5620723362658846
2.603128054740958
2.636363636363636
2.66177908113392
2.681329423264907
2.6959921798631474
2.701857282502444
2.702834799608993
2.701857282502444
2.697947214076246
2.6881720430107525
2.673509286412512
2.653958944281525
2.6295210166177907
2.5992179863147604
2.563049853372434
2.52297165200391
2.479960899315738
2.434017595307918
2.391006842619746
2.3489736070381237
2.304985337243402
2.2629521016617797
2.220918866080156
2.1808406647116323
2.142717497556207
2.10752688172043
2.0762463343108504
2.047898338220919
2.0205278592375366
1.9931573802541545
1.9687194525904204
1.946236559139785
1.921798631476051
1.8944281524926687
1.866080156402737
1.8387096774193548
1.8113391984359728
1.7810361681329423
1.7497556207233629
1.7174975562072337
1.6871945259042034
1.656891495601173
1.6314760508308896
1.6080156402737047
1.5806451612903225
1.5503421309872922
1.5180840664711632
1.487781036168133
1.4594330400782014
1.43108504398827
1.4037145650048877
1.3792766373411536
1.356793743890518
1.3362658846529814
1.316715542521994
1.3020527859237536
1.29227761485826
1.2805474095796676
1.2668621700879763
1.2531769305962854
1.2394916911045943
1.2258064516129032
1.2130987292277615
1.1994134897360704
1.1867057673509287
1.1749755620723363
1.1622678396871946
1.1534701857282503
1.147605083088954
1.13880742913001
1.1300097751710656
1.1221896383186705
1.1163245356793745
1.1133919843597262
1.1143695014662756
1.121212121212121
1.1368523949169111
1.164222873900293
1.2072336265884651
1.2668621700879763
1.332355816226784
1.404692082111437
1.495601173020528
1.6001955034213098
1.7116324535679377
1.826001955034213
1.9393939393939397
2.047898338220919
2.1495601173020527
2.243401759530792
2.3274682306940373
2.40078201368524
2.4545454545454546
2.496578690127077
2.5386119257087
2.5747800586510263
2.6041055718475072
2.6265884652981426
2.643206256109482
2.687194525904203
2.7419354838709675
2.768328445747801
2.777126099706745
2.773216031280548
2.7595307917888565
2.7390029325513194
2.7126099706744866
2.679374389051808
2.6392961876832843
2.5943304007820136
2.5464320625610948
2.4975562072336266
2.44672531769306
2.396871945259042
2.3489736070381237
2.302052785923754
2.260019550342131
2.2248289345063537
2.1925708699902247
2.158357771260997
2.1251221896383186
2.0928641251221896
2.060606060606061
2.027370478983382
1.992179863147605
1.9579667644183771
1.9237536656891496
1.889540566959922
1.857282502443793
1.826001955034213
1.7986314760508308
1.7712609970674489
1.7380254154447703
1.7018572825024438
1.66177908113392
1.6207233626588464
1.5826001955034212
1.5464320625610948
1.5083088954056696
1.4731182795698925
1.4389051808406648
1.404692082111437
1.3773216031280548
1.3528836754643203
1.324535679374389
1.295210166177908
1.2658846529814272
1.2365591397849462
1.209188660801564
1.1857282502443791
1.1652003910068427
1.1466275659824048
1.1280547409579669
1.1085043988269794
1.0909090909090908
1.0791788856304985
1.0694037145650048
1.056695992179863
1.0420332355816226
1.0283479960899315
1.0156402737047898
1.0009775171065494
0.9843597262952102
0.967741935483871
0.9491691104594332
0.9286412512218964
0.9110459433040078
0.9022482893450636
0.8983382209188661
0.8944281524926686
0.8944281524926686
0.9002932551319648
0.916911045943304
0.9501466275659824
1.0019550342130987
1.072336265884653
1.1612903225806452
1.2649071358748778
1.380254154447703
1.5053763440860215
1.6207233626588464
1.7302052785923754
1.8504398826979471
1.9726295210166176
2.088954056695992
2.1945259042033234
2.290322580645161
2.3734115347018574
2.442815249266862
2.4995112414467253
2.544477028347996
2.578690127077224
2.5992179863147604
2.611925708699902
2.622678396871945
2.6285434995112413
2.6295210166177907
2.624633431085044
2.613880742913001
2.5972629521016617
2.573802541544477
2.5434995112414467
2.5083088954056696
2.469208211143695
2.429130009775171
2.3900293255131966
2.3519061583577714
2.310850439882698
2.269794721407625
2.23069403714565
2.1945259042033234
2.1593352883675463
2.126099706744868
2.096774193548387
2.071358748778104
2.047898338220919
2.0234604105571847
1.9990224828934504
1.9765395894428155
1.9521016617790807
1.927663734115347
1.902248289345064
1.8758553274682308
1.847507331378299
1.8191593352883677
1.7898338220918866
1.7595307917888563
1.7272727272727273
1.694037145650049
1.6598240469208212
1.6314760508308896
1.6041055718475072
1.573802541544477
1.541544477028348
1.5083088954056696
1.4760508308895406
1.444770283479961
1.4164222873900294
1.3900293255131966
1.3636363636363635
1.3372434017595307
1.3128054740957966
1.295210166177908
1.2805474095796676
1.2649071358748778
1.2512218963831867
1.2375366568914956
1.2238514173998043
1.2111436950146628
1.198435972629521
1.1857282502443791
1.1730205278592376
1.1612903225806452
1.1515151515151516
1.1466275659824048
1.144672531769306
1.142717497556207
1.1407624633431086
1.1378299120234605
1.133919843597263
1.130987292277615
1.1300097751710656
1.1319648093841643
1.1407624633431086
1.1573802541544478
1.187683284457478
1.2316715542521994
1.281524926686217
1.3411534701857282
1.4222873900293256
1.521016617790811
1.6344086021505375
1.758553274682307
1.89247311827957
2.029325513196481
2.164222873900293
2.2932551319648096
2.41544477028348
2.527859237536657
2.6148582600195502
2.6823069403714563
2.747800586510264
2.8054740957966766
2.8514173998044967
2.887585532746823
2.9149560117302054
2.935483870967742
2.951124144672532
2.961876832844575
2.964809384164223
2.960899315738025
2.951124144672532
2.9345063538611926
2.911045943304008
2.8836754643206257
2.852394916911046
2.81622678396872
2.776148582600196
2.7311827956989245
2.6832844574780057
2.633431085043988
2.5835777126099706
2.5347018572825024
2.4887585532746823
2.447702834799609
2.410557184750733
2.3743890518084068
2.3421309872922778
2.310850439882698
2.280547409579668
2.2502443792766376
2.219941348973607
2.188660801564027
2.156402737047898
2.124144672531769
2.0928641251221896
2.0625610948191597
2.035190615835777
2.005865102639296
1.9736070381231672
1.9403714565004888
1.906158357771261
1.8699902248289344
1.8318670576735088
1.793743890518084
1.7556207233626588
1.718475073313783
