ppg
1.3841642228739004
1.3665689149560116
1.3470185728250244
1.3284457478005864
1.3118279569892473
1.2971652003910068
1.2854349951124144
1.2756598240469208
1.2668621700879763
1.2570869990224829
1.2482893450635386
1.238514173998045
1.224828934506354
1.2121212121212122
1.2101661779081134
1.2297165200391007
1.2825024437927663
1.3734115347018572
1.501466275659824
1.66177908113392
1.842619745845552
2.0283479960899315
2.204301075268817
2.3421309872922778
2.4486803519061584
2.544477028347996
2.6207233626588464
2.675464320625611
2.710654936461388
2.730205278592375
2.736070381231672
2.7331378299120237
2.724340175953079
2.7096774193548385
2.689149560117302
2.664711632453568
2.636363636363636
2.6050830889540566
2.56891495601173
2.525904203323558
2.4750733137829912
2.4173998044965788
2.3519061583577714
2.2795698924731185
2.19941348973607
2.114369501466276
2.026392961876833
1.9374389051808407
1.8602150537634408
1.7927663734115349
1.7233626588465298
1.656891495601173
1.598240469208211
1.5464320625610948
1.501466275659824
1.4643206256109482
1.4330400782013686
1.4056695992179864
1.3822091886608017
1.3616813294232648
1.346041055718475
1.3313782991202343
1.3147605083088951
1.2991202346041055
1.2834799608993157
1.2668621700879763
1.2502443792766371
1.2355816226783969
1.219941348973607
1.2052785923753666
1.1896383186705768
1.173998044965787
1.1573802541544478
1.144672531769306
1.1358748778103618
1.1251221896383188
1.1133919843597262
1.1016617790811338
1.0909090909090908
1.0811339198435972
1.0703812316715542
1.0586510263929618
1.0439882697947214
1.0283479960899315
1.0166177908113392
1.0156402737047898
1.0312805474095796
1.0713587487781036
1.1896383186705768
1.3264907135874875
1.4457478005865103
1.6080156402737047
1.7917888563049853
1.9765395894428155
2.146627565982405
2.29227761485826
2.4086021505376345
2.496578690127077
2.552297165200391
2.5835777126099706
2.603128054740958
2.6129032258064515
2.6129032258064515
2.6050830889540566
2.590420332355816
2.570869990224829
2.548387096774193
2.5239491691104594
2.496578690127077
2.4652981427174976
2.432062561094819
2.3949169110459434
2.350928641251222
2.297165200391007
2.2355816226783967
2.1652003910068425
2.0869990224828934
2.002932551319648
1.9149560117302051
1.826001955034213
1.7409579667644184
1.6608015640273706
1.587487781036168
1.5298142717497556
1.482893450635386
1.4389051808406648
1.3998044965786902
1.3665689149560116
1.33822091886608
1.3147605083088951
1.2942326490713587
1.2766373411534702
1.260019550342131
1.2443792766373412
1.23069403714565
1.2218963831867058
1.2150537634408602
1.2052785923753666
1.1945259042033236
1.181818181818182
1.1681329423264908
1.1534701857282503
1.13880742913001
1.1231671554252198
1.10752688172043
1.0909090909090908
1.075268817204301
1.0654936461388074
1.0596285434995112
1.0518084066471165
1.0439882697947214
1.0381231671554252
1.0332355816226784
1.0283479960899315
1.0224828934506354
1.0156402737047898
1.007820136852395
1.0019550342130987
1.007820136852395
1.0361681329423265
1.083088954056696
1.1564027370478984
1.2727272727272727
1.4271749755620724
1.6099706744868034
1.8054740957966764
1.9980449657869013
2.1739980449657867
2.3255131964809386
2.4486803519061584
2.5425219941348973
2.608993157380254
2.6471163245356792
2.6666666666666665
2.679374389051808
2.6832844574780057
2.678396871945259
2.6666666666666665
2.650048875855328
2.6295210166177907
2.603128054740958
2.572825024437928
2.5376344086021505
2.496578690127077
2.449657869012708
2.39980449657869
2.345063538611926
2.278592375366569
2.204301075268817
2.1251221896383186
2.042033235581622
1.9589442815249267
1.87683284457478
1.7996089931573802
1.729227761485826
1.667644183773216
1.6158357771260996
1.5757575757575757
1.5454545454545454
1.5180840664711632
1.4936461388074291
1.4731182795698925
1.456500488758553
1.439882697947214
1.423264907135875
1.4066471163245358
1.3900293255131966
1.3743890518084063
1.3587487781036167
1.343108504398827
1.3313782991202343
1.3196480938416422
1.305962854349951
1.2913000977517106
1.2766373411534702
1.2619745845552297
1.2443792766373412
1.2287390029325511
1.217008797653959
1.2023460410557183
1.18475073313783
1.166177908113392
1.152492668621701
1.1456500488758554
1.1505376344086022
1.1788856304985338
1.241446725317693
1.343108504398827
1.4809384164222874
1.64613880742913
1.826001955034213
2.006842619745845
2.1730205278592374
2.315738025415445
2.43108504398827
2.5102639296187683
2.5620723362658846
2.6021505376344085
2.627565982404692
2.641251221896383
2.6451612903225805
2.6422287390029324
2.632453567937439
2.618768328445748
2.5992179863147604
2.63049853372434
2.6823069403714563
2.6881720430107525
2.667644183773216
2.6265884652981426
1.7086999022482894
1.675464320625611
1.6471163245356797
1.6236559139784943
1.603128054740958
1.58455522971652
1.5698924731182795
1.5571847507331378
1.542521994134897
1.5268817204301075
1.5102639296187683
1.4926686217008798
1.474095796676442
1.4545454545454546
1.435972629521017
1.4173998044965788
1.3978494623655917
1.3782991202346042
1.359726295210166
1.346041055718475
1.335288367546432
1.3235581622678396
1.310850439882698
1.2971652003910068
1.2825024437927663
1.2668621700879763
1.2512218963831867
1.2336265884652982
1.2130987292277615
1.1945259042033236
1.181818181818182
1.181818181818182
1.2023460410557183
1.252199413489736
1.3401759530791788
1.4672531769305963
1.629521016617791
1.8162267839687196
2.010752688172043
2.196480938416422
2.3626588465298144
2.5024437927663734
2.610948191593353
2.6901270772238512
2.73802541544477
2.7624633431085046
2.777126099706745
2.7810361681329425
2.7751710654936463
2.7614858260019552
2.7419354838709675
2.717497556207233
2.689149560117302
2.6578690127077222
2.622678396871945
2.582600195503421
2.541544477028348
2.496578690127077
2.4408602150537635
2.3743890518084068
2.2991202346041058
2.2160312805474094
2.126099706744868
2.03128054740958
1.9374389051808407
1.8465298142717497
1.7634408602150538
1.689149560117302
1.6256109481915937
1.5777126099706744
1.543499511241447
1.5131964809384164
1.487781036168133
1.4672531769305963
1.4496578690127078
1.4349951124144673
1.4213098729227762
1.4066471163245358
1.391006842619746
1.375366568914956
1.3587487781036167
1.3440860215053765
1.332355816226784
1.3176930596285434
1.3020527859237536
1.2864125122189638
1.270772238514174
1.2561094819159335
1.241446725317693
1.2258064516129032
1.209188660801564
1.1925708699902249
1.1779081133919844
1.1652003910068427
1.1583577712609971
1.1534701857282503
1.1436950146627567
1.1319648093841643
1.118279569892473
1.1016617790811338
1.0879765395894427
1.0840664711632453
1.099706744868035
1.1456500488758554
1.2326490713587488
1.3626588465298142
1.5034213098729228
1.656891495601173
1.8435972629521016
2.0391006842619745
2.225806451612903
2.3900293255131966
2.5249266862170088
2.6285434995112413
2.702834799608993
2.7517106549364616
2.780058651026393
2.793743890518084
2.795698924731183
2.7869012707722387
2.771260997067449
2.7517106549364616
2.7311827956989245
2.708699902248289
2.6832844574780057
2.6529814271749754
2.6177908113391983
2.573802541544477
2.5219941348973607
2.4604105571847508
2.388074291300098
2.3167155425219943
2.242424242424242
2.155425219941349
2.06158357771261
1.964809384164223
1.8699902248289344
1.7810361681329423
1.6989247311827955
1.6265884652981428
1.5650048875855327
1.5141739980449658
1.4731182795698925
1.4408602150537635
1.418377321603128
1.4027370478983383
1.3861192570869991
1.3695014662756595
1.35386119257087
1.3391984359726294
1.324535679374389
1.3079178885630498
1.2903225806451613
1.273704789833822
1.2580645161290325
1.2424242424242424
1.23069403714565
1.219941348973607
1.206256109481916
1.1915933528836755
1.176930596285435
1.1652003910068427
1.155425219941349
1.1456500488758554
1.1368523949169111
1.1280547409579669
1.1202346041055715
1.1114369501466277
1.1006842619745845
1.0928641251221896
1.086021505376344
1.0791788856304985
1.075268817204301
1.0821114369501466
1.1085043988269794
1.1671554252199414
1.2639296187683284
1.3998044965786902
1.5698924731182795
1.7624633431085044
1.9608993157380252
2.129032258064516
2.270772238514174
2.406647116324536
2.52297165200391
2.610948191593353
2.6715542521994133
2.708699902248289
2.724340175953079
2.724340175953079
2.7116324535679373
2.689149560117302
2.6578690127077222
2.619745845552297
2.579667644183773
2.535679374389052
2.4838709677419355
2.4242424242424243
2.357771260997068
2.286412512218964
2.209188660801564
2.129032258064516
2.047898338220919
1.9667644183773216
1.889540566959922
1.8172043010752688
1.7575757575757576
1.7096774193548387
1.664711632453568
1.6256109481915937
1.5923753665689149
1.564027370478983
1.5395894428152492
1.5180840664711632
1.4975562072336266
1.478005865102639
1.456500488758553
1.434017595307918
1.4164222873900294
1.4007820136852396
1.3812316715542523
1.3616813294232648
1.3421309872922775
1.3225806451612905
1.303030303030303
1.2834799608993157
1.2649071358748778
1.2473118279569892
1.2297165200391007
1.2130987292277615
1.1964809384164223
1.1837732160312806
1.173998044965787
1.1622678396871946
1.1495601173020529
1.1358748778103618
1.1241446725317692
1.1133919843597262
1.104594330400782
1.0948191593352885
1.0840664711632453
1.0713587487781036
1.0576735092864125
1.050830889540567
1.0547409579667644
1.0733137829912025
1.121212121212121
1.209188660801564
1.3401759530791788
1.5239491691104594
1.750733137829912
1.9902248289345064
2.2238514173998043
2.436950146627566
2.618768328445748
2.764418377321604
2.86217008797654
2.9257086999022484
2.9745845552297165
3.007820136852395
3.0283479960899315
3.0361681329423265
3.034213098729228
3.024437927663734
3.0087976539589443
2.989247311827957
2.9657869012707723
2.936461388074292
2.903225806451613
2.865102639296188
2.8181818181818183
2.763440860215054
2.696969696969697
2.619745845552297
2.5317693059628543
2.4349951124144678
2.3304007820136854
2.219941348973607
2.10752688172043
1.9980449657869013
1.8944281524926687
1.8103616813294232
1.739980449657869
1.6705767350928642
1.608993157380254
1.5542521994134897
1.5073313782991202
1.466275659824047
1.4320625610948192
1.4007820136852396
1.3714565004887584
1.3440860215053765
1.316715542521994
1.295210166177908
1.2766373411534702
1.2541544477028348
1.23069403714565
1.2072336265884651
1.18475073313783
1.164222873900293
1.1436950146627567
1.1241446725317692
1.1055718475073313
1.086021505376344
1.067448680351906
1.050830889540567
1.0410557184750733
1.035190615835777
1.0263929618768328
1.0166177908113392
1.0058651026392962
0.9921798631476052
0.975562072336266
0.959921798631476
0.9501466275659824
0.95405669599218
0.9853372434017597
1.0547409579667644
1.1466275659824048
1.2697947214076246
1.4418377321603129
1.6471163245356797
1.868035190615836
2.0869990224828934
2.2854349951124147
2.4545454545454546
2.5884652981427174
2.686217008797654
2.7536656891495603
2.7966764418377323
2.8211143695014664
2.827956989247312
2.823069403714565
2.814271749755621
2.803519061583578
2.789833822091887
2.773216031280548
2.7517106549364616
2.7253176930596283
2.6911045943304006
2.649071358748778
2.5962854349951123
2.5317693059628543
2.466275659824047
2.3958944281524928
2.310850439882698
2.21505376344086
2.1114369501466275
2.005865102639296
1.903225806451613
1.8064516129032255
1.718475073313783
1.6412512218963833
1.5757575757575757
1.521016617790811
1.47702834799609
1.4467253176930597
1.4252199413489737
1.404692082111437
1.3861192570869991
1.3695014662756595
1.3558162267839686
1.3440860215053765
1.3333333333333333
1.3206256109481915
1.3069403714565004
1.295210166177908
1.284457478005865
1.278592375366569
1.2795698924731185
1.2883675464320623
1.3088954056695992
1.3411534701857282
1.3861192570869991
1.4418377321603129
1.5034213098729228
1.563049853372434
1.6148582600195502
1.656891495601173
1.6842619745845553
1.6950146627565983
1.6930596285434996
1.678396871945259
1.6490713587487782
1.6080156402737047
1.5581622678396871
1.5024437927663734
1.4437927663734116
1.3851417399804498
1.3304007820136852
1.2805474095796676
1.2365591397849462
1.1994134897360704
1.1749755620723363
1.160312805474096
1.1495601173020529
1.144672531769306
1.1436950146627567
1.1456500488758554
1.1495601173020529
1.1544477028347997
1.1583577712609971
1.160312805474096
1.1612903225806452
1.1622678396871946
1.1612903225806452
1.160312805474096
1.160312805474096
1.1564027370478984
1.1505376344086022
1.1436950146627567
1.1358748778103618
1.1280547409579669
1.1202346041055715
1.1114369501466277
1.1016617790811338
1.0928641251221896
1.083088954056696
1.078201368523949
1.0733137829912025
1.0654936461388074
1.0576735092864125
1.0488758553274682
1.0391006842619743
1.0283479960899315
1.018572825024438
1.0087976539589445
1.0
0.9921798631476052
0.9853372434017597
0.978494623655914
0.9765395894428152
0.9765395894428152
0.9726295210166178
0.9687194525904204
0.9648093841642228
0.9628543499511242
0.9618768328445748
0.9618768328445748
0.9648093841642228
0.975562072336266
0.9960899315738024
1.0263929618768328
1.06158357771261
1.1006842619745845
1.141739980449658
1.1808406647116323
1.217008797653959
1.2561094819159335
1.310850439882698
1.3958944281524928
1.5239491691104594
1.7067448680351909
1.943304007820137
2.222873900293255
2.4819159335288368
2.724340175953079
2.988269794721408
3.2404692082111435
3.4613880742913
3.642228739002933
3.782991202346041
3.8836754643206257
3.943304007820137
3.972629521016618
3.9872922776148574
3.995112414467253
3.99902248289345
4.000977517106549
4.001955034213099
4.001955034213099
4.001955034213099
4.001955034213099
4.001955034213099
4.001955034213099
3.986314760508309
3.946236559139785
3.885630498533725
3.8084066471163247
3.714565004887585
3.616813294232649
3.5141739980449658
3.401759530791789
3.2873900293255134
3.175953079178885
3.072336265884653
2.979472140762464
2.8993157380254155
2.833822091886608
2.7839687194525906
2.747800586510264
2.7223851417399803
2.7067448680351904
2.695014662756598
2.6852394916911044
2.677419354838709
2.665689149560117
2.6480938416422286
2.624633431085044
2.5962854349951123
2.5610948191593352
2.52297165200391
2.482893450635386
2.442815249266862
2.403714565004888
2.2521994134897363
2.048875855327468
1.9374389051808407
1.8729227761485825
1.8328445747800584
1.8074291300097751
1.7888563049853372
1.7741935483870968
1.761485826001955
1.7517106549364614
1.7438905180840665
1.7380254154447703
1.7341153470185728
1.7302052785923754
1.7272727272727273
1.7253176930596286
1.7233626588465298
1.7204301075268815
1.715542521994135
1.7096774193548387
1.699902248289345
1.6881720430107527
1.6744868035190617
1.664711632453568
1.664711632453568
1.675464320625611
1.704789833822092
1.7644183773216031
1.8563049853372435
1.9745845552297163
2.1114369501466275
2.254154447702835
2.3919843597262958
2.5141739980449658
2.6158357771261
2.6930596285435
2.7468230694037143
2.780058651026393
2.792766373411535
2.790811339198436
2.7839687194525906
2.771260997067449
2.7536656891495603
2.7311827956989245
2.7067448680351904
2.6803519061583576
2.6510263929618767
2.618768328445748
2.582600195503421
2.541544477028348
2.4995112414467253
2.453567937438905
2.40078201368524
2.340175953079179
2.2737047898338223
2.201368523949169
2.126099706744868
2.0498533724340176
1.975562072336266
1.9042033235581624
1.8377321603128052
1.7781036168132942
1.7243401759530792
1.6823069403714566
1.6471163245356797
1.6138807429130009
1.58455522971652
1.5581622678396871
1.533724340175953
1.5112414467253177
1.490713587487781
1.4721407624633431
1.4545454545454546
1.4379276637341154
1.4222873900293256
1.409579667644184
1.396871945259042
1.3822091886608017
1.3655913978494625
1.346041055718475
1.324535679374389
1.303030303030303
1.2825024437927663
1.2619745845552297
1.2434017595307918
1.227761485826002
1.2140762463343109
1.203323558162268
1.1974584555229717
1.195503421309873
1.1945259042033236
1.1945259042033236
1.1935483870967742
1.1915933528836755
1.1896383186705768
1.187683284457478
1.1886608015640274
1.2013685239491692
1.2336265884652982
1.29227761485826
1.3626588465298142
1.4496578690127078
1.5669599217986314
1.7008797653958945
1.8387096774193548
1.9687194525904204
2.083088954056696
2.175953079178885
2.2453567937438903
2.29227761485826
2.3196480938416424
2.3313782991202348
2.3304007820136854
2.320625610948192
2.304007820136853
2.2844574780058653
2.26197458455523
2.236559139784946
2.2082111436950145
2.176930596285435
2.1407624633431084
2.099706744868035
2.053763440860215
2.002932551319648
1.948191593352884
1.8973607038123168
1.847507331378299
1.7917888563049853
1.732160312805474
1.6735092864125125
1.616813294232649
1.563049853372434
1.5151515151515151
1.4721407624633431
1.435972629521017
1.4056695992179864
1.3812316715542523
1.3607038123167154
1.3450635386119256
1.3333333333333333
1.321603128054741
1.3098729227761483
1.2991202346041055
1.2883675464320623
1.2766373411534702
1.2639296187683284
1.2512218963831867
1.2375366568914956
1.2228739002932552
1.2072336265884651
1.195503421309873
1.1857282502443791
1.1730205278592376
1.1583577712609971
1.1436950146627567
1.1290322580645162
1.1143695014662756
1.1006842619745845
1.088954056695992
1.0791788856304985
1.0703812316715542
1.06158357771261
1.0518084066471165
1.0439882697947214
1.0361681329423265
1.0273704789833822
1.024437927663734
1.0342130987292275
1.0654936461388074
1.1251221896383188
1.2160312805474096
1.3343108504398826
1.4731182795698925
1.6207233626588464
1.7644183773216031
1.8807429130009776
1.9736070381231672
2.058651026392962
2.1280547409579667
2.1808406647116323
2.2170087976539588
2.2404692082111435
2.2531769305962857
2.2580645161290325
2.257086999022483
2.2521994134897363
2.242424242424242
2.2297165200391005
2.2140762463343107
2.196480938416422
2.176930596285435
2.1544477028347995
2.1270772238514173
2.093841642228739
2.0547409579667644
2.0087976539589443
1.9560117302052784
1.8983382209188664
1.8347996089931573
1.7673509286412512
1.7067448680351909
1.6500488758553276
1.5894428152492668
1.5298142717497556
1.4760508308895406
1.4291300097751711
1.3900293255131966
1.3587487781036167
1.3333333333333333
1.313782991202346
1.2991202346041055
1.2873900293255132
1.278592375366569
1.270772238514174
1.2609970674486803
1.2512218963831867
1.241446725317693
1.23069403714565
1.2189638318670577
1.206256109481916
1.1945259042033236
1.1808406647116323
1.1671554252199414
1.1544477028347997
1.1456500488758554
1.1436950146627567
1.1515151515151516
1.1710654936461389
1.2043010752688172
1.2502443792766371
1.3079178885630498
1.3724340175953078
1.4389051808406648
1.499511241446725
1.5493646138807429
1.5865102639296187
1.6080156402737047
1.6158357771260996
1.611925708699902
1.5962854349951123
1.5708699902248289
1.5386119257087
1.501466275659824
1.4604105571847508
1.418377321603128
1.3763440860215057
1.3343108504398826
1.295210166177908
1.2590420332355816
1.2267839687194526
1.2043010752688172
1.187683284457478
1.1720430107526882
1.1612903225806452
1.1544477028347997
1.152492668621701
1.1544477028347997
1.1593352883675463
1.166177908113392
1.1749755620723363
1.1827956989247312
1.1896383186705768
1.1964809384164223
1.2023460410557183
1.206256109481916
1.2072336265884651
1.206256109481916
1.203323558162268
1.198435972629521
1.1935483870967742
1.187683284457478
1.181818181818182
1.1759530791788857
1.1691104594330402
1.163245356793744
1.1593352883675463
1.155425219941349
1.1485826001955035
1.1407624633431086
1.133919843597263
1.1290322580645162
1.1251221896383188
1.1221896383186705
1.118279569892473
1.1143695014662756
1.1114369501466277
1.1094819159335287
1.1094819159335287
1.110459433040078
1.1094819159335287
1.1085043988269794
1.10752688172043
1.10752688172043
1.10752688172043
1.1085043988269794
1.1094819159335287
1.1124144672531768
1.1173020527859236
1.1221896383186705
1.1280547409579669
1.1358748778103618
1.144672531769306
1.1534701857282503
1.1622678396871946
1.1700879765395895
1.1749755620723363
1.176930596285435
1.1788856304985338
1.18475073313783
1.203323558162268
1.2443792766373412
1.3157380254154447
1.401759530791789
1.509286412512219
1.6559139784946235
1.827956989247312
2.0087976539589443
2.182795698924731
2.3382209188660803
2.4682306940371457
2.5698924731182795
2.644183773216031
2.695014662756598
2.7262952101661777
2.742913000977517
2.744868035190616
2.736070381231672
2.724340175953079
2.708699902248289
2.6901270772238512
2.667644183773216
2.641251221896383
2.610948191593353
2.5777126099706744
2.5386119257087
2.4916911045943304
2.4359726295210167
2.3792766373411536
2.318670576735093
2.2482893450635384
2.1710654936461387
2.090909090909091
2.010752688172043
1.9335288367546437
1.8621700879765395
1.7976539589442817
1.739980449657869
1.689149560117302
1.6441837732160314
1.606060606060606
1.5757575757575757
1.552297165200391
1.5298142717497556
1.5083088954056696
1.487781036168133
1.469208211143695
1.4516129032258065
1.4330400782013686
1.41544477028348
1.3988269794721409
1.3812316715542523
1.3636363636363635
1.3479960899315735
1.3343108504398826
1.3186705767350928
1.303030303030303
1.2854349951124144
1.267839687194526
1.252199413489736
1.2375366568914956
1.224828934506354
1.2140762463343109
1.2043010752688172
1.195503421309873
1.187683284457478
1.181818181818182
1.1749755620723363
1.163245356793744
1.1495601173020529
1.1397849462365592
1.142717497556207
1.1652003910068427
1.217008797653959
1.3010752688172045
1.41544477028348
1.5542521994134897
1.7057673509286413
1.8387096774193548
1.95405669599218
2.069403714565005
2.1730205278592374
2.257086999022483
2.3196480938416424
2.364613880742913
2.3958944281524928
2.41544477028348
2.426197458455523
2.429130009775171
2.426197458455523
2.4173998044965788
2.4056695992179864
2.3929618768328447
2.378299120234604
2.360703812316716
2.340175953079179
2.314760508308896
2.2844574780058653
2.247311827956989
2.201368523949169
2.146627565982405
2.0840664711632453
2.0146627565982405
1.948191593352884
1.8836754643206255
1.8113391984359728
1.7380254154447703
1.6686217008797657
1.606060606060606
1.5493646138807429
1.500488758553275
1.458455522971652
1.423264907135875
1.392961876832845
1.367546432062561
1.3479960899315735
1.332355816226784
1.3157380254154447
1.2991202346041055
1.2825024437927663
1.2668621700879763
1.2512218963831867
1.2355816226783969
1.2189638318670577
1.2013685239491692
1.1837732160312806
1.166177908113392
1.1495601173020529
1.1378299120234605
1.1280547409579669
1.115347018572825
1.1016617790811338
1.0879765395894427
1.0762463343108504
1.0654936461388074
1.0557184750733135
1.0449657869012707
1.0332355816226784
1.018572825024438
1.0039100684261977
0.9951124144672532
0.9931573802541545
1.0009775171065494
1.0283479960899315
1.0840664711632453
1.1730205278592376
1.2942326490713587
1.439882697947214
1.6001955034213098
1.761485826001955
1.9120234604105573
2.042033235581622
2.1485826001955037
2.2218963831867056
2.270772238514174
2.3088954056695994
2.335288367546432
2.3519061583577714
2.3597262952101663
2.361681329423265
2.357771260997068
2.3499511241446727
2.3391984359726297
2.3255131964809386
2.30791788856305
2.2873900293255134
2.2629521016617797
2.2346041055718477
2.201368523949169
2.161290322580645
2.114369501466276
2.058651026392962
1.9960899315738023
1.9266862170087975
1.8514173998044965
1.772238514173998
1.6950146627565983
1.6207233626588464
1.5591397849462365
1.5073313782991202
1.456500488758553
1.4105571847507332
1.370478983382209
1.33822091886608
1.310850439882698
1.2883675464320623
