ppg
1.0175953079178883
1.0166177908113392
1.0175953079178883
1.0205278592375366
1.0254154447702837
1.032258064516129
1.0410557184750733
1.050830889540567
1.06158357771261
1.0713587487781036
1.0801564027370478
1.0879765395894427
1.0957966764418376
1.1026392961876832
1.1085043988269794
1.1133919843597262
1.1163245356793745
1.1173020527859236
1.115347018572825
1.1143695014662756
1.1133919843597262
1.1094819159335287
1.10752688172043
1.1143695014662756
1.1378299120234605
1.1867057673509287
1.2688172043010753
1.388074291300098
1.543499511241447
1.7311827956989247
1.9403714565004888
2.126099706744868
2.29227761485826
2.464320625610948
2.6177908113391983
2.73802541544477
2.819159335288368
2.859237536656892
2.863147605083089
2.835777126099707
2.78494623655914
2.717497556207233
2.6373411534701856
2.5513196480938416
2.4701857282502444
2.3929618768328447
2.310850439882698
2.228739002932551
2.1495601173020527
2.074291300097752
2.005865102639296
1.9442815249266865
1.8905180840664717
1.842619745845552
1.7996089931573802
1.7595307917888563
1.7253176930596286
1.694037145650049
1.6598240469208212
1.6256109481915937
1.5943304007820136
1.5650048875855327
1.541544477028348
1.525904203323558
1.5180840664711632
1.5180840664711632
1.525904203323558
1.5405669599217986
1.5610948191593352
1.581622678396872
1.6021505376344083
1.6265884652981428
1.6500488758553276
1.6705767350928642
1.686217008797654
1.6959921798631477
1.6979472140762464
1.6930596285434996
1.6813294232649072
1.6637341153470186
1.6422287390029326
1.619745845552297
1.5972629521016617
1.5698924731182795
1.5386119257087
1.5063538611925709
1.4731182795698925
1.439882697947214
1.4076246334310851
1.375366568914956
1.3450635386119256
1.3147605083088951
1.2864125122189638
1.2590420332355816
1.2375366568914956
1.219941348973607
1.2003910068426198
1.1798631476050832
1.160312805474096
1.1407624633431086
1.1231671554252198
1.1065493646138806
1.0909090909090908
1.0762463343108504
1.0635386119257086
1.050830889540567
1.043010752688172
1.0391006842619743
1.0342130987292275
1.0303030303030305
1.0273704789833822
1.0263929618768328
1.0263929618768328
1.029325513196481
1.0332355816226784
1.0391006842619743
1.0478983382209188
1.0576735092864125
1.067448680351906
1.078201368523949
1.0879765395894427
1.096774193548387
1.104594330400782
1.1114369501466277
1.1173020527859236
1.1221896383186705
1.126099706744868
1.1290322580645162
1.1290322580645162
1.1270772238514175
1.1231671554252198
1.121212121212121
1.1221896383186705
1.1290322580645162
1.1495601173020529
1.1945259042033236
1.270772238514174
1.3841642228739004
1.5347018572825024
1.718475073313783
1.924731182795699
2.1407624633431084
2.3489736070381237
2.5347018572825024
2.6725317693059627
2.768328445747801
2.841642228739003
2.8826979472140764
2.8905180840664717
2.8690127077223853
2.823069403714565
2.758553274682307
2.681329423264907
2.5972629521016617
2.509286412512219
2.420332355816227
2.3411534701857284
2.267839687194526
2.1925708699902247
2.120234604105572
2.053763440860215
1.992179863147605
1.9364613880742916
1.8875855327468232
1.8435972629521016
1.8025415444770283
1.7634408602150538
1.726295210166178
1.6901270772238517
1.6598240469208212
1.6334310850439884
1.607038123167155
1.5835777126099706
1.5669599217986314
1.5571847507331378
1.5562072336265884
1.564027370478983
1.5786901270772238
1.5992179863147604
1.6236559139784943
1.6500488758553276
1.672531769305963
1.6920821114369502
1.710654936461388
1.726295210166178
1.7360703812316716
1.739980449657869
1.737047898338221
1.7272727272727273
1.710654936461388
1.689149560117302
1.6637341153470186
1.6344086021505375
1.603128054740958
1.5757575757575757
1.5493646138807429
1.521016617790811
1.490713587487781
1.4594330400782014
1.4291300097751711
1.3988269794721409
1.3695014662756595
1.3421309872922775
1.3157380254154447
1.289345063538612
1.2639296187683284
1.2434017595307918
1.2258064516129032
1.2052785923753666
1.18475073313783
1.1652003910068427
1.1466275659824048
1.1300097751710656
1.1143695014662756
1.1006842619745845
1.088954056695992
1.0791788856304985
1.0703812316715542
1.0654936461388074
1.064516129032258
1.0625610948191593
1.06158357771261
1.0606060606060606
1.0606060606060606
1.0635386119257086
1.0684261974584557
1.0742913000977516
1.0811339198435972
1.0899315738025417
1.099706744868035
1.1094819159335287
1.1192570869990224
1.1280547409579669
1.1358748778103618
1.141739980449658
1.1466275659824048
1.1505376344086022
1.1534701857282503
1.155425219941349
1.1544477028347997
1.1505376344086022
1.144672531769306
1.1397849462365592
1.1407624633431086
1.152492668621701
1.181818181818182
1.2394916911045943
1.332355816226784
1.4652981427174976
1.6363636363636365
1.8387096774193548
2.059628543499511
2.2844574780058653
2.496578690127077
2.6823069403714563
2.8299120234604107
2.9257086999022484
2.9775171065493646
3.0009775171065494
2.9931573802541545
2.956989247311828
2.897360703812317
2.820136852394917
2.730205278592375
2.634408602150537
2.536656891495601
2.4379276637341154
2.3421309872922778
2.259042033235582
2.185728250244379
2.1114369501466275
2.042033235581622
1.9775171065493649
1.9188660801564028
1.8670576735092863
1.8191593352883677
1.7741935483870968
1.732160312805474
1.6920821114369502
1.6549364613880744
1.6217008797653958
1.595307917888563
1.5747800586510263
1.5581622678396871
1.5493646138807429
1.5503421309872922
1.5610948191593352
1.5806451612903225
1.6080156402737047
1.6412512218963833
1.678396871945259
1.7145650048875856
1.7487781036168133
1.775171065493646
1.7947214076246334
1.8113391984359728
1.822091886608016
1.825024437927664
1.8201368523949168
1.8084066471163245
1.7888563049853372
1.7634408602150538
1.7341153470185728
1.7008797653958945
1.6656891495601174
1.6285434995112416
1.595307917888563
1.5650048875855327
1.5317693059628543
1.4975562072336266
1.4633431085043989
1.4301075268817205
1.396871945259042
1.3655913978494625
1.3362658846529814
1.3088954056695992
1.2825024437927663
1.2570869990224829
1.2375366568914956
1.2218963831867058
1.2043010752688172
1.1857282502443791
1.1691104594330402
1.1534701857282503
1.13880742913001
1.126099706744868
1.115347018572825
1.1055718475073313
1.0977517106549364
1.0909090909090908
1.086021505376344
1.0850439882697946
1.0869990224828934
1.0879765395894427
1.0899315738025417
1.093841642228739
1.0987292277614855
1.1055718475073313
1.1143695014662756
1.1241446725317692
1.1329423264907137
1.142717497556207
1.1515151515151516
1.160312805474096
1.1681329423264908
1.1730205278592376
1.176930596285435
1.1788856304985338
1.1798631476050832
1.1779081133919844
1.173998044965787
1.1671554252199414
1.160312805474096
1.1573802541544478
1.164222873900293
1.1886608015640274
1.2287390029325511
1.2913000977517106
1.3958944281524928
1.544477028347996
1.732160312805474
1.9501466275659824
2.1847507331378297
2.419354838709677
2.636363636363636
2.8211143695014664
2.962854349951124
3.0576735092864125
3.102639296187683
3.10850439882698
3.085043988269794
3.034213098729228
2.961876832844575
2.8729227761485827
2.774193548387097
2.670576735092864
2.565982404692082
2.463343108504399
2.364613880742913
2.271749755620724
2.1867057673509285
2.117302052785924
2.0576735092864125
2.0009775171065494
1.948191593352884
1.9012707722385145
1.858260019550342
1.8172043010752688
1.7771260997067448
1.739980449657869
1.704789833822092
1.672531769305963
1.6451612903225807
1.6256109481915937
1.6138807429130009
1.6080156402737047
1.6109481915933528
1.6226783968719452
1.6422287390029326
1.667644183773216
1.6979472140762464
1.7311827956989247
1.7653958944281525
1.796676441837732
1.8240469208211143
1.8455522971652003
1.8602150537634408
1.8670576735092863
1.868035190615836
1.8621700879765395
1.8484848484848484
1.827956989247312
1.8025415444770283
1.772238514173998
1.7380254154447703
1.7018572825024438
1.6637341153470186
1.624633431085044
1.590420332355816
1.560117302052786
1.525904203323558
1.4897360703812317
1.4545454545454546
1.4203323558162269
1.388074291300098
1.356793743890518
1.327468230694037
1.300097751710655
1.273704789833822
1.249266862170088
1.2267839687194526
1.2101661779081134
1.1964809384164223
1.181818181818182
1.1671554252199414
1.1495601173020529
1.1348973607038124
1.126099706744868
1.118279569892473
1.1124144672531768
1.10752688172043
1.104594330400782
1.1016617790811338
1.1026392961876832
1.1055718475073313
1.1085043988269794
1.1133919843597262
1.1192570869990224
1.126099706744868
1.1348973607038124
1.1456500488758554
1.1564027370478984
1.1671554252199414
1.1759530791788857
1.18475073313783
1.1925708699902249
1.2003910068426198
1.206256109481916
1.209188660801564
1.1935483870967742
1.1671554252199414
1.1505376344086022
1.13880742913001
1.1319648093841643
1.133919843597263
1.1505376344086022
1.1906158357771262
1.262952101661779
1.3519061583577712
1.466275659824047
1.629521016617791
1.83088954056696
2.0547409579667644
2.2844574780058653
2.5024437927663734
2.6930596285435
2.844574780058651
2.951124144672532
3.0117302052785924
3.029325513196481
3.013685239491691
2.973607038123167
2.9100684261974585
2.8299120234604107
2.7390029325513194
2.6422287390029324
2.5434995112414467
2.4457478005865103
2.350928641251222
2.260997067448681
2.1788856304985336
2.103616813294233
2.0361681329423265
1.9804496578690127
1.9335288367546437
1.8885630498533723
1.8465298142717497
1.8074291300097751
1.76930596285435
1.7331378299120237
1.6979472140762464
1.6637341153470186
1.6314760508308896
1.6041055718475072
1.5826001955034212
1.5679374389051808
1.560117302052786
1.5581622678396871
1.564027370478983
1.5777126099706744
1.5962854349951123
1.6187683284457477
1.6441837732160314
1.6686217008797657
1.6911045943304008
1.710654936461388
1.7243401759530792
1.732160312805474
1.7341153470185728
1.729227761485826
1.718475073313783
1.7028347996089932
1.683284457478006
1.6588465298142718
1.6304985337243405
1.6001955034213098
1.5669599217986314
1.5327468230694037
1.4975562072336266
1.4613880742913
1.4301075268817205
1.4007820136852396
1.3695014662756595
1.3294232649071358
1.2932551319648091
1.267839687194526
1.241446725317693
1.2140762463343109
1.1886608015640274
1.164222873900293
1.1407624633431086
1.1192570869990224
1.099706744868035
1.0850439882697946
1.0733137829912025
1.0596285434995112
1.04594330400782
1.0332355816226784
1.021505376344086
1.0127077223851415
1.0048875855327468
0.9990224828934506
0.9951124144672532
0.9931573802541545
0.9931573802541545
0.997067448680352
1.0039100684261977
1.010752688172043
1.018572825024438
1.0303030303030305
1.0410557184750733
1.0488758553274682
1.056695992179863
1.067448680351906
1.0772238514173995
1.0840664711632453
1.0918866080156402
1.0987292277614855
1.1055718475073313
1.110459433040078
1.110459433040078
1.10752688172043
1.1016617790811338
1.093841642228739
1.088954056695992
1.093841642228739
1.115347018572825
1.1622678396871946
1.2443792766373412
1.3655913978494625
1.498533724340176
1.651026392961877
1.847507331378299
2.0684261974584555
2.29227761485826
2.501466275659824
2.6803519061583576
2.820136852394917
2.9149560117302054
2.963831867057673
2.9550342130987293
2.898338220918866
2.8475073313782997
2.8054740957966766
2.742913000977517
2.66177908113392
2.570869990224829
2.47702834799609
2.383186705767351
2.29227761485826
2.2052785923753664
2.1251221896383186
2.037145650048876
1.962854349951124
1.9130009775171064
1.869012707722385
1.8211143695014664
1.7683284457478006
1.7233626588465298
1.6920821114369502
1.6588465298142718
1.6158357771260996
1.5865102639296187
1.560117302052786
1.5327468230694037
1.5161290322580645
1.5073313782991202
1.5073313782991202
1.517106549364614
1.5268817204301075
1.5454545454545454
1.576735092864125
1.606060606060606
1.6344086021505375
1.6588465298142718
1.6774193548387095
1.6901270772238517
1.6959921798631477
1.6950146627565983
1.689149560117302
1.678396871945259
1.66177908113392
1.640273704789834
1.6138807429130009
1.5835777126099706
1.5513196480938416
1.5180840664711632
1.4926686217008798
1.4604105571847508
1.4173998044965788
1.3782991202346042
1.3411534701857282
1.3118279569892473
1.2864125122189638
1.2590420332355816
1.2316715542521994
1.2043010752688172
1.1779081133919844
1.1534701857282503
1.130987292277615
1.1094819159335287
1.088954056695992
1.0703812316715542
1.0527859237536656
1.040078201368524
1.0303030303030305
1.0195503421309873
1.0087976539589445
1.0
0.9921798631476052
0.9853372434017597
0.9804496578690128
0.9765395894428152
0.9745845552297164
0.9736070381231672
0.975562072336266
0.981427174975562
0.989247311827957
0.9980449657869012
1.0087976539589445
1.018572825024438
1.029325513196481
1.0391006842619743
1.0488758553274682
1.056695992179863
1.0635386119257086
1.0703812316715542
1.075268817204301
1.0791788856304985
1.083088954056696
1.086021505376344
1.0840664711632453
1.078201368523949
1.0713587487781036
1.0664711632453567
1.0713587487781036
1.093841642228739
1.1436950146627567
1.2287390029325511
1.3519061583577712
1.5151515151515151
1.6813294232649072
1.855327468230694
2.0635386119257086
2.2795698924731185
2.4838709677419355
2.659824046920821
2.7966764418377323
2.889540566959922
2.93841642228739
2.9472140762463344
2.921798631476051
2.8690127077223853
2.7966764418377323
2.720430107526881
2.6402737047898337
2.549364613880743
2.455522971652004
2.361681329423265
2.269794721407625
2.1837732160312804
2.102639296187683
2.0283479960899315
1.9608993157380252
1.8963831867057677
1.836754643206256
1.7898338220918866
1.750733137829912
1.7116324535679377
1.6735092864125125
1.6373411534701858
1.603128054740958
1.5718475073313782
1.544477028347996
1.52297165200391
1.5063538611925709
1.495601173020528
1.4936461388074291
1.500488758553275
1.5112414467253177
1.5249266862170088
1.5454545454545454
1.5698924731182795
1.5962854349951123
1.6226783968719452
1.6451612903225807
1.6637341153470186
1.6764418377321604
1.683284457478006
1.6842619745845553
1.6774193548387095
1.6666666666666667
1.6520039100684265
1.632453567937439
1.6080156402737047
1.5806451612903225
1.5513196480938416
1.520039100684262
1.487781036168133
1.4545454545454546
1.4203323558162269
1.3870967741935485
1.35386119257087
1.321603128054741
1.295210166177908
1.2717497556207231
1.2473118279569892
1.2218963831867058
1.1974584555229717
1.173998044965787
1.152492668621701
1.1319648093841643
1.1133919843597262
1.0957966764418376
1.0791788856304985
1.0635386119257086
1.053763440860215
1.04594330400782
1.0371456500488758
1.0283479960899315
1.0205278592375366
1.013685239491691
1.007820136852395
1.0039100684261977
1.002932551319648
1.002932551319648
1.0048875855327468
1.0087976539589445
1.013685239491691
1.0205278592375366
1.0303030303030305
1.040078201368524
1.0498533724340176
1.0596285434995112
1.0694037145650048
1.078201368523949
1.0850439882697946
1.0909090909090908
1.0957966764418376
1.099706744868035
1.1016617790811338
1.1036168132942326
1.104594330400782
1.1016617790811338
1.096774193548387
1.0918866080156402
1.0928641251221896
1.1055718475073313
1.1397849462365592
1.203323558162268
1.3020527859237536
1.4379276637341154
1.6099706744868034
1.8084066471163245
1.991202346041056
2.1622678396871944
2.346041055718475
2.5190615835777126
2.665689149560117
2.7751710654936463
2.844574780058651
2.873900293255132
2.868035190615836
2.832844574780059
2.774193548387097
2.699902248289345
2.6236559139784945
2.5454545454545454
2.458455522971652
2.367546432062561
2.2766373411534704
2.188660801564027
2.1055718475073317
2.027370478983382
1.956989247311828
1.8934506353861196
1.835777126099707
1.7839687194525904
1.737047898338221
1.6989247311827955
1.6656891495601174
1.6304985337243405
1.5962854349951123
1.564027370478983
1.5356793743890518
1.512218963831867
1.4936461388074291
1.4838709677419355
1.4819159335288368
1.487781036168133
1.500488758553275
1.5161290322580645
1.5347018572825024
1.5591397849462365
1.5865102639296187
1.6129032258064515
1.6373411534701858
1.6588465298142718
1.6744868035190617
1.683284457478006
1.6852394916911049
1.6813294232649072
1.6705767350928642
1.653958944281525
1.6363636363636365
1.6158357771260996
1.590420332355816
1.5620723362658846
1.5317693059628543
1.500488758553275
1.4682306940371457
1.4349951124144673
1.4027370478983383
1.3695014662756595
1.3372434017595307
1.305962854349951
1.2805474095796676
1.2580645161290325
1.2336265884652982
1.209188660801564
1.18475073313783
1.160312805474096
1.1378299120234605
1.1173020527859236
1.0977517106549364
1.0801564027370478
1.064516129032258
1.0498533724340176
1.0371456500488758
1.029325513196481
1.024437927663734
1.018572825024438
1.0127077223851415
1.0068426197458455
1.0019550342130987
0.9990224828934506
0.9980449657869012
0.9980449657869012
1.0
1.0039100684261977
1.010752688172043
1.0195503421309873
1.0303030303030305
1.040078201368524
1.0498533724340176
1.0596285434995112
1.067448680351906
1.0742913000977516
1.0811339198435972
1.0869990224828934
1.0918866080156402
1.0957966764418376
1.0987292277614855
1.1006842619745845
1.1016617790811338
1.0987292277614855
1.0928641251221896
1.0879765395894427
1.0879765395894427
1.1006842619745845
1.133919843597263
1.1964809384164223
1.295210166177908
1.4320625610948192
1.6041055718475072
1.8035190615835777
1.9872922776148585
2.1593352883675463
2.345063538611926
2.5190615835777126
2.6666666666666665
2.777126099706745
2.84652981427175
2.877810361681329
2.873900293255132
2.8406647116324537
2.7839687194525906
2.7116324535679373
2.636363636363636
2.558162267839687
2.4711632453567938
2.380254154447703
2.289345063538612
2.20039100684262
2.115347018572825
2.0361681329423265
1.963831867057673
1.8983382209188664
1.839687194525904
1.7869012707722385
1.7390029325513197
1.6989247311827955
1.6637341153470186
1.6275659824046922
1.5913978494623655
1.5581622678396871
1.5288367546432062
1.5053763440860215
1.487781036168133
1.47702834799609
1.474095796676442
1.479960899315738
1.4936461388074291
1.5102639296187683
1.5298142717497556
1.5562072336265884
1.585532746823069
1.6158357771260996
1.643206256109482
1.6666666666666667
1.6842619745845553
1.6950146627565983
1.6979472140762464
1.6950146627565983
1.6852394916911049
1.6695992179863148
1.6529814271749756
1.6334310850439884
1.608993157380254
1.5796676441837731
1.5532746823069403
1.5278592375366569
1.4975562072336266
1.4633431085043989
1.4281524926686218
1.392961876832845
1.359726295210166
1.327468230694037
1.3020527859237536
1.2795698924731185
1.2551319648093842
1.23069403714565
1.2072336265884651
1.18475073313783
1.164222873900293
1.144672531769306
1.126099706744868
1.1085043988269794
1.0928641251221896
1.078201368523949
1.064516129032258
1.0557184750733135
1.0488758553274682
1.0420332355816226
1.0361681329423265
1.0312805474095796
1.0273704789833822
1.0254154447702837
1.0254154447702837
1.0273704789833822
1.0303030303030305
1.035190615835777
1.0410557184750733
1.0488758553274682
1.0586510263929618
1.0684261974584557
1.0791788856304985
1.0909090909090908
1.1016617790811338
1.1124144672531768
1.1221896383186705
1.1300097751710656
1.1358748778103618
1.1397849462365592
1.141739980449658
1.141739980449658
1.1407624633431086
1.1397849462365592
1.1368523949169111
1.1319648093841643
1.130987292277615
1.1407624633431086
1.1681329423264908
1.2218963831867058
1.310850439882698
1.4389051808406648
1.6050830889540566
1.8025415444770283
1.9872922776148585
2.164222873900293
2.360703812316716
2.550342130987292
2.7145650048875853
2.843597262952102
2.932551319648094
2.979472140762464
2.9872922776148583
2.962854349951124
2.911045943304008
2.8396871945259043
2.7536656891495603
2.668621700879765
2.5835777126099706
2.490713587487781
2.396871945259042
2.304985337243402
2.2160312805474094
2.131964809384164
2.0547409579667644
1.9853372434017595
1.9237536656891496
1.868035190615836
1.8172043010752688
1.775171065493646
1.7380254154447703
1.6989247311827955
1.6608015640273706
1.624633431085044
1.590420332355816
1.560117302052786
1.5356793743890518
1.5180840664711632
1.5073313782991202
1.5063538611925709
1.5141739980449658
1.5298142717497556
1.5483870967741935
1.5708699902248289
1.5992179863147604
1.6304985337243405
1.66177908113392
1.6901270772238517
1.7126099706744868
1.729227761485826
1.7390029325513197
1.7409579667644184
1.7360703812316716
1.7243401759530792
1.7096774193548387
1.6920821114369502
1.6686217008797657
1.6412512218963833
1.6099706744868034
1.576735092864125
1.542521994134897
1.5063538611925709
1.4701857282502444
1.4349951124144673
1.3998044965786902
1.3665689149560116
1.335288367546432
1.3098729227761483
1.2873900293255132
1.262952101661779
1.238514173998045
1.2150537634408602
1.1925708699902249
1.1700879765395895
1.1485826001955035
1.1270772238514175
1.10752688172043
1.088954056695992
1.072336265884653
1.06158357771261
1.053763440860215
1.04594330400782
1.0381231671554252
1.032258064516129
1.0273704789833822
1.0234604105571847
1.021505376344086
1.0205278592375366
1.021505376344086
1.024437927663734
1.029325513196481
1.035190615835777
1.043010752688172
1.0518084066471165
1.06158357771261
1.0713587487781036
1.0801564027370478
1.0879765395894427
1.0948191593352885
1.1006842619745845
1.1065493646138806
1.1114369501466277
1.115347018572825
1.1173020527859236
1.1192570869990224
1.1202346041055715
1.1163245356793745
1.110459433040078
1.1065493646138806
1.1124144672531768
1.1348973607038124
1.181818181818182
1.262952101661779
1.383186705767351
1.543499511241447
1.737047898338221
1.921798631476051
2.101661779081134
2.303030303030303
2.5004887585532747
2.673509286412512
2.8103616813294234
2.903225806451613
2.952101661779081
2.959921798631476
2.932551319648094
2.877810361681329
2.801564027370479
2.7126099706744866
2.624633431085044
2.536656891495601
2.4408602150537635
2.343108504398827
2.2453567937438903
2.1515151515151514
2.0635386119257086
1.9833822091886608
1.911045943304008
1.8455522971652003
1.7878787878787878
1.7360703812316716
1.694037145650049
1.656891495601173
1.6187683284457477
1.5826001955034212
1.5483870967741935
1.517106549364614
1.490713587487781
1.4711632453567938
1.4604105571847508
1.4594330400782014
1.4682306940371457
1.4868035190615836
1.512218963831867
1.5386119257087
1.5679374389051808
1.603128054740958
1.640273704789834
1.6764418377321604
1.7086999022482894
1.7360703812316716
1.7556207233626588
1.7683284457478006
1.772238514173998
1.7683284457478006
1.7565982404692082
1.7409579667644184
1.7223851417399805
1.696969696969697
1.6666666666666667
1.632453567937439
1.5972629521016617
1.560117302052786
1.52297165200391
1.487781036168133
1.4535679374389052
1.4203323558162269
1.388074291300098
1.356793743890518
1.3313782991202343
1.3088954056695992
1.2834799608993157
1.2590420332355816
1.2346041055718475
1.2111436950146628
1.1896383186705768
1.1700879765395895
1.152492668621701
1.1368523949169111
1.1231671554252198
1.110459433040078
1.1016617790811338
1.0957966764418376
1.088954056695992
1.083088954056696
1.1270772238514175
1.1358748778103618
1.1652003910068427
1.2238514173998043
1.3206256109481915
1.457478005865103
1.6334310850439884
1.8406647116324533
2.0664711632453567
2.2639296187683287
2.436950146627566
2.6129032258064515
2.766373411534702
2.8826979472140764
2.956989247311828
2.988269794721408
2.9804496578690127
2.941348973607038
2.875855327468231
2.791788856304985
2.6959921798631474
2.6041055718475072
2.5141739980449658
2.418377321603128
2.321603128054741
2.2267839687194524
2.1378299120234603
2.0557184750733137
1.981427174975562
1.9149560117302051
1.855327468230694
