ppg
1.981427174975562
1.963831867057673
1.946236559139785
1.9296187683284456
1.9120234604105573
1.8934506353861196
1.8748778103616808
1.8543499511241448
1.8328445747800584
1.8103616813294232
1.7878787878787878
1.7634408602150538
1.7380254154447703
1.7135874877810362
1.6901270772238517
1.6686217008797657
1.653958944281525
1.6451612903225807
1.640273704789834
1.6451612903225807
1.6627565982404693
1.696969696969697
1.7497556207233629
1.8201368523949168
1.902248289345064
1.997067448680352
2.101661779081134
2.209188660801564
2.3010752688172045
2.3812316715542523
2.4652981427174976
2.5454545454545454
2.6158357771261
2.673509286412512
2.718475073313783
2.7497556207233624
2.771260997067449
2.782013685239492
2.7839687194525906
2.777126099706745
2.758553274682307
2.732160312805474
2.697947214076246
2.653958944281525
2.6050830889540566
2.552297165200391
2.4975562072336266
2.442815249266862
2.389051808406647
2.335288367546432
2.2825024437927666
2.228739002932551
2.1788856304985336
2.1407624633431084
2.110459433040078
2.080156402737048
2.053763440860215
2.0332355816226784
2.0146627565982405
1.9980449657869013
1.9824046920821117
1.9667644183773216
1.949169110459433
1.9305962854349952
1.9100684261974583
1.8866080156402736
1.868035190615836
1.8523949169110456
1.828934506353861
1.8035190615835777
1.7839687194525904
1.7634408602150538
1.7429130009775171
1.7223851417399805
1.7008797653958945
1.6744868035190617
1.6451612903225807
1.6138807429130009
1.585532746823069
1.563049853372434
1.5386119257087
1.5141739980449658
1.4926686217008798
1.478983382209189
1.4750733137829912
1.4838709677419355
1.5053763440860215
1.541544477028348
1.5923753665689149
1.6578690127077225
1.7350928641251222
1.8074291300097751
1.881720430107527
1.970674486803519
2.0664711632453567
2.164222873900293
2.2580645161290325
2.3440860215053765
2.420332355816227
2.4819159335288368
2.5317693059628543
2.570869990224829
2.5992179863147604
2.6148582600195502
2.622678396871945
2.6265884652981426
2.6236559139784945
2.611925708699902
2.5884652981427174
2.5542521994134897
2.5112414467253177
2.462365591397849
2.406647116324536
2.346041055718475
2.2854349951124147
2.2238514173998043
2.16911045943304
2.121212121212121
2.074291300097752
2.0303030303030303
1.989247311827957
1.95405669599218
1.9227761485826005
1.8934506353861196
1.866080156402737
1.844574780058651
1.827956989247312
1.8162267839687196
1.8103616813294232
1.8113391984359728
1.8132942326490715
1.812316715542522
1.8084066471163245
1.8035190615835777
1.7976539589442817
1.7898338220918866
1.7790811339198436
1.7663734115347018
1.7517106549364614
1.7341153470185728
1.7145650048875856
1.696969696969697
1.6774193548387095
1.6549364613880744
1.632453567937439
1.607038123167155
1.5806451612903225
1.5571847507331378
1.5386119257087
1.52297165200391
1.509286412512219
1.5063538611925709
1.5180840664711632
1.541544477028348
1.576735092864125
1.6304985337243405
1.7057673509286413
1.7986314760508308
1.9012707722385145
2.010752688172043
2.1221896383186705
2.2297165200391005
2.3304007820136854
2.4222873900293256
2.504398826979472
2.5669599217986314
2.6158357771261
2.6608015640273703
2.6989247311827955
2.730205278592375
2.752688172043011
2.763440860215054
2.764418377321604
2.7546432062561097
2.7341153470185726
2.705767350928641
2.6715542521994133
2.63049853372434
2.587487781036168
2.541544477028348
2.4916911045943304
2.4389051808406648
2.3851417399804498
2.332355816226784
2.280547409579668
2.228739002932551
2.177908113391984
2.129032258064516
2.0821114369501466
2.0410557184750733
2.010752688172043
1.988269794721408
1.970674486803519
1.9550342130987293
1.9403714565004888
1.927663734115347
1.9159335288367547
1.903225806451613
1.8905180840664717
1.87683284457478
1.86119257086999
1.8435972629521016
1.8240469208211143
1.8074291300097751
1.7927663734115349
1.7732160312805474
1.747800586510264
1.7204301075268815
1.6911045943304008
1.6608015640273706
1.6334310850439884
1.6080156402737047
1.5777126099706744
1.552297165200391
1.5366568914956011
1.5249266862170088
1.5161290322580645
1.509286412512219
1.5131964809384164
1.5288367546432062
1.560117302052786
1.611925708699902
1.683284457478006
1.7683284457478006
1.866080156402737
1.9726295210166176
2.086021505376344
2.201368523949169
2.2991202346041058
2.3822091886608017
2.466275659824047
2.5464320625610948
2.6177908113391983
2.677419354838709
2.724340175953079
2.7595307917888565
2.7859237536656893
2.8025415444770285
2.811339198435973
2.812316715542522
2.803519061583578
2.787878787878788
2.764418377321604
2.735092864125122
2.699902248289345
2.656891495601173
2.606060606060606
2.549364613880743
2.489736070381232
2.429130009775171
2.36950146627566
2.313782991202346
2.26197458455523
2.218963831867057
2.1837732160312804
2.1485826001955037
2.1163245356793743
2.0879765395894427
2.065493646138808
2.046920821114369
2.0303030303030303
2.018572825024438
2.0127077223851417
2.006842619745845
1.997067448680352
1.986314760508309
1.9765395894428155
1.962854349951124
1.945259042033236
1.9266862170087975
1.9071358748778104
1.8866080156402736
1.866080156402737
1.847507331378299
1.8299120234604105
1.8103616813294232
1.790811339198436
1.7702834799608993
1.7517106549364614
1.732160312805474
1.7086999022482894
1.6813294232649072
1.6559139784946235
1.6363636363636365
1.6207233626588464
1.6129032258064515
1.6177908113391983
1.6412512218963833
1.6842619745845553
1.7448680351906158
1.8093841642228736
1.8807429130009776
1.9736070381231672
2.0762463343108504
2.179863147605083
2.2795698924731185
2.3743890518084068
2.4594330400782014
2.532746823069404
2.593352883675464
2.6392961876832843
2.670576735092864
2.6901270772238512
2.695014662756598
2.6901270772238512
2.6803519061583576
2.665689149560117
2.64613880742913
2.6207233626588464
2.587487781036168
2.547409579667644
2.501466275659824
2.450635386119257
2.3958944281524928
2.337243401759531
2.2844574780058653
2.233626588465298
2.176930596285435
2.121212121212121
2.071358748778104
2.0254154447702835
1.9833822091886608
1.9472140762463344
1.9159335288367547
1.858260019550342
1.790811339198436
1.7526881720430108
1.7311827956989247
1.718475073313783
1.7086999022482894
1.6989247311827955
1.6881720430107527
1.6735092864125125
1.6559139784946235
1.6383186705767352
1.619745845552297
1.5992179863147604
1.5777126099706744
1.5562072336265884
1.5356793743890518
1.521016617790811
1.5053763440860215
1.4848484848484849
1.4623655913978495
1.4379276637341154
1.4115347018572826
1.380254154447703
1.348973607038123
1.3225806451612905
1.300097751710655
1.2834799608993157
1.278592375366569
1.2873900293255132
1.305962854349951
1.3372434017595307
1.3900293255131966
1.4623655913978495
1.5503421309872922
1.6500488758553276
1.7546432062561097
1.86119257086999
1.9667644183773216
2.067448680351906
2.160312805474096
2.243401759530792
2.3059628543499517
2.3548387096774195
2.40078201368524
2.441837732160313
2.4731182795698925
2.493646138807429
2.505376344086021
2.5083088954056696
2.5034213098729228
2.4916911045943304
2.4711632453567938
2.441837732160313
2.403714565004888
2.363636363636364
2.3196480938416424
2.2658846529814274
2.206256109481916
2.1407624633431084
2.0762463343108504
2.01564027370479
1.9589442815249267
1.90811339198436
1.865102639296188
1.828934506353861
1.7986314760508308
1.7732160312805474
1.7517106549364614
1.732160312805474
1.7174975562072337
1.7067448680351909
1.6979472140762464
1.6911045943304008
1.6842619745845553
1.6774193548387095
1.667644183773216
1.6529814271749756
1.6363636363636365
1.6217008797653958
1.6080156402737047
1.5913978494623655
1.573802541544477
1.555229716520039
1.5366568914956011
1.5161290322580645
1.4936461388074291
1.469208211143695
1.444770283479961
1.4193548387096775
1.392961876832845
1.3655913978494625
1.3450635386119256
1.3304007820136852
1.3176930596285434
1.3147605083088951
1.321603128054741
1.3401759530791788
1.3782991202346042
1.436950146627566
1.5161290322580645
1.6109481915933528
1.7145650048875856
1.825024437927664
1.924731182795699
2.0146627565982405
2.110459433040078
2.206256109481916
2.2952101661779083
2.3743890518084068
2.442815249266862
2.4995112414467253
2.541544477028348
2.570869990224829
2.5884652981427174
2.5962854349951123
2.595307917888563
2.5865102639296187
2.570869990224829
2.550342130987292
2.525904203323558
2.4946236559139785
2.455522971652004
2.4086021505376345
2.3548387096774195
2.2961876832844577
2.2355816226783967
2.174975562072336
2.1192570869990224
2.074291300097752
2.034213098729228
1.991202346041056
1.949169110459433
1.9130009775171064
1.881720430107527
1.8533724340175952
1.8299120234604105
1.8113391984359728
1.7956989247311828
1.7820136852394917
1.7683284457478006
1.7556207233626588
1.7438905180840665
1.7341153470185728
1.7243401759530792
1.7086999022482894
1.6911045943304008
1.6774193548387095
1.664711632453568
1.6520039100684265
1.6363636363636365
1.6187683284457477
1.5992179863147604
1.5747800586510263
1.5513196480938416
1.5288367546432062
1.5034213098729228
1.4760508308895406
1.447702834799609
1.4213098729227762
1.396871945259042
1.3782991202346042
1.3685239491691104
1.3724340175953078
1.391006842619746
1.4291300097751711
1.487781036168133
1.552297165200391
1.6236559139784943
1.7145650048875856
1.8191593352883677
1.9315738025415443
2.0449657869012707
2.1524926686217007
2.2521994134897363
2.345063538611926
2.4281524926686218
2.498533724340176
2.555229716520039
2.593352883675464
2.6177908113391983
2.6373411534701856
2.6510263929618767
2.653958944281525
2.64613880742913
2.627565982404692
2.5992179863147604
2.563049853372434
2.520039100684262
2.469208211143695
2.412512218963832
2.350928641251222
2.294232649071359
2.2404692082111435
2.1837732160312804
2.1300097751710654
2.081133919843597
2.034213098729228
1.988269794721408
1.948191593352884
1.9149560117302051
1.8856304985337244
1.8602150537634408
1.839687194525904
1.8240469208211143
1.8113391984359728
1.7986314760508308
1.7859237536656891
1.772238514173998
1.7546432062561097
1.7380254154447703
1.7233626588465298
1.7067448680351909
1.689149560117302
1.6705767350928642
1.6520039100684265
1.632453567937439
1.616813294232649
1.6011730205278591
1.5786901270772238
1.5532746823069403
1.5278592375366569
1.5024437927663734
1.4750733137829912
1.4457478005865103
1.4173998044965788
1.3900293255131966
1.3655913978494625
1.3470185728250244
1.3372434017595307
1.3391984359726294
1.35386119257087
1.3851417399804498
1.434017595307918
1.501466275659824
1.58455522971652
1.678396871945259
1.7790811339198436
1.8826979472140764
1.9853372434017595
2.083088954056696
2.1730205278592374
2.243401759530792
2.2991202346041058
2.3528836754643208
2.39980449657869
2.439882697947214
2.469208211143695
2.4887585532746823
2.498533724340176
2.498533724340176
2.490713587487781
2.474095796676442
2.447702834799609
2.4173998044965788
2.3822091886608017
2.3391984359726297
2.2854349951124147
2.2267839687194524
2.172043010752688
2.118279569892473
2.0625610948191597
2.0097751710654936
1.9618768328445748
1.916911045943304
1.8748778103616808
1.8387096774193548
1.8132942326490715
1.7956989247311828
1.7790811339198436
1.7644183773216031
1.7517106549364614
1.7409579667644184
1.729227761485826
1.7194525904203324
1.7116324535679377
1.7018572825024438
1.6901270772238517
1.6793743890518085
1.6695992179863148
1.6598240469208212
1.6490713587487782
1.6383186705767352
1.6275659824046922
1.616813294232649
1.607038123167155
1.5962854349951123
1.58455522971652
1.5698924731182795
1.552297165200391
1.533724340175953
1.5180840664711632
1.5034213098729228
1.487781036168133
1.4721407624633431
1.458455522971652
1.4516129032258065
1.456500488758553
1.47702834799609
1.5151515151515151
1.5708699902248289
1.6422287390029326
1.726295210166178
1.8191593352883677
1.9042033235581624
1.9853372434017595
2.074291300097752
2.161290322580645
2.241446725317693
2.314760508308896
2.378299120234604
2.432062561094819
2.47702834799609
2.512218963831867
2.5386119257087
2.558162267839687
2.567937438905181
2.570869990224829
2.5698924731182795
2.5610948191593352
2.544477028347996
2.5180840664711632
2.4858260019550342
2.4486803519061584
2.404692082111437
2.3548387096774195
2.303030303030303
2.251221896383187
2.19941348973607
2.1544477028347995
2.114369501466276
2.071358748778104
2.029325513196481
1.9931573802541545
1.9579667644183771
1.9305962854349952
1.913978494623656
1.902248289345064
1.895405669599218
1.8914956011730208
1.889540566959922
1.8885630498533723
1.8885630498533723
1.8856304985337244
1.881720430107527
1.87683284457478
1.870967741935484
1.8641251221896384
1.8563049853372435
1.8484848484848484
1.8406647116324533
1.8328445747800584
1.8240469208211143
1.81524926686217
1.8084066471163245
1.8035190615835777
1.7956989247311828
1.7849462365591398
1.7741935483870968
1.7663734115347018
1.7605083088954057
1.7595307917888563
1.7634408602150538
1.7761485826001957
1.8113391984359728
1.8523949169110456
1.881720430107527
1.9257086999022484
2.021505376344086
2.12316715542522
2.203323558162268
2.3010752688172045
2.43108504398827
2.548387096774193
2.6295210166177907
2.7155425219941347
2.81622678396872
2.902248289345064
2.959921798631476
3.0175953079178885
3.0684261974584555
3.102639296187683
3.1300097751710654
3.1544477028347995
3.166177908113392
3.16911045943304
3.160312805474096
3.1378299120234603
3.110459433040078
3.0772238514174
3.040078201368524
3.0
2.956011730205278
2.90811339198436
2.8582600195503423
2.809384164222874
2.7614858260019552
2.717497556207233
2.677419354838709
2.6402737047898337
2.608993157380254
2.5835777126099706
2.560117302052786
2.5386119257087
2.520039100684262
2.504398826979472
2.489736070381232
2.4750733137829912
2.4594330400782014
2.443792766373412
2.4281524926686218
2.412512218963832
2.396871945259042
2.380254154447703
2.3626588465298144
2.345063538611926
2.3255131964809386
2.3059628543499517
2.286412512218964
2.2658846529814274
2.2453567937438903
2.2248289345063537
2.2023460410557183
2.174975562072336
2.147605083088954
2.121212121212121
2.0977517106549364
1.4291300097751711
1.4134897360703813
1.3958944281524928
1.3773216031280548
1.356793743890518
1.3304007820136852
1.3020527859237536
1.278592375366569
1.2590420332355816
1.241446725317693
1.23069403714565
1.2267839687194526
1.2346041055718475
1.260019550342131
1.3069403714565004
1.375366568914956
1.4623655913978495
1.5650048875855327
1.678396871945259
1.796676441837732
1.900293255131965
1.9951124144672527
2.096774193548387
2.1955034213098727
2.2873900293255134
2.3685239491691106
2.4359726295210167
2.489736070381232
2.529814271749756
2.558162267839687
2.5718475073313782
2.572825024437928
2.5640273704789838
2.5454545454545454
2.5190615835777126
2.484848484848485
2.443792766373412
2.40078201368524
2.3519061583577714
2.2961876832844577
2.239491691104594
2.1818181818181817
2.120234604105572
2.0547409579667644
1.989247311827957
1.9335288367546437
1.8836754643206255
1.833822091886608
1.7859237536656891
1.7429130009775171
1.70772238514174
1.6803519061583578
1.6608015640273706
1.6471163245356797
1.6363636363636365
1.6275659824046922
1.6187683284457477
1.6109481915933528
1.6011730205278591
1.5884652981427174
1.5728250244379276
1.5532746823069403
1.5317693059628543
1.509286412512219
1.4887585532746823
1.4701857282502444
1.4535679374389052
1.436950146627566
1.4193548387096775
1.396871945259042
1.3782991202346042
1.3607038123167154
1.33822091886608
1.3157380254154447
1.295210166177908
1.2766373411534702
1.260019550342131
1.249266862170088
1.2541544477028348
1.2776148582600195
1.3235581622678396
1.3949169110459434
1.474095796676442
1.5591397849462365
1.6656891495601174
1.7849462365591398
1.906158357771261
2.0234604105571847
2.133919843597263
2.2375366568914954
2.3304007820136854
2.4115347018572826
2.482893450635386
2.541544477028348
2.5884652981427174
2.619745845552297
2.6373411534701856
2.6480938416422286
2.652003910068426
2.64613880742913
2.631476050830889
2.608993157380254
2.575757575757576
2.533724340175953
2.4838709677419355
2.4242424242424243
2.355816226783969
2.2883675464320627
2.2218963831867056
2.1515151515151514
2.0821114369501466
2.0146627565982405
1.949169110459433
1.8875855327468232
1.8318670576735088
1.7810361681329423
1.7380254154447703
1.7057673509286413
1.6774193548387095
1.6559139784946235
1.643206256109482
1.6344086021505375
1.6265884652981428
1.6187683284457477
1.607038123167155
1.5913978494623655
1.5757575757575757
1.5581622678396871
1.5376344086021505
1.5161290322580645
1.4936461388074291
1.4731182795698925
1.458455522971652
1.4457478005865103
1.4252199413489737
1.3998044965786902
1.3714565004887584
1.33822091886608
1.300097751710655
1.2658846529814272
1.2365591397849462
1.2101661779081134
1.187683284457478
1.1730205278592376
1.1691104594330402
1.1788856304985338
1.203323558162268
1.2443792766373412
1.3069403714565004
1.391006842619746
1.490713587487781
1.603128054740958
1.7204301075268815
1.839687194525904
1.9550342130987293
2.0625610948191597
2.157380254154448
2.2277614858260018
2.2825024437927666
2.333333333333333
2.3743890518084068
2.4027370478983383
2.418377321603128
2.4242424242424243
2.423264907135875
2.4173998044965788
2.404692082111437
2.3851417399804498
2.355816226783969
2.317693059628544
2.27761485826002
2.233626588465298
2.1808406647116323
2.120234604105572
2.0527859237536656
1.9843597262952104
1.9149560117302051
1.8455522971652003
1.7820136852394917
1.7233626588465298
1.6686217008797657
1.6207233626588464
1.5826001955034212
1.5542521994134897
1.5278592375366569
1.5073313782991202
1.4936461388074291
1.482893450635386
1.4731182795698925
1.4643206256109482
1.456500488758553
1.4506353861192571
1.4457478005865103
1.4389051808406648
1.434017595307918
1.43108504398827
1.426197458455523
1.41544477028348
1.4027370478983383
1.3851417399804498
1.3607038123167154
1.332355816226784
1.3010752688172045
1.267839687194526
1.2355816226783969
1.2043010752688172
1.1749755620723363
1.1544477028347997
1.13880742913001
1.1231671554252198
1.1133919843597262
1.1124144672531768
1.1270772238514175
1.1994134897360704
1.3088954056695992
1.4105571847507332
1.5151515151515151
1.6275659824046922
1.7448680351906158
1.8465298142717497
1.9345063538611929
2.0254154447702835
2.113391984359726
2.193548387096774
2.259042033235582
2.310850439882698
2.347996089931574
2.3743890518084068
2.3929618768328447
2.403714565004888
2.407624633431085
2.401759530791789
2.388074291300098
2.3655913978494625
2.3362658846529816
2.2991202346041058
2.2502443792766376
2.1925708699902247
2.1280547409579667
2.060606060606061
1.991202346041056
1.9227761485826005
1.86119257086999
1.804496578690127
1.7575757575757576
1.715542521994135
1.6715542521994136
1.632453567937439
1.6021505376344083
1.5796676441837731
1.5610948191593352
1.547409579667644
1.5405669599217986
1.5376344086021505
1.5356793743890518
1.5347018572825024
1.5347018572825024
1.5366568914956011
1.5395894428152492
1.5386119257087
1.5327468230694037
1.521994134897361
1.509286412512219
1.4916911045943304
1.4682306940371457
1.4418377321603129
1.4134897360703813
1.388074291300098
1.3695014662756595
1.3587487781036167
1.348973607038123
1.3391984359726294
1.3304007820136852
1.3225806451612905
1.3147605083088951
1.310850439882698
1.3157380254154447
1.3333333333333333
1.364613880742913
1.414467253176931
1.4819159335288368
1.565982404692082
1.651026392961877
1.7380254154447703
1.8416422287390029
1.949169110459433
2.0527859237536656
2.1515151515151514
2.244379276637341
2.3274682306940373
2.40078201368524
2.462365591397849
2.509286412512219
2.544477028347996
2.5640273704789838
2.5718475073313782
2.5718475073313782
2.5620723362658846
2.544477028347996
2.5190615835777126
2.4858260019550342
2.442815249266862
2.391006842619746
2.337243401759531
2.2825024437927666
2.2238514173998043
2.160312805474096
2.104594330400782
2.053763440860215
2.002932551319648
1.9550342130987293
1.9090909090909087
1.865102639296188
1.828934506353861
1.7996089931573802
1.7732160312805474
1.750733137829912
1.7341153470185728
1.7204301075268815
1.7096774193548387
1.7028347996089932
1.6930596285434996
1.683284457478006
1.672531769305963
1.6598240469208212
1.6451612903225807
1.6285434995112416
1.6109481915933528
1.595307917888563
1.5796676441837731
1.564027370478983
1.547409579667644
1.533724340175953
1.521016617790811
1.5034213098729228
1.4819159335288368
1.457478005865103
1.4320625610948192
1.4066471163245358
1.3822091886608017
1.3626588465298142
1.3519061583577712
1.3499511241446724
1.359726295210166
1.380254154447703
1.414467253176931
1.4711632453567938
1.547409579667644
1.6441837732160314
1.7556207233626588
1.873900293255132
1.997067448680352
2.1163245356793743
2.2277614858260018
2.332355816226784
2.426197458455523
2.5083088954056696
2.5698924731182795
2.6177908113391983
2.6637341153470184
2.701857282502444
2.7282502443792764
2.7438905180840663
2.7497556207233624
2.7468230694037143
2.736070381231672
2.717497556207233
2.6911045943304006
2.6559139784946235
2.6158357771261
2.572825024437928
2.5239491691104594
2.469208211143695
2.4086021505376345
2.3421309872922778
2.275659824046921
2.209188660801564
2.145650048875855
2.089931573802541
2.0410557184750733
2.0
1.964809384164223
1.935483870967742
1.9100684261974583
1.8826979472140764
1.857282502443793
1.835777126099707
1.818181818181818
1.8035190615835777
1.7888563049853372
1.7732160312805474
1.758553274682307
1.7419354838709675
1.7223851417399805
1.704789833822092
1.6881720430107527
1.6686217008797657
1.6480938416422288
1.6265884652981428
1.607038123167155
1.585532746823069
1.560117302052786
1.5327468230694037
1.5034213098729228
1.474095796676442
1.444770283479961
1.4164222873900294
1.396871945259042
1.3851417399804498
1.3792766373411536
1.388074291300098
1.414467253176931
1.4613880742913
1.5317693059628543
1.6226783968719452
1.7272727272727273
1.8416422287390029
1.959921798631476
2.0791788856304985
2.179863147605083
2.2658846529814274
2.355816226783969
2.439882697947214
2.5131964809384164
2.575757575757576
2.625610948191593
2.6637341153470184
2.6901270772238512
2.7038123167155423
2.7067448680351904
2.7008797653958942
2.686217008797654
2.664711632453568
2.633431085043988
2.593352883675464
2.549364613880743
2.5024437927663734
2.450635386119257
2.3919843597262958
2.326490713587488
2.260019550342131
2.193548387096774
2.129032258064516
2.070381231671554
2.024437927663734
1.9843597262952104
1.9423264907135875
1.900293255131965
1.865102639296188
1.835777126099707
1.8103616813294232
1.7898338220918866
1.7741935483870968
1.7605083088954057
1.747800586510264
1.7341153470185728
1.7243401759530792
1.715542521994135
1.7057673509286413
1.6930596285434996
1.6793743890518085
1.664711632453568
1.64613880742913
1.6256109481915937
1.6021505376344083
1.5757575757575757
1.547409579667644
1.5180840664711632
1.4887585532746823
1.4652981427174976
1.4457478005865103
1.4213098729227762
1.396871945259042
1.3743890518084063
1.3528836754643203
1.3343108504398826
1.3235581622678396
1.3235581622678396
1.33822091886608
1.3695014662756595
1.4222873900293256
1.4838709677419355
1.555229716520039
1.6480938416422288
1.750733137829912
1.8523949169110456
1.951124144672532
2.043010752688172
2.124144672531769
2.1925708699902247
2.2502443792766376
2.2961876832844577
2.3313782991202348
2.356793743890518
2.36950146627566
2.3714565004887587
2.3655913978494625
2.350928641251222
2.3255131964809386
2.291300097751711
