ppg
1.512218963831867
1.5141739980449658
1.4897360703812317
1.452590420332356
1.436950146627566
1.43108504398827
1.43108504398827
1.4330400782013686
1.4349951124144673
1.4379276637341154
1.4408602150537635
1.4428152492668622
1.4437927663734116
1.444770283479961
1.4437927663734116
1.4418377321603129
1.4389051808406648
1.434017595307918
1.4281524926686218
1.423264907135875
1.418377321603128
1.4105571847507332
1.401759530791789
1.3919843597262953
1.3851417399804498
1.3851417399804498
1.3978494623655917
1.4301075268817205
1.4858260019550342
1.5679374389051808
1.6764418377321604
1.7859237536656891
1.8993157380254155
2.035190615835777
2.175953079178885
2.3098729227761488
2.4271749755620724
2.52297165200391
2.593352883675464
2.638318670576735
2.658846529814272
2.659824046920821
2.644183773216031
2.616813294232649
2.582600195503421
2.5434995112414467
2.498533724340176
2.452590420332356
2.4056695992179864
2.360703812316716
2.3167155425219943
2.274682306940372
2.2355816226783967
2.198435972629521
2.1622678396871944
2.124144672531769
2.0869990224828934
2.047898338220919
2.0019550342130987
1.949169110459433
1.8905180840664717
1.827956989247312
1.7624633431085044
1.6979472140762464
1.6363636363636365
1.5806451612903225
1.5327468230694037
1.4936461388074291
1.4633431085043989
1.4428152492668622
1.4301075268817205
1.4203323558162269
1.4134897360703813
1.4076246334310851
1.401759530791789
1.393939393939394
1.3851417399804498
1.3743890518084063
1.3607038123167154
1.3450635386119256
1.3264907135874875
1.310850439882698
1.295210166177908
1.2746823069403714
1.252199413489736
1.2287390029325511
1.203323558162268
1.1779081133919844
1.152492668621701
1.1270772238514175
1.1016617790811338
1.0762463343108504
1.0518084066471165
1.0283479960899315
1.0117302052785924
0.9980449657869012
0.981427174975562
0.9638318670576737
0.9452590420332356
0.927663734115347
0.9120234604105572
0.8983382209188661
0.8856304985337243
0.8758553274682307
0.8670576735092864
0.8592375366568915
0.8563049853372434
0.8563049853372434
0.8543499511241447
0.8514173998044966
0.8484848484848485
0.8465298142717498
0.8455522971652004
0.8455522971652004
0.8465298142717498
0.8475073313782991
0.8494623655913979
0.8514173998044966
0.8533724340175953
0.8582600195503421
0.8641251221896383
0.8670576735092864
0.8680351906158358
0.8670576735092864
0.8660801564027371
0.863147605083089
0.8592375366568915
0.855327468230694
0.8514173998044966
0.8465298142717498
0.8406647116324536
0.8377321603128055
0.8367546432062561
0.8328445747800587
0.8289345063538612
0.8269794721407625
0.8318670576735093
0.8475073313782991
0.8797653958944281
0.9364613880742912
1.021505376344086
1.1378299120234605
1.281524926686217
1.423264907135875
1.5650048875855327
1.729227761485826
1.8963831867057677
2.0518084066471163
2.1847507331378297
2.291300097751711
2.3685239491691106
2.4173998044965788
2.441837732160313
2.444770283479961
2.43108504398827
2.404692082111437
2.3714565004887587
2.332355816226784
2.286412512218964
2.2346041055718477
2.1788856304985336
2.120234604105572
2.0576735092864125
1.991202346041056
1.920821114369501
1.8465298142717497
1.7702834799608993
1.6920821114369502
1.624633431085044
1.563049853372434
1.498533724340176
1.435972629521017
1.380254154447703
1.335288367546432
1.3020527859237536
1.281524926686217
1.2746823069403714
1.278592375366569
1.29227761485826
1.3128054740957966
1.3372434017595307
1.3607038123167154
1.3822091886608017
1.4027370478983383
1.4203323558162269
1.4349951124144673
1.444770283479961
1.4506353861192571
1.452590420332356
1.452590420332356
1.4486803519061584
1.4418377321603129
1.4330400782013686
1.4242424242424243
1.414467253176931
1.4007820136852396
1.3841642228739004
1.364613880742913
1.3421309872922775
1.3186705767350928
1.295210166177908
1.2717497556207231
1.2473118279569892
1.2228739002932552
1.2003910068426198
1.1788856304985338
1.163245356793744
1.1495601173020529
1.133919843597263
1.1173020527859236
1.1016617790811338
1.0879765395894427
1.075268817204301
1.064516129032258
1.0557184750733135
1.0488758553274682
1.0439882697947214
1.0391006842619743
1.0371456500488758
1.0371456500488758
1.035190615835777
1.0342130987292275
1.0332355816226784
1.0332355816226784
1.0342130987292275
1.0361681329423265
1.0391006842619743
1.0439882697947214
1.0498533724340176
1.0557184750733135
1.06158357771261
1.067448680351906
1.0742913000977516
1.0791788856304985
1.083088954056696
1.088954056695992
1.0987292277614855
1.1192570869990224
1.1573802541544478
1.2209188660801564
1.3157380254154447
1.444770283479961
1.606060606060606
1.7644183773216031
1.924731182795699
2.112414467253177
2.304985337243402
2.4858260019550342
2.643206256109482
2.7722385141739982
2.870967741935484
2.940371456500489
2.983382209188661
3.003910068426197
3.005865102639296
2.992179863147605
2.9667644183773216
2.9345063538611926
2.895405669599218
2.8533724340175954
2.8132942326490715
2.774193548387097
2.7370478983382207
2.701857282502444
2.667644183773216
2.634408602150537
2.60019550342131
2.5640273704789838
2.527859237536657
2.489736070381232
2.4457478005865103
2.3949169110459434
2.3391984359726297
2.278592375366569
2.2160312805474094
2.15347018572825
2.0928641251221896
2.038123167155425
1.9902248289345064
1.951124144672532
1.921798631476051
1.9012707722385145
1.8875855327468232
1.8778103616813293
1.871945259042033
1.868035190615836
1.8631476050830889
1.8563049853372435
1.847507331378299
1.835777126099707
1.8211143695014664
1.8025415444770283
1.7820136852394917
1.7624633431085044
1.7438905180840665
1.721407624633431
1.6979472140762464
1.6744868035190617
1.6500488758553276
1.6256109481915937
1.6021505376344083
1.5786901270772238
1.5562072336265884
1.533724340175953
1.5131964809384164
1.4946236559139785
1.479960899315738
1.4682306940371457
1.456500488758553
1.444770283479961
1.4330400782013686
1.4213098729227762
1.4115347018572826
1.4027370478983383
1.393939393939394
1.3870967741935485
1.3812316715542523
1.3773216031280548
1.3763440860215057
1.3773216031280548
1.3782991202346042
1.3782991202346042
1.3792766373411536
1.3812316715542523
1.383186705767351
1.3851417399804498
1.3861192570869991
1.3870967741935485
1.3890518084066472
1.3900293255131966
1.3900293255131966
1.3919843597262953
1.393939393939394
1.3949169110459434
1.393939393939394
1.3919843597262953
1.388074291300098
1.3841642228739004
1.3822091886608017
1.3861192570869991
1.4007820136852396
1.4330400782013686
1.4887585532746823
1.555229716520039
1.6383186705767352
1.7556207233626588
1.8983382209188664
2.0557184750733137
2.217986314760508
2.3734115347018574
2.5141739980449658
2.633431085043988
2.727272727272727
2.7966764418377323
2.8426197458455524
2.8641251221896384
2.868035190615836
2.8641251221896384
2.852394916911046
2.832844574780059
2.809384164222874
2.782013685239492
2.7536656891495603
2.7262952101661777
2.699902248289345
2.674486803519061
2.650048875855328
2.6265884652981426
2.603128054740958
2.579667644183773
2.555229716520039
2.527859237536657
2.495601173020528
2.4565004887585533
2.409579667644184
2.3548387096774195
2.2932551319648096
2.2267839687194524
2.157380254154448
2.0879765395894427
2.0283479960899315
1.9765395894428155
1.9266862170087975
1.8826979472140764
1.8465298142717497
1.8201368523949168
1.801564027370479
1.7888563049853372
1.780058651026393
1.7741935483870968
1.7683284457478006
1.761485826001955
1.75366568914956
1.7448680351906158
1.7341153470185728
1.7194525904203324
1.7008797653958945
1.6803519061583578
1.6578690127077225
1.632453567937439
1.606060606060606
1.5777126099706744
1.547409579667644
1.5161290322580645
1.482893450635386
1.4545454545454546
1.4291300097751711
1.4007820136852396
1.3714565004887584
1.343108504398827
1.3157380254154447
1.289345063538612
1.2639296187683284
1.238514173998045
1.2140762463343109
1.1906158357771262
1.1681329423264908
1.1456500488758554
1.1300097751710656
1.1173020527859236
1.1026392961876832
1.0879765395894427
1.0733137829912025
1.0596285434995112
1.0469208211143697
1.0342130987292275
1.0234604105571847
1.013685239491691
1.0048875855327468
0.9960899315738024
0.9921798631476052
0.9912023460410556
0.9882697947214076
0.9853372434017597
0.9824046920821116
0.9804496578690128
0.9794721407624634
0.9794721407624634
0.9794721407624634
0.9794721407624634
0.9804496578690128
0.9824046920821116
0.9843597262952102
0.9882697947214076
0.9941348973607038
0.997067448680352
0.9990224828934506
1.0039100684261977
1.013685239491691
1.0361681329423265
1.0762463343108504
1.13880742913001
1.2297165200391007
1.348973607038123
1.4936461388074291
1.6344086021505375
1.7732160312805474
1.9305962854349952
2.088954056695992
2.2346041055718477
2.358748778103617
2.458455522971652
2.532746823069404
2.5835777126099706
2.6129032258064515
2.625610948191593
2.624633431085044
2.611925708699902
2.591397849462365
2.565982404692082
2.536656891495601
2.504398826979472
2.4701857282502444
2.4349951124144678
2.3978494623655915
2.3597262952101663
2.3196480938416424
2.2766373411534704
2.23069403714565
2.1808406647116323
2.131964809384164
2.0821114369501466
2.022482893450636
1.9560117302052784
1.8866080156402736
1.8172043010752688
1.750733137829912
1.6901270772238517
1.6383186705767352
1.595307917888563
1.5620723362658846
1.5376344086021505
1.521994134897361
1.5131964809384164
1.509286412512219
1.5073313782991202
1.5053763440860215
1.5034213098729228
1.500488758553275
1.4946236559139785
1.4858260019550342
1.4750733137829912
1.4613880742913
1.4457478005865103
1.4281524926686218
1.412512218963832
1.3978494623655917
1.3792766373411536
1.3577712609970674
1.335288367546432
1.3118279569892473
1.289345063538612
1.2668621700879763
1.2443792766373412
1.2316715542521994
1.2228739002932552
1.2082111436950147
1.1915933528836755
1.1788856304985338
1.1691104594330402
1.1564027370478984
1.142717497556207
1.1290322580645162
1.1163245356793745
1.104594330400782
1.0948191593352885
1.086021505376344
1.0791788856304985
1.0733137829912025
1.0694037145650048
1.0694037145650048
1.0713587487781036
1.0703812316715542
1.0694037145650048
1.0684261974584557
1.0684261974584557
1.0684261974584557
1.0703812316715542
1.072336265884653
1.0742913000977516
1.0762463343108504
1.0772238514173995
1.0772238514173995
1.0791788856304985
1.0821114369501466
1.0821114369501466
1.0811339198435972
1.0801564027370478
1.0791788856304985
1.078201368523949
1.0772238514173995
1.075268817204301
1.0733137829912025
1.0733137829912025
1.0791788856304985
1.0928641251221896
1.118279569892473
1.163245356793744
1.2336265884652982
1.3343108504398826
1.4652981427174976
1.6226783968719452
1.796676441837732
1.978494623655914
2.156402737047898
2.318670576735093
2.4594330400782014
2.572825024437928
2.650048875855328
2.6989247311827955
2.7331378299120237
2.750733137829912
2.752688172043011
2.7419354838709675
2.720430107526881
2.6901270772238512
2.653958944281525
2.613880742913001
2.570869990224829
2.5249266862170088
2.4819159335288368
2.4389051808406648
2.391006842619746
2.3382209188660803
2.2825024437927666
2.222873900293255
2.160312805474096
2.0948191593352883
2.027370478983382
1.9608993157380252
1.8963831867057677
1.8377321603128052
1.7917888563049853
1.7556207233626588
1.7243401759530792
1.7008797653958945
1.6871945259042034
1.6813294232649072
1.6823069403714566
1.6881720430107527
1.6950146627565983
1.7018572825024438
1.7067448680351909
1.70772238514174
1.7038123167155426
1.6979472140762464
1.689149560117302
1.6744868035190617
1.6559139784946235
1.6334310850439884
1.608993157380254
1.5835777126099706
1.5562072336265884
1.5288367546432062
1.500488758553275
1.4721407624633431
1.4437927663734116
1.4203323558162269
1.3998044965786902
1.375366568914956
1.3499511241446724
1.3235581622678396
1.2981427174975562
1.273704789833822
1.2512218963831867
1.2297165200391007
1.209188660801564
1.1915933528836755
1.176930596285435
1.164222873900293
1.1583577712609971
1.155425219941349
1.1515151515151516
1.147605083088954
1.144672531769306
1.1436950146627567
1.1436950146627567
1.1456500488758554
1.1485826001955035
1.1515151515151516
1.155425219941349
1.1612903225806452
1.1691104594330402
1.1788856304985338
1.1886608015640274
1.198435972629521
1.2082111436950147
1.219941348973607
1.2316715542521994
1.2424242424242424
1.252199413489736
1.2619745845552297
1.270772238514174
1.2795698924731185
1.289345063538612
1.3040078201368523
1.3264907135874875
1.364613880742913
1.426197458455523
1.5151515151515151
1.6344086021505375
1.7820136852394917
1.9521016617790807
2.134897360703812
2.318670576735093
2.49266862170088
2.64613880742913
2.760508308895406
2.843597262952102
2.9149560117302054
2.9667644183773216
3.0
3.01564027370479
3.0175953079178885
3.0087976539589443
2.991202346041056
2.967741935483871
2.940371456500489
2.9120234604105573
2.8826979472140764
2.8533724340175954
2.8240469208211145
2.795698924731183
2.7673509286412514
2.739980449657869
2.7116324535679373
2.681329423264907
2.6471163245356792
2.6080156402737047
2.5620723362658846
2.5083088954056696
2.44672531769306
2.3870967741935485
2.3274682306940373
2.260019550342131
2.190615835777126
2.124144672531769
2.0635386119257086
2.0117302052785924
1.9696969696969695
1.93841642228739
1.9159335288367547
1.900293255131965
1.889540566959922
1.8807429130009776
1.8729227761485825
1.865102639296188
1.855327468230694
1.842619745845552
1.827956989247312
1.8103616813294232
1.7917888563049853
1.7702834799608993
1.7468230694037146
1.7223851417399805
1.696969696969697
1.6705767350928642
1.6490713587487782
1.629521016617791
1.606060606060606
1.581622678396872
1.5571847507331378
1.533724340175953
1.5112414467253177
1.490713587487781
1.4711632453567938
1.452590420332356
1.435972629521017
1.4213098729227762
1.4086021505376345
1.3998044965786902
1.393939393939394
1.3861192570869991
1.3792766373411536
1.3734115347018572
1.3685239491691104
1.364613880742913
1.3626588465298142
1.3616813294232648
1.3607038123167154
1.3616813294232648
1.3636363636363635
1.3665689149560116
1.370478983382209
1.3734115347018572
1.375366568914956
1.3773216031280548
1.3782991202346042
1.380254154447703
1.3812316715542523
1.383186705767351
1.3841642228739004
1.3851417399804498
1.3861192570869991
1.3861192570869991
1.3870967741935485
1.3870967741935485
1.3861192570869991
1.3861192570869991
1.391006842619746
1.4066471163245358
1.4389051808406648
1.4936461388074291
1.5757575757575757
1.686217008797654
1.822091886608016
1.9765395894428155
2.1192570869990224
2.251221896383187
2.3949169110459434
2.5219941348973607
2.6285434995112413
2.720430107526881
2.792766373411535
2.844574780058651
2.87683284457478
2.8914956011730206
2.89247311827957
2.8826979472140764
2.8641251221896384
2.8396871945259043
2.812316715542522
2.7839687194525906
2.755620723362659
2.7282502443792764
2.701857282502444
2.677419354838709
2.653958944281525
2.63049853372434
2.6050830889540566
2.576735092864125
2.544477028347996
2.5083088954056696
2.4672531769305963
2.4164222873900294
2.356793743890518
2.289345063538612
2.2170087976539588
2.142717497556207
2.0684261974584555
1.9980449657869013
1.9335288367546437
1.87683284457478
1.8299120234604105
1.7927663734115349
1.7663734115347018
1.747800586510264
1.7331378299120237
1.7223851417399805
1.7126099706744868
1.7018572825024438
1.6901270772238517
1.675464320625611
1.6578690127077225
1.6373411534701858
1.6148582600195502
1.5884652981427174
1.5650048875855327
1.542521994134897
1.5151515151515151
1.4848484848484849
1.4535679374389052
1.4213098729227762
1.3890518084066472
1.3558162267839686
1.321603128054741
1.2883675464320623
1.2551319648093842
1.2228739002932552
1.1974584555229717
1.1749755620723363
1.1485826001955035
1.121212121212121
1.093841642228739
1.067448680351906
1.0420332355816226
1.018572825024438
0.9960899315738024
0.975562072336266
0.956989247311828
0.9413489736070382
0.9266862170087976
0.9188660801564028
0.9149560117302052
0.9100684261974584
0.9051808406647116
0.9012707722385142
0.8983382209188661
0.8963831867057673
0.8963831867057673
0.8973607038123167
0.9002932551319648
0.9032258064516128
0.9071358748778104
0.913978494623656
0.9217986314760508
0.927663734115347
0.9315738025415444
0.935483870967742
0.9393939393939394
0.9442815249266864
0.9491691104594332
0.9530791788856304
0.9560117302052786
0.9589442815249268
0.9608993157380256
0.9628543499511242
0.9667644183773216
0.9736070381231672
0.9824046920821116
0.9980449657869012
1.0273704789833822
1.078201368523949
1.1564027370478984
1.2639296187683284
1.4007820136852396
1.5620723362658846
1.739980449657869
1.9227761485826005
2.078201368523949
2.2111436950146626
2.343108504398827
2.4574780058651027
2.549364613880743
2.6158357771261
2.6578690127077222
2.678396871945259
2.6823069403714563
2.673509286412512
2.653958944281525
2.6265884652981426
2.5943304007820136
2.5591397849462365
2.52297165200391
2.4838709677419355
2.442815249266862
2.39980449657869
2.35386119257087
2.304985337243402
2.2521994134897363
2.193548387096774
2.129032258064516
2.058651026392962
1.9824046920821117
1.9130009775171064
1.8484848484848484
1.7781036168132942
1.7096774193548387
1.64613880742913
1.5923753665689149
1.5493646138807429
1.5180840664711632
1.4975562072336266
1.4868035190615836
1.4819159335288368
1.4809384164222874
1.4819159335288368
1.4848484848484849
1.4868035190615836
1.4858260019550342
1.4809384164222874
1.474095796676442
1.4643206256109482
1.4516129032258065
1.436950146627566
1.4203323558162269
1.401759530791789
1.383186705767351
1.3636363636363635
1.3470185728250244
1.332355816226784
1.313782991202346
1.2932551319648091
1.2727272727272727
1.2512218963831867
1.2287390029325511
1.2072336265884651
1.1857282502443791
1.164222873900293
1.1436950146627567
1.1251221896383188
1.10752688172043
1.096774193548387
1.088954056695992
1.078201368523949
1.067448680351906
1.056695992179863
1.04594330400782
1.0371456500488758
1.029325513196481
1.0234604105571847
1.0195503421309873
1.0175953079178883
1.0166177908113392
1.0205278592375366
1.0263929618768328
1.0303030303030305
1.0342130987292275
1.0371456500488758
1.040078201368524
1.043010752688172
1.0449657869012707
1.0469208211143697
1.0478983382209188
1.0498533724340176
1.050830889540567
1.0527859237536656
1.0576735092864125
1.064516129032258
1.0694037145650048
1.0733137829912025
1.0762463343108504
1.078201368523949
1.0801564027370478
1.0821114369501466
1.086021505376344
1.093841642228739
1.1124144672531768
1.1466275659824048
1.1925708699902249
1.2570869990224829
1.3558162267839686
1.4868035190615836
1.6451612903225807
1.823069403714565
2.0097751710654936
2.1925708699902247
2.361681329423265
2.5083088954056696
2.627565982404692
2.716520039100684
2.7751710654936463
2.8044965786901277
2.812316715542522
2.8054740957966766
2.7859237536656893
2.7546432062561097
2.713587487781036
2.664711632453568
2.608993157380254
2.6510263929618767
2.631476050830889
2.6050830889540566
2.5747800586510263
2.5405669599217986
2.504398826979472
2.4652981427174976
2.4242424242424243
2.3812316715542523
2.334310850439883
2.2883675464320627
2.241446725317693
2.1867057673509285
2.124144672531769
2.0557184750733137
1.981427174975562
1.905180840664712
1.8299120234604105
1.758553274682307
1.6950146627565983
1.6412512218963833
1.598240469208211
1.5669599217986314
1.547409579667644
1.5366568914956011
1.5317693059628543
1.530791788856305
1.5327468230694037
1.5356793743890518
1.5386119257087
1.5386119257087
1.5366568914956011
1.5317693059628543
1.5239491691104594
1.5131964809384164
1.5024437927663734
1.4916911045943304
1.478005865102639
1.4613880742913
1.4428152492668622
1.423264907135875
1.4037145650048877
1.3841642228739004
1.3636363636363635
1.343108504398827
1.3225806451612905
1.3010752688172045
1.2795698924731185
1.262952101661779
1.2482893450635386
1.2316715542521994
1.2150537634408602
1.198435972629521
1.181818181818182
1.166177908113392
1.1515151515151516
1.1378299120234605
1.1251221896383188
1.1143695014662756
1.1055718475073313
1.1006842619745845
1.0987292277614855
1.0957966764418376
1.0928641251221896
1.0909090909090908
1.0899315738025417
1.0909090909090908
1.093841642228739
1.0977517106549364
1.1026392961876832
1.10752688172043
1.1133919843597262
1.1192570869990224
1.1270772238514175
1.1358748778103618
1.1436950146627567
1.1505376344086022
1.1564027370478984
1.1622678396871946
1.1671554252199414
1.1730205278592376
1.1788856304985338
1.18475073313783
1.1906158357771262
1.195503421309873
1.2013685239491692
1.2082111436950147
1.2130987292277615
1.219941348973607
1.2297165200391007
1.249266862170088
1.284457478005865
1.343108504398827
1.4301075268817205
1.5493646138807429
1.6989247311827955
1.8729227761485825
2.0332355816226784
2.1847507331378297
2.3499511241446727
2.509286412512219
2.6480938416422286
2.758553274682307
2.8406647116324537
2.8944281524926687
2.921798631476051
2.9286412512218964
2.917888563049853
2.89345063538612
2.8582600195503423
2.8181818181818183
2.774193548387097
2.7253176930596283
2.673509286412512
2.619745845552297
2.5650048875855327
2.509286412512219
2.452590420332356
2.393939393939394
2.332355816226784
2.267839687194526
2.19941348973607
2.1358748778103616
2.074291300097752
2.005865102639296
1.9364613880742916
1.8699902248289344
1.8084066471163245
1.75366568914956
1.7096774193548387
1.6764418377321604
1.6529814271749756
1.6383186705767352
1.6304985337243405
1.6265884652981428
1.624633431085044
1.6236559139784943
1.6226783968719452
1.619745845552297
1.6138807429130009
1.606060606060606
1.595307917888563
1.581622678396872
1.5669599217986314
1.5503421309872922
1.533724340175953
1.5151515151515151
1.499511241446725
1.4848484848484849
1.4682306940371457
1.4506353861192571
1.4320625610948192
1.4134897360703813
1.393939393939394
1.375366568914956
1.3577712609970674
1.3411534701857282
1.3255131964809383
1.310850439882698
1.2971652003910068
1.2873900293255132
1.2805474095796676
1.273704789833822
1.2668621700879763
1.2619745845552297
1.2580645161290325
1.2561094819159335
1.2551319648093842
1.2551319648093842
1.2551319648093842
1.2551319648093842
1.2551319648093842
1.2570869990224829
1.260019550342131
1.262952101661779
1.2658846529814272
1.2688172043010753
1.2727272727272727
1.2766373411534702
1.281524926686217
1.2873900293255132
1.2932551319648091
1.2991202346041055
1.305962854349951
1.3128054740957966
1.3196480938416422
1.3264907135874875
1.332355816226784
1.33822091886608
1.343108504398827
1.348973607038123
1.35386119257087
1.3577712609970674
1.3607038123167154
1.3626588465298142
1.364613880742913
1.367546432062561
1.3734115347018572
1.3851417399804498
1.409579667644184
1.4535679374389052
1.5239491691104594
1.6236559139784943
1.75366568914956
1.9100684261974583
2.0840664711632453
2.264907135874878
2.441837732160313
2.6050830889540566
2.747800586510264
2.8514173998044967
2.924731182795699
2.9872922776148583
3.0332355816226784
3.060606060606061
3.071358748778104
3.069403714565005
3.0576735092864125
3.0391006842619745
3.01564027370479
2.989247311827957
2.961876832844575
2.932551319648094
2.903225806451613
2.875855327468231
2.850439882697948
2.825024437927664
2.780058651026393
2.7253176930596283
2.6823069403714563
2.643206256109482
2.6021505376344085
2.557184750733138
2.505376344086021
2.4457478005865103
2.386119257086999
2.324535679374389
2.254154447702835
2.1808406647116323
2.10752688172043
2.038123167155425
1.9745845552297163
1.9188660801564028
1.8729227761485825
1.8347996089931573
1.804496578690127
1.7810361681329423
1.7644183773216031
1.750733137829912
1.7380254154447703
