ppg
3.10850439882698
3.074291300097752
3.037145650048876
2.997067448680352
2.9501466275659824
2.8993157380254155
2.843597262952102
2.78494623655914
2.724340175953079
2.662756598240469
2.6021505376344085
2.544477028347996
2.490713587487781
2.442815249266862
2.3978494623655915
2.361681329423265
2.3313782991202348
2.3010752688172045
2.270772238514174
2.2404692082111435
2.212121212121212
2.1847507331378297
2.158357771260997
2.1309872922776147
2.1006842619745845
2.070381231671554
2.040078201368524
2.013685239491691
1.9902248289345064
1.962854349951124
1.935483870967742
1.90811339198436
1.8778103616813293
1.8455522971652003
1.8142717497556209
1.7859237536656891
1.7605083088954057
1.737047898338221
1.7145650048875856
1.6920821114369502
1.6744868035190617
1.6598240469208212
1.6441837732160314
1.6275659824046922
1.6109481915933528
1.5943304007820136
1.5777126099706744
1.5620723362658846
1.5483870967741935
1.5356793743890518
1.52297165200391
1.5102639296187683
1.5024437927663734
1.498533724340176
1.4916911045943304
1.482893450635386
1.474095796676442
1.4643206256109482
1.4545454545454546
1.4457478005865103
1.435972629521017
1.4281524926686218
1.423264907135875
1.423264907135875
1.4330400782013686
1.452590420332356
1.4838709677419355
1.5317693059628543
1.5962854349951123
1.678396871945259
1.7741935483870968
1.8807429130009776
1.9990224828934504
2.124144672531769
2.2502443792766376
2.372434017595308
2.4887585532746823
2.582600195503421
2.659824046920821
2.736070381231672
2.8054740957966766
2.865102639296188
2.9149560117302054
2.956011730205278
2.9872922776148583
3.0097751710654936
3.0254154447702835
3.0361681329423265
3.0410557184750733
3.0410557184750733
3.035190615835777
3.022482893450636
3.007820136852395
2.989247311827957
2.9657869012707723
2.93841642228739
2.905180840664712
2.866080156402737
2.8211143695014664
2.7722385141739982
2.718475073313783
2.66177908113392
2.6099706744868034
2.560117302052786
2.50733137829912
2.4545454545454546
2.404692082111437
2.3597262952101663
2.3196480938416424
2.2844574780058653
2.2521994134897363
2.222873900293255
2.1974584555229715
2.1730205278592374
2.147605083088954
2.1251221896383186
2.104594330400782
2.083088954056696
2.060606060606061
1.9100684261974583
1.6959921798631477
1.5757575757575757
1.5034213098729228
1.455522971652004
1.4173998044965788
1.3841642228739004
1.35386119257087
1.3304007820136852
1.310850439882698
1.2903225806451613
1.2688172043010753
1.2482893450635386
1.227761485826002
1.2072336265884651
1.187683284457478
1.1681329423264908
1.147605083088954
1.1280547409579669
1.110459433040078
1.0977517106549364
1.088954056695992
1.0791788856304985
1.0694037145650048
1.0606060606060606
1.0527859237536656
1.04594330400782
1.040078201368524
1.0342130987292275
1.029325513196481
1.0254154447702837
1.021505376344086
1.0175953079178883
1.0166177908113392
1.0156402737047898
1.0117302052785924
1.0058651026392962
1.0
0.9960899315738024
0.9941348973607038
0.997067448680352
1.0097751710654936
1.035190615835777
1.0762463343108504
1.1319648093841643
1.1935483870967742
1.2619745845552297
1.348973607038123
1.4486803519061584
1.5562072336265884
1.6666666666666667
1.7741935483870968
1.8748778103616808
1.967741935483871
2.0518084066471163
2.1251221896383186
2.1867057673509285
2.2385141739980448
2.275659824046921
2.302052785923754
2.326490713587488
2.347018572825025
2.363636363636364
2.375366568914956
2.3822091886608017
2.3851417399804498
2.3822091886608017
2.3734115347018574
2.3597262952101663
2.3421309872922778
2.3196480938416424
2.29227761485826
2.259042033235582
2.219941348973607
2.175953079178885
2.1300097751710654
2.081133919843597
2.03128054740958
1.9824046920821117
1.935483870967742
1.889540566959922
1.844574780058651
1.801564027370479
1.7663734115347018
1.7360703812316716
1.7038123167155426
1.672531769305963
1.6422287390029326
1.6129032258064515
1.5865102639296187
1.5610948191593352
1.5356793743890518
1.5102639296187683
1.4838709677419355
1.455522971652004
1.43108504398827
1.409579667644184
1.3851417399804498
1.3587487781036167
1.3313782991202343
1.3049853372434017
1.278592375366569
1.2531769305962854
1.227761485826002
1.2023460410557183
1.1749755620723363
1.1466275659824048
1.118279569892473
1.096774193548387
1.0791788856304985
1.0576735092864125
1.0342130987292275
1.0117302052785924
0.9912023460410556
0.9726295210166178
0.9550342130987292
0.93841642228739
0.9217986314760508
0.9051808406647116
0.8895405669599218
0.8797653958944281
0.8719452590420332
0.8611925708699902
0.8504398826979472
0.8396871945259042
0.8289345063538612
0.8181818181818182
0.8064516129032258
0.7947214076246334
0.7810361681329423
0.7673509286412512
0.7526881720430108
0.7380254154447703
0.7302052785923754
0.7272727272727273
0.7214076246334311
0.7174975562072337
0.7174975562072337
0.7272727272727273
0.7497556207233627
0.7878787878787878
0.841642228739003
0.9100684261974584
0.9902248289345064
1.0801564027370478
1.1652003910068427
1.2482893450635386
1.3372434017595307
1.426197458455523
1.5102639296187683
1.587487781036168
1.6549364613880744
1.7096774193548387
1.7517106549364614
1.782991202346041
1.804496578690127
1.8201368523949168
1.8318670576735088
1.8387096774193548
1.8416422287390029
1.8406647116324533
1.8347996089931573
1.823069403714565
1.8074291300097751
1.7898338220918866
1.76930596285435
1.7448680351906158
1.7145650048875856
1.6813294232649072
1.6441837732160314
1.608993157380254
1.576735092864125
1.541544477028348
1.5053763440860215
1.4701857282502444
1.4379276637341154
1.4076246334310851
1.3812316715542523
1.356793743890518
1.335288367546432
1.316715542521994
1.300097751710655
1.2854349951124144
1.2746823069403714
1.2639296187683284
1.249266862170088
1.2326490713587488
1.2160312805474096
1.1994134897360704
1.181818181818182
1.164222873900293
1.144672531769306
1.1241446725317692
1.1036168132942326
1.0821114369501466
1.064516129032258
1.0478983382209188
1.0273704789833822
1.0048875855327468
0.9833822091886608
0.9628543499511242
0.9442815249266864
0.927663734115347
0.9120234604105572
0.8973607038123167
0.8826979472140762
0.8690127077223851
0.8563049853372434
0.8494623655913979
0.8475073313782991
0.8426197458455523
0.8357771260997068
0.8269794721407625
0.8191593352883676
0.8113391984359726
0.8035190615835777
0.7976539589442815
0.7927663734115347
0.7878787878787878
0.7820136852394917
0.7800586510263929
0.7810361681329423
0.7790811339198436
0.7761485826001955
0.7732160312805474
0.7693059628543499
0.7663734115347018
0.7624633431085044
0.7605083088954057
0.7624633431085044
0.7693059628543499
0.7859237536656891
0.8142717497556208
0.8514173998044966
0.8983382209188661
0.9618768328445748
1.0420332355816226
1.1348973607038124
1.238514173998045
1.348973607038123
1.4604105571847508
1.5698924731182795
1.6744868035190617
1.7702834799608993
1.855327468230694
1.920821114369501
1.9716520039100685
2.0175953079178885
2.0547409579667644
2.0840664711632453
2.104594330400782
2.1192570869990224
2.1270772238514173
2.1300097751710654
2.129032258064516
2.12316715542522
2.2531769305962857
2.447702834799609
2.532746823069404
2.5610948191593352
2.5591397849462365
2.5405669599217986
2.512218963831867
2.4780058651026398
2.441837732160313
2.4027370478983383
2.363636363636364
2.326490713587488
2.291300097751711
2.2580645161290325
2.23069403714565
2.2082111436950145
2.1867057673509285
2.1681329423264906
2.1524926686217007
2.1388074291300097
2.1280547409579667
2.118279569892473
2.10850439882698
2.099706744868035
2.09188660801564
2.0840664711632453
2.0772238514174
2.071358748778104
2.065493646138808
2.0576735092864125
2.048875855327468
2.037145650048876
2.022482893450636
2.006842619745845
1.994134897360704
1.9833822091886608
1.9726295210166176
1.959921798631476
1.9472140762463344
1.9364613880742916
1.9266862170087975
1.9149560117302051
1.903225806451613
1.89247311827957
1.8836754643206255
1.8748778103616808
1.8670576735092863
1.8602150537634408
1.8533724340175952
1.847507331378299
1.8416422287390029
1.836754643206256
1.833822091886608
1.8318670576735088
1.827956989247312
1.8240469208211143
1.8201368523949168
1.8162267839687196
1.8113391984359728
1.8084066471163245
1.8064516129032255
1.804496578690127
1.801564027370479
1.7976539589442817
1.7956989247311828
1.793743890518084
1.790811339198436
1.7888563049853372
1.7888563049853372
1.793743890518084
1.8074291300097751
1.8328445747800584
1.8729227761485825
1.9296187683284456
2.005865102639296
2.1006842619745845
2.1945259042033234
2.29227761485826
2.4115347018572826
2.5425219941348973
2.677419354838709
2.809384164222874
2.935483870967742
3.0518084066471163
3.156402737047898
3.2482893450635384
3.326490713587488
3.3949169110459434
3.4516129032258065
3.4887585532746823
3.515151515151515
3.5454545454545454
3.573802541544477
3.5962854349951123
3.611925708699902
3.6207233626588464
3.624633431085044
3.6236559139784954
3.618768328445748
3.6099706744868034
3.5972629521016617
3.576735092864125
3.549364613880743
3.5190615835777126
3.482893450635386
3.4389051808406648
3.3870967741935485
3.329423264907136
3.2668621700879767
3.20039100684262
3.132942326490713
3.065493646138808
3.0
2.9374389051808407
2.8826979472140764
2.832844574780059
2.7839687194525906
2.736070381231672
2.6930596285435
2.653958944281525
2.616813294232649
2.581622678396872
2.548387096774193
2.5141739980449658
2.4780058651026398
2.442815249266862
2.410557184750733
2.380254154447703
2.347996089931574
2.313782991202346
2.27761485826002
2.2404692082111435
2.201368523949169
2.163245356793744
2.1270772238514173
2.090909090909091
2.0557184750733137
2.021505376344086
1.989247311827957
1.962854349951124
1.9413489736070384
1.9178885630498532
1.895405669599218
1.8729227761485825
1.8514173998044965
1.827956989247312
1.8035190615835777
1.780058651026393
1.7595307917888563
1.7419354838709675
1.726295210166178
1.715542521994135
1.7067448680351909
1.6950146627565983
1.683284457478006
1.6705767350928642
1.6578690127077225
1.6441837732160314
1.6314760508308896
1.6177908113391983
1.6050830889540566
1.5923753665689149
1.581622678396872
1.5718475073313782
1.565982404692082
1.5650048875855327
1.5669599217986314
1.5777126099706744
1.6021505376344083
1.6441837732160314
1.7057673509286413
1.7878787878787878
1.8875855327468232
1.9990224828934504
2.1192570869990224
2.244379276637341
2.3519061583577714
2.447702834799609
2.550342130987292
2.652003910068426
2.748778103616813
2.835777126099707
2.911045943304008
2.9745845552297165
3.027370478983382
3.069403714565005
3.102639296187683
3.129032258064516
3.1485826001955037
3.157380254154448
3.158357771260997
3.1593352883675463
3.157380254154448
3.150537634408602
3.139784946236559
3.124144672531769
3.1055718475073317
3.083088954056696
3.0557184750733137
3.021505376344086
2.981427174975562
2.9393939393939394
2.89345063538612
2.838709677419355
2.7781036168132944
2.713587487781036
2.64613880742913
2.579667644183773
2.515151515151515
2.4545454545454546
2.39980449657869
2.3528836754643208
2.313782991202346
2.2844574780058653
2.260997067448681
2.2385141739980448
2.2140762463343107
2.185728250244379
2.15347018572825
2.120234604105572
2.0869990224828934
2.0557184750733137
2.029325513196481
2.006842619745845
1.986314760508309
1.962854349951124
1.9393939393939397
1.9120234604105573
1.8758553274682308
1.835777126099707
1.796676441837732
1.761485826001955
1.7311827956989247
1.7057673509286413
1.6813294232649072
1.6588465298142718
1.6363636363636365
1.6138807429130009
1.5972629521016617
1.58455522971652
1.5698924731182795
1.555229716520039
1.543499511241447
1.5317693059628543
1.517106549364614
1.500488758553275
1.4819159335288368
1.4643206256109482
1.4486803519061584
1.436950146627566
1.4281524926686218
1.4252199413489737
1.4252199413489737
1.4222873900293256
1.4164222873900294
1.4076246334310851
1.2991202346041055
1.1407624633431086
1.0576735092864125
1.0146627565982405
0.9921798631476052
0.9833822091886608
0.9863147605083088
0.997067448680352
1.018572825024438
1.053763440860215
1.104594330400782
1.1720430107526882
1.2570869990224829
1.356793743890518
1.4672531769305963
1.58455522971652
1.7028347996089932
1.818181818181818
1.9257086999022484
2.0234604105571847
2.0977517106549364
2.156402737047898
2.2140762463343107
2.2658846529814274
2.3088954056695994
2.3440860215053765
2.3734115347018574
2.3958944281524928
2.412512218963832
2.4252199413489737
2.432062561094819
2.4349951124144678
2.4301075268817205
2.420332355816227
2.4086021505376345
2.3919843597262958
2.372434017595308
2.3489736070381237
2.3196480938416424
2.2854349951124147
2.24633431085044
2.203323558162268
2.157380254154448
2.10752688172043
2.0557184750733137
2.0097751710654936
1.9667644183773216
1.9227761485826005
1.8797653958944285
1.839687194525904
1.804496578690127
1.7732160312805474
1.7429130009775171
1.7145650048875856
1.6871945259042034
1.66177908113392
1.6373411534701858
1.616813294232649
1.5972629521016617
1.5757575757575757
1.5532746823069403
1.5298142717497556
1.504398826979472
1.478005865102639
1.4516129032258065
1.426197458455523
1.3988269794721409
1.3714565004887584
1.3440860215053765
1.3176930596285434
1.2981427174975562
1.2825024437927663
1.2649071358748778
1.24633431085044
1.2267839687194526
1.2072336265884651
1.1886608015640274
1.1710654936461389
1.1544477028347997
1.1397849462365592
1.1270772238514175
1.1173020527859236
1.110459433040078
1.104594330400782
1.096774193548387
1.0869990224828934
1.0772238514173995
1.067448680351906
1.0576735092864125
1.0498533724340176
1.0420332355816226
1.0342130987292275
1.0263929618768328
1.018572825024438
1.010752688172043
1.0048875855327468
1.0
0.9912023460410556
0.981427174975562
0.9716520039100685
0.9638318670576737
0.9608993157380256
0.9667644183773216
0.9853372434017597
1.018572825024438
1.067448680351906
1.1319648093841643
1.1994134897360704
1.2717497556207231
1.3636363636363635
1.4672531769305963
1.576735092864125
1.6871945259042034
1.7947214076246334
1.8944281524926687
1.9872922776148585
2.070381231671554
2.1436950146627565
2.207233626588465
2.259042033235582
2.2952101661779083
2.320625610948192
2.3440860215053765
2.363636363636364
2.377321603128055
2.3841642228739004
2.3851417399804498
2.383186705767351
2.376344086021505
2.3655913978494625
2.347996089931574
2.324535679374389
2.2981427174975564
2.2688172043010755
2.232649071358749
2.193548387096774
2.1515151515151514
2.1055718475073317
2.056695992179863
2.0087976539589443
1.963831867057673
1.9188660801564028
1.8758553274682308
1.835777126099707
1.8005865102639296
1.772238514173998
1.7468230694037146
1.7204301075268815
1.6930596285434996
1.6666666666666667
1.6422287390029326
1.616813294232649
1.5894428152492668
1.5610948191593352
1.533724340175953
1.5063538611925709
1.478983382209189
1.455522971652004
1.4330400782013686
1.404692082111437
1.3714565004887584
1.3362658846529814
1.3010752688172045
1.2658846529814272
1.23069403714565
1.1964809384164223
1.163245356793744
1.130987292277615
1.099706744868035
1.0684261974584557
1.0449657869012707
1.0254154447702837
1.002932551319648
0.981427174975562
0.9608993157380256
0.9413489736070382
0.9237536656891496
0.9071358748778104
0.8914956011730205
0.8748778103616813
0.8592375366568915
0.8435972629521017
0.8328445747800587
0.8240469208211144
0.8132942326490714
0.8015640273704789
0.7898338220918866
0.7781036168132942
0.7663734115347018
0.7526881720430108
0.7360703812316716
0.7174975562072337
0.6999022482893451
0.6842619745845552
0.6764418377321603
0.6715542521994134
0.6627565982404692
0.6549364613880743
0.6500488758553274
0.6529814271749755
0.6666666666666666
0.6920821114369502
0.7321603128054741
0.7888563049853372
0.8611925708699902
0.946236559139785
1.0410557184750733
1.130987292277615
1.2179863147605083
1.3128054740957966
1.4076246334310851
1.4975562072336266
1.5806451612903225
1.653958944281525
1.715542521994135
1.7634408602150538
1.7996089931573802
1.8240469208211143
1.8387096774193548
1.8435972629521016
1.842619745845552
1.835777126099707
1.825024437927664
1.8113391984359728
1.7956989247311828
1.7781036168132942
1.7575757575757576
1.732160312805474
1.7028347996089932
1.6715542521994136
1.6392961876832846
1.6050830889540566
1.573802541544477
1.5454545454545454
1.5141739980449658
1.4809384164222874
1.447702834799609
1.4164222873900294
1.3870967741935485
1.3607038123167154
1.3372434017595307
1.3176930596285434
1.3020527859237536
1.2883675464320623
1.278592375366569
1.270772238514174
1.2609970674486803
1.249266862170088
1.2365591397849462
1.2218963831867058
1.2043010752688172
1.18475073313783
1.163245356793744
1.1397849462365592
1.1133919843597262
1.086021505376344
1.1583577712609971
1.2864125122189638
1.343108504398827
1.356793743890518
1.3479960899315735
1.3294232649071358
1.3069403714565004
1.2805474095796676
1.252199413489736
1.2238514173998043
1.1964809384164223
1.1720430107526882
1.1485826001955035
1.1329423264907137
1.121212121212121
1.1055718475073313
1.088954056695992
1.072336265884653
1.0557184750733135
1.043010752688172
1.032258064516129
1.0224828934506354
1.013685239491691
1.0068426197458455
1.0039100684261977
1.0019550342130987
1.0058651026392962
1.0117302052785924
1.0146627565982405
1.0166177908113392
1.0175953079178883
1.0175953079178883
1.0175953079178883
1.0175953079178883
1.021505376344086
1.0312805474095796
1.0488758553274682
1.0791788856304985
1.118279569892473
1.1681329423264908
1.2336265884652982
1.313782991202346
1.409579667644184
1.520039100684262
1.6422287390029326
1.772238514173998
1.905180840664712
2.0361681329423265
2.161290322580645
2.2766373411534704
2.3792766373411536
2.458455522971652
2.5190615835777126
2.5747800586510263
2.622678396871945
2.659824046920821
2.686217008797654
2.702834799608993
2.7116324535679373
2.7155425219941347
2.7126099706744866
2.704789833822092
2.6930596285435
2.678396871945259
2.662756598240469
2.643206256109482
2.618768328445748
2.587487781036168
2.552297165200391
2.5131964809384164
2.469208211143695
2.4242424242424243
2.380254154447703
2.3362658846529816
2.2932551319648096
2.254154447702835
2.222873900293255
2.1955034213098727
2.1700879765395893
2.147605083088954
2.129032258064516
2.114369501466276
2.102639296187683
2.09188660801564
2.0821114369501466
2.0733137829912023
2.0635386119257086
2.0518084066471163
2.0410557184750733
2.0303030303030303
2.016617790811339
2.0019550342130987
1.991202346041056
1.981427174975562
1.9696969696969695
1.956989247311828
1.9442815249266865
1.9315738025415443
1.9178885630498532
1.905180840664712
1.8934506353861196
1.8856304985337244
1.8778103616813293
1.8699902248289344
1.8621700879765395
1.8543499511241448
1.8465298142717497
1.8406647116324533
1.835777126099707
1.83088954056696
1.827956989247312
1.825024437927664
1.822091886608016
0.6099706744868035
0.592375366568915
0.5757575757575758
0.5620723362658846
0.5542521994134897
0.555229716520039
0.5698924731182796
0.5962854349951124
0.635386119257087
0.6911045943304008
0.7663734115347018
0.8572825024437928
0.9608993157380256
1.0733137829912025
1.1906158357771262
1.3069403714565004
1.4203323558162269
1.5268817204301075
1.6217008797653958
1.7028347996089932
1.7644183773216031
1.8103616813294232
1.8504398826979471
1.881720430107527
1.9042033235581624
1.9178885630498532
1.9237536656891496
1.9227761485826005
1.916911045943304
1.906158357771261
1.8905180840664717
1.870967741935484
1.8514173998044965
1.8299120234604105
1.801564027370479
1.7702834799608993
1.7341153470185728
1.694037145650049
1.6500488758553276
1.6041055718475072
1.5562072336265884
1.509286412512219
1.4633431085043989
1.418377321603128
1.3773216031280548
1.3450635386119256
1.321603128054741
1.2981427174975562
1.2756598240469208
1.2531769305962854
1.23069403714565
1.209188660801564
1.1896383186705768
1.1710654936461389
1.152492668621701
1.1319648093841643
1.1085043988269794
1.088954056695992
1.0713587487781036
1.0488758553274682
1.0254154447702837
1.0009775171065494
0.9736070381231672
0.946236559139785
0.9208211143695014
0.8963831867057673
0.8719452590420332
0.8475073313782991
0.8240469208211144
0.8005865102639296
0.7820136852394917
0.7663734115347018
0.7497556207233627
0.7341153470185728
0.718475073313783
0.7038123167155426
0.6901270772238515
0.6764418377321603
0.6627565982404692
0.6500488758553274
0.6392961876832844
0.6304985337243402
0.6275659824046921
0.6265884652981427
0.624633431085044
0.6197458455522972
0.6158357771260997
0.613880742913001
0.6099706744868035
0.6060606060606061
0.6041055718475073
0.6001955034213099
0.5962854349951124
0.5943304007820137
0.5982404692082112
0.6050830889540567
0.6109481915933529
0.6217008797653959
0.6412512218963832
0.6725317693059628
0.7214076246334311
0.7878787878787878
0.873900293255132
0.9775171065493646
1.093841642228739
1.2209188660801564
1.3528836754643203
1.4672531769305963
1.5708699902248289
1.6813294232649072
1.7917888563049853
1.895405669599218
1.9872922776148585
2.065493646138808
2.1300097751710654
2.1818181818181817
2.220918866080156
2.249266862170088
2.267839687194526
2.2766373411534704
2.275659824046921
2.270772238514174
2.2629521016617797
2.251221896383187
2.2355816226783967
2.21505376344086
2.190615835777126
2.163245356793744
2.1309872922776147
2.093841642228739
2.0527859237536656
2.0097751710654936
1.970674486803519
1.932551319648094
1.89247311827957
1.8533724340175952
1.8172043010752688
1.7849462365591398
1.7575757575757576
1.7360703812316716
1.7194525904203324
1.7067448680351909
1.6959921798631477
1.6871945259042034
1.6803519061583578
1.6735092864125125
1.6656891495601174
1.656891495601173
1.64613880742913
1.6334310850439884
1.619745845552297
1.606060606060606
1.5933528836754642
1.5806451612903225
1.5669599217986314
1.5532746823069403
1.5395894428152492
1.5298142717497556
1.52297165200391
1.5131964809384164
1.504398826979472
1.495601173020528
1.4838709677419355
1.474095796676442
1.4652981427174976
1.457478005865103
1.452590420332356
1.4506353861192571
1.4496578690127078
1.4496578690127078
1.4516129032258065
1.452590420332356
1.452590420332356
1.452590420332356
1.452590420332356
1.4506353861192571
1.447702834799609
1.4457478005865103
1.4437927663734116
1.4418377321603129
1.4408602150537635
1.439882697947214
1.4408602150537635
1.4428152492668622
1.4408602150537635
1.436950146627566
1.4320625610948192
1.426197458455523
1.4213098729227762
1.4193548387096775
1.525904203323558
1.6930596285434996
1.7898338220918866
1.8602150537634408
1.9178885630498532
1.9775171065493649
2.0547409579667644
2.1495601173020527
2.260019550342131
2.383186705767351
2.515151515151515
2.6510263929618767
2.7839687194525906
2.911045943304008
3.0303030303030303
3.1388074291300097
3.232649071358749
3.3010752688172045
3.35386119257087
3.406647116324536
3.4545454545454546
3.4975562072336266
3.5347018572825024
3.5669599217986314
3.5943304007820136
3.6148582600195502
3.628543499511241
3.638318670576735
3.643206256109482
3.6373411534701856
3.626588465298143
3.616813294232649
3.603128054740958
3.58455522971652
3.560117302052786
3.529814271749756
3.49266862170088
3.4486803519061584
3.3978494623655915
3.340175953079179
3.2766373411534704
3.210166177908113
3.147605083088954
3.088954056695992
3.0283479960899315
2.9687194525904204
2.9120234604105573
2.859237536656892
2.8103616813294234
2.7653958944281527
2.7233626588465296
2.6832844574780057
2.644183773216031
2.6080156402737047
2.5747800586510263
2.5425219941348973
2.5083088954056696
2.472140762463343
2.4359726295210167
2.39980449657869
