ppg
1.0048875855327468
0.9902248289345064
0.975562072336266
0.959921798631476
0.9452590420332356
0.9305962854349952
0.9159335288367546
0.9022482893450636
0.8885630498533724
0.873900293255132
0.8582600195503421
0.8484848484848485
0.8455522971652004
0.8504398826979472
0.8729227761485826
0.9217986314760508
1.002932551319648
1.1163245356793745
1.2580645161290325
1.4203323558162269
1.5923753665689149
1.7653958944281525
1.9305962854349952
2.080156402737048
2.196480938416422
2.289345063538612
2.380254154447703
2.4594330400782014
2.5249266862170088
2.5747800586510263
2.608993157380254
2.6295210166177907
2.635386119257087
2.6285434995112413
2.6099706744868034
2.5806451612903225
2.544477028347996
2.501466275659824
2.4486803519061584
2.388074291300098
2.320625610948192
2.2482893450635384
2.174975562072336
2.103616813294233
2.034213098729228
1.9687194525904204
1.90811339198436
1.8533724340175952
1.8035190615835777
1.7624633431085044
1.726295210166178
1.6881720430107527
1.6500488758553276
1.6129032258064515
1.5757575757575757
1.5405669599217986
1.5063538611925709
1.4731182795698925
1.439882697947214
1.4056695992179864
1.3724340175953078
1.3450635386119256
1.321603128054741
1.2942326490713587
1.2668621700879763
1.2394916911045943
1.2130987292277615
1.1886608015640274
1.1652003910068427
1.1436950146627567
1.1231671554252198
1.1026392961876832
1.083088954056696
1.0635386119257086
1.0488758553274682
1.0361681329423265
1.021505376344086
1.0058651026392962
0.9902248289345064
0.9765395894428152
0.9638318670576737
0.9511241446725318
0.9403714565004888
0.9296187683284456
0.9188660801564028
0.9090909090909092
0.9032258064516128
0.8983382209188661
0.8895405669599218
0.8768328445747801
0.863147605083089
0.8514173998044966
0.8465298142717498
0.855327468230694
0.8866080156402737
0.9452590420332356
1.0361681329423265
1.1593352883675463
1.3079178885630498
1.4496578690127078
1.5884652981427174
1.7438905180840665
1.900293255131965
2.046920821114369
2.1788856304985336
2.2932551319648096
2.388074291300098
2.464320625610948
2.52297165200391
2.565982404692082
2.5943304007820136
2.6050830889540566
2.603128054740958
2.593352883675464
2.573802541544477
2.5454545454545454
2.506353861192571
2.458455522971652
2.401759530791789
2.337243401759531
2.2668621700879767
2.1945259042033234
2.12316715542522
2.0557184750733137
1.9980449657869013
1.9472140762463344
1.8993157380254155
1.855327468230694
1.8162267839687196
1.7790811339198436
1.7448680351906158
1.7116324535679377
1.6803519061583578
1.6500488758553276
1.6207233626588464
1.5913978494623655
1.565982404692082
1.541544477028348
1.5151515151515151
1.487781036168133
1.4604105571847508
1.4330400782013686
1.4076246334310851
1.383186705767351
1.3587487781036167
1.3343108504398826
1.310850439882698
1.2883675464320623
1.2658846529814272
1.2473118279569892
1.23069403714565
1.2121212121212122
1.1935483870967742
1.1749755620723363
1.1564027370478984
1.13880742913001
1.1221896383186705
1.10752688172043
1.093841642228739
1.0811339198435972
1.0694037145650048
1.0625610948191593
1.0576735092864125
1.0518084066471165
1.0439882697947214
1.035190615835777
1.0263929618768328
1.0175953079178883
1.0068426197458455
0.9941348973607038
0.9824046920821116
0.9745845552297164
0.9745845552297164
0.9912023460410556
1.021505376344086
1.0733137829912025
1.1583577712609971
1.2746823069403714
1.4173998044965788
1.5777126099706744
1.7448680351906158
1.9090909090909087
2.06158357771261
2.1974584555229715
2.314760508308896
2.4134897360703813
2.4838709677419355
2.533724340175953
2.578690127077224
2.6129032258064515
2.635386119257087
2.64613880742913
2.644183773216031
2.631476050830889
2.6080156402737047
2.573802541544477
2.529814271749756
2.4760508308895406
2.419354838709677
2.360703812316716
2.294232649071359
2.2238514173998043
2.15347018572825
2.083088954056696
2.016617790811339
1.95405669599218
1.8963831867057677
1.8435972629521016
1.7956989247311828
1.7526881720430108
1.7126099706744868
1.6793743890518085
1.6500488758553276
1.6187683284457477
1.585532746823069
1.5513196480938416
1.5180840664711632
1.4858260019550342
1.4545454545454546
1.4242424242424243
1.393939393939394
1.3636363636363635
1.3343108504398826
1.3088954056695992
1.2864125122189638
1.2619745845552297
1.2365591397849462
1.2111436950146628
1.18475073313783
1.1583577712609971
1.1329423264907137
1.1094819159335287
1.0879765395894427
1.067448680351906
1.0478983382209188
1.029325513196481
1.0156402737047898
1.0048875855327468
0.9902248289345064
0.975562072336266
0.9608993157380256
0.9481915933528836
0.935483870967742
0.9227761485826002
0.9110459433040078
0.8993157380254154
0.927663734115347
0.9765395894428152
0.997067448680352
1.002932551319648
0.997067448680352
0.9902248289345064
0.9931573802541545
1.0156402737047898
1.0664711632453567
1.1505376344086022
1.2697947214076246
1.4193548387096775
1.5913978494623655
1.7741935483870968
1.9579667644183771
2.1114369501466275
2.241446725317693
2.3714565004887587
2.489736070381232
2.590420332355816
2.6725317693059627
2.73802541544477
2.7869012707722387
2.819159335288368
2.8377321603128056
2.8426197458455524
2.835777126099707
2.817204301075269
2.788856304985337
2.750733137829912
2.701857282502444
2.643206256109482
2.575757575757576
2.501466275659824
2.4222873900293256
2.3421309872922778
2.26197458455523
2.1847507331378297
2.113391984359726
2.047898338220919
1.9931573802541545
1.9472140762463344
1.9012707722385145
1.858260019550342
1.8162267839687196
1.7771260997067448
1.7390029325513197
1.7008797653958945
1.6627565982404693
1.6256109481915937
1.5894428152492668
1.5542521994134897
1.5249266862170088
1.499511241446725
1.4711632453567938
1.4418377321603129
1.412512218963832
1.383186705767351
1.3548387096774193
1.327468230694037
1.3010752688172045
1.2746823069403714
1.249266862170088
1.224828934506354
1.2003910068426198
1.181818181818182
1.166177908113392
1.1466275659824048
1.1270772238514175
1.1065493646138806
1.0869990224828934
1.0694037145650048
1.0527859237536656
1.0381231671554252
1.024437927663734
1.0117302052785924
0.9990224828934506
0.9921798631476052
0.989247311827957
0.9824046920821116
0.9726295210166178
0.9618768328445748
0.9491691104594332
0.9345063538611924
0.9217986314760508
0.9159335288367546
0.9266862170087976
0.9608993157380256
1.0263929618768328
1.1280547409579669
1.2424242424242424
1.3724340175953078
1.5356793743890518
1.715542521994135
1.8993157380254155
2.075268817204301
2.2355816226783967
2.375366568914956
2.495601173020528
2.5943304007820136
2.673509286412512
2.735092864125122
2.773216031280548
2.7947214076246336
2.8084066471163247
2.811339198435973
2.803519061583578
2.782991202346041
2.752688172043011
2.7116324535679373
2.658846529814272
2.598240469208211
2.529814271749756
2.4545454545454546
2.375366568914956
2.303030303030303
2.236559139784946
2.167155425219941
2.1006842619745845
2.0391006842619745
1.9824046920821117
1.9305962854349952
1.8826979472140764
1.8377321603128052
1.7956989247311828
1.7546432062561097
1.715542521994135
1.683284457478006
1.653958944281525
1.6207233626588464
1.5865102639296187
1.552297165200391
1.5190615835777126
1.4868035190615836
1.455522971652004
1.4242424242424243
1.393939393939394
1.364613880742913
1.3362658846529814
1.3098729227761483
1.2913000977517106
1.2746823069403714
1.2531769305962854
1.23069403714565
1.2082111436950147
1.18475073313783
1.1612903225806452
1.13880742913001
1.1173020527859236
1.0977517106549364
1.0801564027370478
1.0635386119257086
1.0527859237536656
1.0449657869012707
1.0342130987292275
1.0234604105571847
1.0117302052785924
1.0009775171065494
0.9912023460410556
0.9804496578690128
0.9687194525904204
0.956989247311828
0.9433040078201368
0.9296187683284456
0.919843597262952
0.919843597262952
0.9335288367546432
0.9648093841642228
1.024437927663734
1.1192570869990224
1.2473118279569892
1.404692082111437
1.5826001955034212
1.76930596285435
1.95405669599218
2.1270772238514173
2.283479960899316
2.403714565004888
2.498533724340176
2.5865102639296187
2.6637341153470184
2.727272727272727
2.7751710654936463
2.8084066471163247
2.8269794721407626
2.831867057673509
2.825024437927664
2.8054740957966766
2.774193548387097
2.735092864125122
2.6901270772238512
2.633431085043988
2.567937438905181
2.495601173020528
2.419354838709677
2.343108504398827
2.2688172043010755
2.198435972629521
2.134897360703812
2.0791788856304985
2.03128054740958
1.991202346041056
1.9589442815249267
1.9315738025415443
1.903225806451613
1.8748778103616808
1.8465298142717497
1.8172043010752688
1.7878787878787878
1.7575757575757576
1.7272727272727273
1.696969696969697
1.6666666666666667
1.6373411534701858
1.6129032258064515
1.5913978494623655
1.5669599217986314
1.542521994134897
1.5180840664711632
1.4936461388074291
1.4701857282502444
1.4467253176930597
1.4242424242424243
1.4027370478983383
1.3812316715542523
1.3607038123167154
1.3411534701857282
1.3255131964809383
1.3128054740957966
1.2981427174975562
1.2834799608993157
1.2697947214076246
1.2570869990224829
1.2443792766373412
1.2316715542521994
1.2209188660801564
1.2121212121212122
1.2052785923753666
1.198435972629521
1.1945259042033236
1.1906158357771262
1.1827956989247312
1.1720430107526882
1.1612903225806452
1.1515151515151516
1.1485826001955035
1.1612903225806452
1.1974584555229717
1.2639296187683284
1.3636363636363635
1.4965786901270772
1.6549364613880744
1.8054740957966764
1.951124144672532
2.113391984359726
2.2737047898338223
2.4574780058651027
2.641251221896383
2.7810361681329425
2.887585532746823
2.9687194525904204
3.029325513196481
3.069403714565005
3.090909090909091
3.0948191593352883
3.085043988269794
3.0664711632453567
3.038123167155425
2.99902248289345
2.9501466275659824
2.8905180840664717
2.822091886608016
2.7468230694037143
2.668621700879765
2.589442815249267
2.512218963831867
2.4389051808406648
2.377321603128055
2.32355816226784
2.270772238514174
2.220918866080156
2.174975562072336
2.132942326490713
2.093841642228739
2.0557184750733137
2.018572825024438
1.9824046920821117
1.946236559139785
1.911045943304008
1.881720430107527
1.8543499511241448
1.825024437927664
1.793743890518084
1.761485826001955
1.729227761485826
1.6979472140762464
1.667644183773216
1.6392961876832846
1.6099706744868034
1.581622678396872
1.5542521994134897
1.5278592375366569
1.5063538611925709
1.487781036168133
1.466275659824047
1.4437927663734116
1.4203323558162269
1.3978494623655917
1.375366568914956
1.35386119257087
1.335288367546432
1.3176930596285434
1.3020527859237536
1.2873900293255132
1.2776148582600195
1.2688172043010753
1.2580645161290325
1.2473118279569892
1.2365591397849462
1.2238514173998043
1.2101661779081134
1.195503421309873
1.1798631476050832
1.166177908113392
1.1593352883675463
1.1671554252199414
1.2003910068426198
1.252199413489736
1.327468230694037
1.4418377321603129
1.590420332355816
1.7624633431085044
1.945259042033236
2.1280547409579667
2.302052785923754
2.4594330400782014
2.595307917888563
2.7096774193548385
2.803519061583578
2.868035190615836
2.911045943304008
2.946236559139785
2.9696969696969697
2.981427174975562
2.981427174975562
2.9696969696969697
2.9472140762463344
2.913000977517106
2.868035190615836
2.8132942326490715
2.748778103616813
2.67644183773216
2.6070381231671558
2.5386119257087
2.464320625610948
2.389051808406647
2.315738025415445
2.24633431085044
2.182795698924731
2.1251221896383186
2.072336265884653
2.024437927663734
1.9794721407624636
1.9374389051808407
1.902248289345064
1.8699902248289344
1.8347996089931573
1.7996089931573802
1.7644183773216031
1.7302052785923754
1.696969696969697
1.6627565982404693
1.629521016617791
1.598240469208211
1.565982404692082
1.5347018572825024
1.5053763440860215
1.4819159335288368
1.4613880742913
1.436950146627566
1.4115347018572826
1.3861192570869991
1.359726295210166
1.335288367546432
1.3128054740957966
1.29227761485826
1.2727272727272727
1.2541544477028348
1.2365591397849462
1.2238514173998043
1.2140762463343109
1.2003910068426198
1.187683284457478
1.1759530791788857
1.164222873900293
1.152492668621701
1.1407624633431086
1.1290322580645162
1.1173020527859236
1.104594330400782
1.0899315738025417
1.0742913000977516
1.0635386119257086
1.0586510263929618
1.0576735092864125
1.072336265884653
1.1114369501466277
1.1827956989247312
1.2903225806451613
1.4320625610948192
1.5992179863147604
1.7810361681329423
1.9657869012707725
2.144672531769306
2.290322580645161
2.4115347018572826
2.530791788856305
2.638318670576735
2.729227761485826
2.803519061583578
2.859237536656892
2.898338220918866
2.921798631476051
2.930596285434995
2.9257086999022484
2.909090909090909
2.8826979472140764
2.8475073313782997
2.8025415444770285
2.747800586510264
2.6832844574780057
2.611925708699902
2.535679374389052
2.4574780058651027
2.380254154447703
2.3059628543499517
2.236559139784946
2.172043010752688
2.114369501466276
2.067448680351906
2.0283479960899315
1.988269794721408
1.948191593352884
1.9090909090909087
1.870967741935484
1.833822091886608
1.796676441837732
1.7595307917888563
1.7233626588465298
1.6901270772238517
1.6588465298142718
1.632453567937439
1.6099706744868034
1.58455522971652
1.5571847507331378
1.5288367546432062
1.499511241446725
1.4711632453567938
1.4428152492668622
1.41544477028348
1.3890518084066472
1.3626588465298142
1.3372434017595307
1.3128054740957966
1.2942326490713587
1.2805474095796676
1.2649071358748778
1.2482893450635386
1.2316715542521994
1.2140762463343109
1.198435972629521
1.18475073313783
1.1720430107526882
1.160312805474096
1.1495601173020529
1.13880742913001
1.1319648093841643
1.1280547409579669
1.1202346041055715
1.110459433040078
1.0987292277614855
1.0850439882697946
1.0713587487781036
1.06158357771261
1.0635386119257086
1.0850439882697946
1.1348973607038124
1.219941348973607
1.3391984359726294
1.466275659824047
1.603128054740958
1.7702834799608993
1.948191593352884
2.124144672531769
2.2883675464320627
2.4349951124144678
2.563049853372434
2.6695992179863146
2.7565982404692084
2.8240469208211145
2.8729227761485827
2.900293255131965
2.9120234604105573
2.9149560117302054
2.90811339198436
2.8905180840664717
2.8611925708699903
2.8211143695014664
2.7702834799608995
2.710654936461388
2.6422287390029324
2.567937438905181
2.4672531769305963
2.356793743890518
2.272727272727273
2.204301075268817
2.1388074291300097
2.078201368523949
2.0234604105571847
1.9745845552297163
1.9305962854349952
1.8905180840664717
1.8543499511241448
1.8201368523949168
1.7869012707722385
1.7526881720430108
1.7243401759530792
1.6979472140762464
1.6686217008797657
1.6383186705767352
1.6080156402737047
1.5786901270772238
1.5503421309872922
1.52297165200391
1.4965786901270772
1.4701857282502444
1.444770283479961
1.4193548387096775
1.3958944281524928
1.3773216031280548
1.3616813294232648
1.3421309872922775
1.3225806451612905
1.303030303030303
1.284457478005865
1.2668621700879763
1.2512218963831867
1.2355816226783969
1.2209188660801564
1.2072336265884651
1.1945259042033236
1.187683284457478
1.1837732160312806
1.176930596285435
1.1691104594330402
1.1612903225806452
1.1534701857282503
1.1456500488758554
1.1368523949169111
1.1280547409579669
1.118279569892473
1.10752688172043
1.0977517106549364
1.0918866080156402
1.0957966764418376
1.115347018572825
1.1573802541544478
1.2287390029325511
1.3333333333333333
1.469208211143695
1.629521016617791
1.804496578690127
1.9843597262952104
2.158357771260997
2.3196480938416424
2.463343108504399
2.572825024437928
2.6578690127077222
2.73802541544477
2.806451612903226
2.8611925708699903
2.9012707722385143
2.9257086999022484
2.9345063538611926
2.929618768328446
2.913000977517106
2.884652981427175
2.8455522971652005
2.7966764418377323
2.7438905180840663
2.687194525904203
2.622678396871945
2.5532746823069403
2.4809384164222874
2.410557184750733
2.343108504398827
2.280547409579668
2.2238514173998043
2.1739980449657867
2.1300097751710654
2.089931573802541
2.056695992179863
2.0283479960899315
1.9980449657869013
1.967741935483871
1.93841642228739
1.911045943304008
1.8836754643206255
1.857282502443793
1.8328445747800584
1.8093841642228736
1.7859237536656891
1.7634408602150538
1.739980449657869
1.7194525904203324
1.699902248289345
1.675464320625611
1.6500488758553276
1.6236559139784943
1.598240469208211
1.5728250244379276
1.5483870967741935
1.5249266862170088
1.501466275659824
1.478983382209189
1.457478005865103
1.4418377321603129
1.4291300097751711
1.414467253176931
1.4007820136852396
1.388074291300098
1.3773216031280548
1.3665689149560116
1.3558162267839686
1.3450635386119256
1.335288367546432
1.3255131964809383
1.313782991202346
1.305962854349951
1.2981427174975562
1.2864125122189638
1.2717497556207231
1.2570869990224829
1.2473118279569892
1.2482893450635386
1.2668621700879763
1.3118279569892473
1.388074291300098
1.498533724340176
1.6392961876832846
1.8005865102639296
1.949169110459433
2.0879765395894427
2.2385141739980448
2.3851417399804498
2.520039100684262
2.6373411534701856
2.735092864125122
2.814271749755621
2.87683284457478
2.9237536656891496
2.956011730205278
2.973607038123167
2.9765395894428157
2.9667644183773216
2.949169110459433
2.921798631476051
2.8836754643206257
2.835777126099707
2.7781036168132944
2.7116324535679373
2.638318670576735
2.5620723362658846
2.484848484848485
2.4086021505376345
2.3362658846529816
2.274682306940372
2.220918866080156
2.1681329423264906
2.1192570869990224
2.074291300097752
2.032258064516129
1.992179863147605
1.9521016617790807
1.9120234604105573
1.8729227761485825
1.8347996089931573
1.796676441837732
1.7644183773216031
1.7350928641251222
1.7038123167155426
1.6715542521994136
1.640273704789834
1.608993157380254
1.5796676441837731
1.5503421309872922
1.520039100684262
1.4897360703812317
1.4604105571847508
1.43108504398827
1.4027370478983383
1.380254154447703
1.3607038123167154
1.33822091886608
1.3147605083088951
1.29227761485826
1.270772238514174
1.2512218963831867
1.2326490713587488
1.2160312805474096
1.2013685239491692
1.187683284457478
1.1749755620723363
1.166177908113392
1.160312805474096
1.152492668621701
1.142717497556207
1.1329423264907137
1.1221896383186705
1.1094819159335287
1.0948191593352885
1.078201368523949
1.06158357771261
1.050830889540567
1.0527859237536656
1.0772238514173995
1.1192570869990224
1.1857282502443791
1.289345063538612
1.4252199413489737
1.585532746823069
1.7605083088954057
1.9393939393939397
2.112414467253177
2.271749755620724
2.4134897360703813
2.5347018572825024
2.6373411534701856
2.710654936461388
2.763440860215054
2.809384164222874
2.843597262952102
2.8641251221896384
2.870967741935484
2.866080156402737
2.849462365591398
2.822091886608016
2.78494623655914
2.73802541544477
2.681329423264907
2.616813294232649
2.5532746823069403
2.4887585532746823
2.418377321603128
2.345063538611926
2.2737047898338223
2.206256109481916
2.1436950146627565
2.0879765395894427
2.037145650048876
1.991202346041056
1.949169110459433
1.9100684261974583
1.8758553274682308
1.844574780058651
1.8113391984359728
1.7771260997067448
1.7429130009775171
1.7028347996089932
1.66177908113392
1.6256109481915937
1.5923753665689149
1.5620723362658846
1.5317693059628543
1.5024437927663734
1.474095796676442
1.4506353861192571
1.4301075268817205
1.4076246334310851
1.383186705767351
1.356793743890518
1.3304007820136852
1.3049853372434017
1.2805474095796676
1.2570869990224829
1.2355816226783969
1.2150537634408602
1.195503421309873
1.1808406647116323
1.1691104594330402
1.1564027370478984
1.1436950146627567
1.130987292277615
1.118279569892473
1.1065493646138806
1.0948191593352885
1.0850439882697946
1.0762463343108504
1.067448680351906
1.0576735092864125
1.0469208211143697
1.0391006842619743
1.0332355816226784
1.0254154447702837
1.0224828934506354
1.0332355816226784
1.0654936461388074
1.1280547409579669
1.2238514173998043
1.3528836754643203
1.509286412512219
1.686217008797654
1.8699902248289344
2.0283479960899315
2.167155425219941
2.3098729227761488
2.443792766373412
2.5610948191593352
2.659824046920821
2.7390029325513194
2.7996089931573804
2.843597262952102
2.8719452590420333
2.8856304985337244
2.8856304985337244
2.8729227761485827
2.849462365591398
2.817204301075269
2.774193548387097
2.721407624633431
2.658846529814272
2.587487781036168
2.512218963831867
2.434017595307918
2.356793743890518
2.2825024437927666
2.212121212121212
2.147605083088954
2.0948191593352883
2.048875855327468
2.003910068426197
1.9618768328445748
1.9227761485826005
1.884652981427175
1.847507331378299
1.8103616813294232
1.775171065493646
1.739980449657869
1.7057673509286413
1.6715542521994136
1.6373411534701858
1.608993157380254
1.585532746823069
1.560117302052786
1.533724340175953
1.5073313782991202
1.479960899315738
1.4535679374389052
1.4271749755620724
1.401759530791789
1.3763440860215057
1.3528836754643203
1.3313782991202343
1.313782991202346
1.300097751710655
1.2834799608993157
1.2658846529814272
1.2482893450635386
1.2316715542521994
1.2160312805474096
1.2023460410557183
1.1896383186705768
1.1788856304985338
1.1691104594330402
1.1612903225806452
1.1573802541544478
1.155425219941349
1.1505376344086022
1.144672531769306
1.1368523949169111
1.1290322580645162
1.1202346041055715
1.1094819159335287
1.099706744868035
1.0918866080156402
1.0899315738025417
1.1016617790811338
1.1358748778103618
1.1857282502443791
1.2580645161290325
1.3685239491691104
1.5112414467253177
1.6774193548387095
1.857282502443793
2.0391006842619745
2.212121212121212
2.3704789833822093
2.5102639296187683
2.63049853372434
2.7311827956989245
2.801564027370479
2.850439882697948
2.89345063538612
2.9266862170087977
2.9472140762463344
2.9550342130987293
2.9501466275659824
2.932551319648094
2.903225806451613
2.86217008797654
2.8103616813294234
2.7497556207233624
2.6823069403714563
2.616813294232649
2.552297165200391
2.482893450635386
2.4134897360703813
2.347018572825025
2.286412512218964
2.232649071358749
2.1847507331378297
2.1417399804496577
2.103616813294233
2.0664711632453567
2.0303030303030303
1.9980449657869013
1.967741935483871
1.935483870967742
1.903225806451613
1.871945259042033
1.8416422287390029
1.812316715542522
1.782991202346041
1.7556207233626588
1.7272727272727273
1.6979472140762464
1.6686217008797657
1.6392961876832846
1.6148582600195502
1.5933528836754642
1.5698924731182795
1.5454545454545454
1.521016617790811
1.4975562072336266
1.4750733137829912
1.4545454545454546
1.4349951124144673
1.4173998044965788
1.3998044965786902
1.3822091886608017
1.3695014662756595
1.3587487781036167
1.3450635386119256
1.332355816226784
1.3196480938416422
1.3069403714565004
1.2961876832844574
1.2854349951124144
1.2746823069403714
1.2639296187683284
1.2531769305962854
1.241446725317693
1.2287390029325511
1.2189638318670577
1.2111436950146628
1.203323558162268
1.2013685239491692
1.2140762463343109
1.249266862170088
1.3147605083088951
1.4134897360703813
1.543499511241447
1.6979472140762464
1.868035190615836
2.043010752688172
2.1915933528836757
2.3196480938416424
2.449657869012708
2.5698924731182795
2.675464320625611
2.763440860215054
2.833822091886608
2.887585532746823
2.9266862170087977
2.951124144672532
2.961876832844575
2.959921798631476
2.946236559139785
2.9227761485826003
2.889540566959922
2.8455522971652005
2.791788856304985
2.729227761485826
2.6578690127077222
2.579667644183773
2.498533724340176
2.4173998044965788
2.3382209188660803
2.2639296187683287
2.1955034213098727
2.139784946236559
2.09188660801564
2.0449657869012707
2.0019550342130987
