ppg
2.5992179863147604
2.6881720430107525
2.763440860215054
2.823069403714565
2.868035190615836
2.900293255131965
2.920821114369501
2.9315738025415445
2.9345063538611926
2.9286412512218964
2.9149560117302054
2.895405669599218
2.8699902248289346
2.8396871945259043
2.803519061583578
2.7595307917888565
2.7096774193548385
2.6529814271749754
2.5884652981427174
2.5180840664711632
2.442815249266862
2.364613880742913
2.286412512218964
2.218963831867057
2.157380254154448
2.0957966764418376
2.0391006842619745
1.989247311827957
1.9472140762463344
1.913978494623656
1.8866080156402736
1.865102639296188
1.847507331378299
1.8318670576735088
1.8172043010752688
1.8054740957966764
1.7947214076246334
1.7849462365591398
1.775171065493646
1.7644183773216031
1.75366568914956
1.7419354838709675
1.729227761485826
1.7145650048875856
1.7008797653958945
1.6871945259042034
1.672531769305963
1.6578690127077225
1.64613880742913
1.635386119257087
1.6217008797653958
1.6080156402737047
1.5943304007820136
1.5826001955034212
1.5708699902248289
1.5591397849462365
1.5483870967741935
1.5395894428152492
1.533724340175953
1.5288367546432062
1.5278592375366569
1.5288367546432062
1.5278592375366569
1.525904203323558
1.52297165200391
1.517106549364614
1.5102639296187683
1.501466275659824
1.4887585532746823
1.474095796676442
1.456500488758553
1.436950146627566
1.4193548387096775
1.4076246334310851
1.404692082111437
1.4134897360703813
1.4418377321603129
1.495601173020528
1.576735092864125
1.6842619745845553
1.812316715542522
1.9521016617790807
2.0928641251221896
2.228739002932551
2.3519061583577714
2.44672531769306
2.5190615835777126
2.587487781036168
2.6451612903225805
2.689149560117302
2.7223851417399803
2.745845552297165
2.7595307917888565
2.764418377321604
2.7614858260019552
2.7517106549364616
2.736070381231672
2.713587487781036
2.686217008797654
2.654936461388074
2.616813294232649
2.5718475073313782
2.5190615835777126
2.4604105571847508
2.3958944281524928
2.326490713587488
2.254154447702835
2.1808406647116323
2.110459433040078
2.0439882697947214
1.989247311827957
1.943304007820137
1.900293255131965
1.8631476050830889
1.8328445747800584
1.8103616813294232
1.7927663734115349
1.780058651026393
1.7712609970674489
1.7644183773216031
1.7575757575757576
1.750733137829912
1.7448680351906158
1.7380254154447703
1.729227761485826
1.718475073313783
1.7057673509286413
1.694037145650049
1.6823069403714566
1.6695992179863148
1.6559139784946235
1.643206256109482
1.6314760508308896
1.619745845552297
1.608993157380254
1.6021505376344083
1.5972629521016617
1.5894428152492668
1.5796676441837731
1.5698924731182795
1.5620723362658846
1.555229716520039
1.5493646138807429
1.543499511241447
1.5405669599217986
1.5386119257087
1.5376344086021505
1.5386119257087
1.5395894428152492
1.5386119257087
1.5347018572825024
1.530791788856305
1.5268817204301075
1.521994134897361
1.5141739980449658
1.5034213098729228
1.490713587487781
1.479960899315738
1.4750733137829912
1.4819159335288368
1.500488758553275
1.5356793743890518
1.5972629521016617
1.6842619745845553
1.793743890518084
1.9178885630498532
2.0498533724340176
2.1788856304985336
2.2991202346041058
2.404692082111437
2.493646138807429
2.5650048875855327
2.6129032258064515
2.6451612903225805
2.6725317693059627
2.6930596285435
2.705767350928641
2.710654936461388
2.708699902248289
2.6989247311827955
2.6832844574780057
2.662756598240469
2.636363636363636
2.6041055718475072
2.567937438905181
2.530791788856305
2.490713587487781
2.443792766373412
2.391006842619746
2.332355816226784
2.2688172043010755
2.203323558162268
2.136852394916911
2.070381231671554
2.007820136852395
1.951124144672532
1.900293255131965
1.86119257086999
1.8299120234604105
1.801564027370479
1.7781036168132942
1.7595307917888563
1.7448680351906158
1.7311827956989247
1.7194525904203324
1.7096774193548387
1.7008797653958945
1.6920821114369502
1.6842619745845553
1.6764418377321604
1.6695992179863148
1.66177908113392
1.651026392961877
1.6373411534701858
1.6217008797653958
1.6050830889540566
1.5884652981427174
1.5698924731182795
1.5503421309872922
1.530791788856305
1.5112414467253177
1.490713587487781
1.4731182795698925
1.456500488758553
1.435972629521017
1.412512218963832
1.3870967741935485
1.359726295210166
1.3304007820136852
1.2267839687194526
1.0840664711632453
0.9941348973607038
0.9315738025415444
0.8836754643206256
0.8435972629521017
0.8162267839687195
0.7956989247311828
0.772238514173998
0.7487781036168133
0.7262952101661779
0.7038123167155426
0.6842619745845552
0.6695992179863147
0.6647116324535679
0.6774193548387096
0.7145650048875856
0.782991202346041
0.8690127077223851
0.9765395894428152
1.1221896383186705
1.2942326490713587
1.479960899315738
1.6656891495601174
1.842619745845552
2.002932551319648
2.1417399804496577
2.260019550342131
2.3597262952101663
2.4408602150537635
2.506353861192571
2.550342130987292
2.579667644183773
2.6050830889540566
2.621700879765396
2.6285434995112413
2.6285434995112413
2.619745845552297
2.601173020527859
2.573802541544477
2.536656891495601
2.489736070381232
2.4330400782013686
2.375366568914956
2.313782991202346
2.239491691104594
2.155425219941349
2.067448680351906
1.978494623655914
1.89247311827957
1.8132942326490715
1.7429130009775171
1.683284457478006
1.6334310850439884
1.5923753665689149
1.560117302052786
1.5386119257087
1.5239491691104594
1.5112414467253177
1.5024437927663734
1.4975562072336266
1.4936461388074291
1.490713587487781
1.4868035190615836
1.4819159335288368
1.4750733137829912
1.4652981427174976
1.4535679374389052
1.444770283479961
1.435972629521017
1.4242424242424243
1.412512218963832
1.4007820136852396
1.388074291300098
1.3763440860215057
1.3655913978494625
1.35386119257087
1.3421309872922775
1.3313782991202343
1.321603128054741
1.313782991202346
1.3088954056695992
1.305962854349951
1.3020527859237536
1.2991202346041055
1.2981427174975562
1.2971652003910068
1.2961876832844574
1.2932551319648091
1.2903225806451613
1.2873900293255132
1.284457478005865
1.281524926686217
1.2795698924731185
1.2776148582600195
1.270772238514174
1.2590420332355816
1.2453567937438903
1.2316715542521994
1.2228739002932552
1.2267839687194526
1.2512218963831867
1.300097751710655
1.380254154447703
1.4936461388074291
1.611925708699902
1.737047898338221
1.8866080156402736
2.04594330400782
2.201368523949169
2.343108504398827
2.4652981427174976
2.5669599217986314
2.6471163245356792
2.708699902248289
2.7546432062561097
2.7869012707722387
2.807429130009776
2.814271749755621
2.811339198435973
2.8025415444770285
2.787878787878788
2.7653958944281527
2.735092864125122
2.6959921798631474
2.6471163245356792
2.5884652981427174
2.5219941348973607
2.447702834799609
2.364613880742913
2.286412512218964
2.212121212121212
2.1309872922776147
2.048875855327468
1.9696969696969695
1.8993157380254155
1.8377321603128052
1.7859237536656891
1.7448680351906158
1.7135874877810362
1.6881720430107527
1.6686217008797657
1.653958944281525
1.643206256109482
1.635386119257087
1.6256109481915937
1.6158357771260996
1.607038123167155
1.5992179863147604
1.5923753665689149
1.58455522971652
1.5747800586510263
1.563049853372434
1.5503421309872922
1.5366568914956011
1.5239491691104594
1.5141739980449658
1.504398826979472
1.4946236559139785
1.4838709677419355
1.474095796676442
1.4643206256109482
1.455522971652004
1.447702834799609
1.4428152492668622
1.4379276637341154
1.434017595307918
1.4320625610948192
1.43108504398827
1.4320625610948192
1.434017595307918
1.4349951124144673
1.434017595307918
1.4320625610948192
1.4281524926686218
1.4203323558162269
1.409579667644184
1.396871945259042
1.380254154447703
1.359726295210166
1.3401759530791788
1.321603128054741
1.300097751710655
1.2805474095796676
1.2727272727272727
1.284457478005865
1.3235581622678396
1.3949169110459434
1.500488758553275
1.6373411534701858
1.796676441837732
1.9667644183773216
2.1358748778103616
2.274682306940372
2.389051808406647
2.5004887585532747
2.598240469208211
2.678396871945259
2.740957966764418
2.7869012707722387
2.8181818181818183
2.8367546432062563
2.844574780058651
2.843597262952102
2.833822091886608
2.8152492668621703
2.787878787878788
2.7536656891495603
2.710654936461388
2.659824046920821
2.60019550342131
2.530791788856305
2.452590420332356
2.366568914956012
2.274682306940372
2.1788856304985336
2.0840664711632453
1.9931573802541545
1.9188660801564028
1.858260019550342
1.8035190615835777
1.758553274682307
1.7253176930596286
1.7008797653958945
1.6842619745845553
1.6735092864125125
1.6666666666666667
1.66177908113392
1.6578690127077225
1.6529814271749756
1.6480938416422288
1.6422287390029326
1.6334310850439884
1.6217008797653958
1.607038123167155
1.5913978494623655
1.5728250244379276
1.552297165200391
1.5298142717497556
1.5073313782991202
1.4838709677419355
1.4604105571847508
1.4379276637341154
1.4203323558162269
1.404692082111437
1.3870967741935485
1.3685239491691104
1.348973607038123
1.3294232649071358
1.3098729227761483
1.29227761485826
1.2766373411534702
1.2619745845552297
1.2482893450635386
1.2346041055718475
1.2238514173998043
1.289345063538612
1.3890518084066472
1.4320625610948192
1.444770283479961
1.4428152492668622
1.43108504398827
1.4134897360703813
1.392961876832845
1.3695014662756595
1.3440860215053765
1.3235581622678396
1.3128054740957966
1.3157380254154447
1.3372434017595307
1.3841642228739004
1.4623655913978495
1.5718475073313782
1.7096774193548387
1.866080156402737
2.03128054740958
2.193548387096774
2.345063538611926
2.4789833822091887
2.593352883675464
2.675464320625611
2.7341153470185726
2.7839687194525906
2.822091886608016
2.8484848484848486
2.863147605083089
2.8670576735092865
2.860215053763441
2.8426197458455524
2.817204301075269
2.782013685239492
2.7390029325513194
2.6881720430107525
2.635386119257087
2.578690127077224
2.5083088954056696
2.4281524926686218
2.340175953079179
2.247311827956989
2.15347018572825
2.06158357771261
1.9736070381231672
1.8934506353861196
1.822091886608016
1.761485826001955
1.7165200391006843
1.6842619745845553
1.656891495601173
1.6363636363636365
1.6207233626588464
1.608993157380254
1.6001955034213098
1.5933528836754642
1.5884652981427174
1.585532746823069
1.5826001955034212
1.581622678396872
1.5806451612903225
1.581622678396872
1.5826001955034212
1.581622678396872
1.5806451612903225
1.5786901270772238
1.576735092864125
1.573802541544477
1.5708699902248289
1.5650048875855327
1.5581622678396871
1.552297165200391
1.5464320625610948
1.544477028347996
1.544477028347996
1.543499511241447
1.543499511241447
1.5454545454545454
1.547409579667644
1.5503421309872922
1.552297165200391
1.5532746823069403
1.5532746823069403
1.5513196480938416
1.5503421309872922
1.5513196480938416
1.552297165200391
1.5513196480938416
1.5483870967741935
1.543499511241447
1.5356793743890518
1.525904203323558
1.5151515151515151
1.5083088954056696
1.512218963831867
1.533724340175953
1.5806451612903225
1.6578690127077225
1.7468230694037146
1.8533724340175952
1.9960899315738023
2.161290322580645
2.3362658846529816
2.50733137829912
2.665689149560117
2.8044965786901277
2.919843597262952
3.013685239491691
3.086021505376344
3.139784946236559
3.172043010752688
3.190615835777126
3.206256109481916
3.2140762463343107
3.2130987292277613
3.203323558162268
3.1847507331378297
3.158357771260997
3.12316715542522
3.078201368523949
3.0234604105571847
2.959921798631476
2.886608015640274
2.8152492668621703
2.740957966764418
2.653958944281525
2.560117302052786
2.466275659824047
2.3743890518084068
2.286412512218964
2.2052785923753664
2.133919843597263
2.070381231671554
2.016617790811339
1.9716520039100685
1.9374389051808407
1.9100684261974583
1.8866080156402736
1.865102639296188
1.8465298142717497
1.8299120234604105
1.8162267839687196
1.8035190615835777
1.790811339198436
1.7790811339198436
1.7683284457478006
1.758553274682307
1.7497556207233629
1.7429130009775171
1.7380254154447703
1.7311827956989247
1.7233626588465298
1.7165200391006843
1.7086999022482894
1.7008797653958945
1.694037145650049
1.6881720430107527
1.6823069403714566
1.6793743890518085
1.6774193548387095
1.6774193548387095
1.6774193548387095
1.6764418377321604
1.6764418377321604
1.6764418377321604
1.6764418377321604
1.6764418377321604
1.6764418377321604
1.6764418377321604
1.6744868035190617
1.6695992179863148
1.6608015640273706
1.6480938416422288
1.6363636363636365
1.6226783968719452
1.6041055718475072
1.5835777126099706
1.5679374389051808
1.5650048875855327
1.581622678396872
1.6236559139784943
1.696969696969697
1.8025415444770283
1.9364613880742916
2.09188660801564
2.2355816226783967
2.3714565004887587
2.520039100684262
2.664711632453568
2.7947214076246336
2.906158357771261
2.9960899315738025
3.067448680351906
3.120234604105572
3.157380254154448
3.1818181818181817
3.1945259042033234
3.1974584555229715
3.189638318670577
3.1739980449657867
3.1544477028347995
3.1300097751710654
3.099706744868035
3.0635386119257086
3.0205278592375366
2.970674486803519
2.9120234604105573
2.8455522971652005
2.773216031280548
2.696969696969697
2.627565982404692
2.5620723362658846
2.49266862170088
2.426197458455523
2.363636363636364
2.30791788856305
2.260997067448681
2.220918866080156
2.187683284457478
2.1593352883675463
2.134897360703812
2.113391984359726
2.0948191593352883
2.080156402737048
2.067448680351906
2.0547409579667644
2.042033235581622
2.029325513196481
2.0146627565982405
1.9980449657869013
1.978494623655914
1.9589442815249267
1.93841642228739
1.9178885630498532
1.8973607038123168
1.8807429130009776
1.869012707722385
1.8563049853372435
1.844574780058651
1.835777126099707
1.827956989247312
1.8211143695014664
1.8142717497556209
1.8084066471163245
1.8025415444770283
1.7976539589442817
1.7956989247311828
1.793743890518084
1.7927663734115349
1.7917888563049853
1.7898338220918866
1.7859237536656891
1.780058651026393
1.772238514173998
1.7634408602150538
1.6813294232649072
1.5610948191593352
1.4897360703812317
1.4418377321603129
1.4076246334310851
1.3861192570869991
1.375366568914956
1.3763440860215057
1.3988269794721409
1.4496578690127078
1.5317693059628543
1.64613880742913
1.7888563049853372
1.949169110459433
2.1163245356793743
2.2795698924731185
2.43108504398827
2.5640273704789838
2.6608015640273703
2.7311827956989245
2.793743890518084
2.841642228739003
2.87683284457478
2.8993157380254155
2.909090909090909
2.906158357771261
2.8914956011730206
2.868035190615836
2.834799608993157
2.793743890518084
2.748778103616813
2.699902248289345
2.641251221896383
2.5747800586510263
2.4995112414467253
2.4164222873900294
2.3274682306940373
2.233626588465298
2.136852394916911
2.043010752688172
1.95405669599218
1.873900293255132
1.8035190615835777
1.7487781036168133
1.7067448680351909
1.6695992179863148
1.640273704789834
1.619745845552297
1.607038123167155
1.6001955034213098
1.5992179863147604
1.603128054740958
1.608993157380254
1.6158357771260996
1.6217008797653958
1.6265884652981428
1.6285434995112416
1.6285434995112416
1.6256109481915937
1.6207233626588464
1.6138807429130009
1.6050830889540566
1.5972629521016617
1.5884652981427174
1.5777126099706744
1.5650048875855327
1.5503421309872922
1.5366568914956011
1.5239491691104594
1.5083088954056696
1.4916911045943304
1.4750733137829912
1.4594330400782014
1.4437927663734116
1.4281524926686218
1.412512218963832
1.3998044965786902
1.3890518084066472
1.3773216031280548
1.3655913978494625
1.356793743890518
1.348973607038123
1.3372434017595307
1.3225806451612905
1.3049853372434017
1.284457478005865
1.260019550342131
1.2346041055718475
1.2121212121212122
1.1974584555229717
1.1964809384164223
1.2189638318670577
1.2580645161290325
1.3206256109481915
1.4193548387096775
1.5483870967741935
1.7018572825024438
1.8670576735092863
2.034213098729228
2.1915933528836757
2.333333333333333
2.453567937438905
2.549364613880743
2.622678396871945
2.67644183773216
2.708699902248289
2.7253176930596283
2.735092864125122
2.736070381231672
2.7282502443792764
2.710654936461388
2.6823069403714563
2.64613880742913
2.601173020527859
2.548387096774193
2.486803519061584
2.41544477028348
2.346041055718475
2.2737047898338223
2.187683284457478
2.0928641251221896
1.992179863147605
1.8885630498533723
1.7859237536656891
1.6881720430107527
1.598240469208211
1.5180840664711632
1.4506353861192571
1.3949169110459434
1.3509286412512218
1.321603128054741
1.303030303030303
1.2864125122189638
1.2727272727272727
1.2609970674486803
1.252199413489736
1.2443792766373412
1.2375366568914956
1.23069403714565
1.2228739002932552
1.2140762463343109
1.206256109481916
1.2013685239491692
1.1974584555229717
1.1906158357771262
1.1827956989247312
1.1730205278592376
1.1612903225806452
1.1505376344086022
1.1407624633431086
1.130987292277615
1.121212121212121
1.1124144672531768
1.1055718475073313
1.0987292277614855
1.0957966764418376
1.0957966764418376
1.093841642228739
1.0918866080156402
1.0879765395894427
1.083088954056696
1.078201368523949
1.0742913000977516
1.0703812316715542
1.0654936461388074
1.0586510263929618
1.050830889540567
1.04594330400782
1.0410557184750733
1.029325513196481
1.0127077223851415
0.9941348973607038
0.9736070381231672
0.956989247311828
0.9521016617790812
0.9657869012707724
1.0068426197458455
1.0801564027370478
1.187683284457478
1.327468230694037
1.4672531769305963
1.608993157380254
1.7712609970674489
1.935483870967742
2.088954056695992
2.2248289345063537
2.3382209188660803
2.429130009775171
2.498533724340176
2.549364613880743
2.5835777126099706
2.6041055718475072
2.610948191593353
2.6080156402737047
2.60019550342131
2.5855327468230693
2.5650048875855327
2.539589442815249
2.50733137829912
2.466275659824047
2.4173998044965788
2.358748778103617
2.291300097751711
2.2170087976539588
2.1378299120234603
2.0664711632453567
2.0
1.927663734115347
1.858260019550342
1.7947214076246334
1.7390029325513197
1.6920821114369502
1.6549364613880744
1.624633431085044
1.6041055718475072
1.590420332355816
1.581622678396872
1.5786901270772238
1.5777126099706744
1.5777126099706744
1.5786901270772238
1.5796676441837731
1.5796676441837731
1.5777126099706744
1.5728250244379276
1.5650048875855327
1.5532746823069403
1.5376344086021505
1.5190615835777126
1.498533724340176
1.4809384164222874
1.4652981427174976
1.4467253176930597
1.4252199413489737
1.4037145650048877
1.383186705767351
1.3636363636363635
1.346041055718475
1.3294232649071358
1.3147605083088951
1.3020527859237536
1.29227761485826
1.2883675464320623
1.2873900293255132
1.2873900293255132
1.2873900293255132
1.2854349951124144
1.2825024437927663
1.278592375366569
1.2717497556207231
1.262952101661779
1.2512218963831867
1.2365591397849462
1.219941348973607
1.2013685239491692
1.1857282502443791
1.1896383186705768
1.203323558162268
1.2140762463343109
1.2355816226783969
1.2795698924731185
1.3528836754643203
1.458455522971652
1.5933528836754642
1.750733137829912
1.9188660801564028
2.085043988269794
2.2218963831867056
2.334310850439883
2.441837732160313
2.532746823069404
2.603128054740958
2.654936461388074
2.6901270772238512
2.7096774193548385
2.717497556207233
2.717497556207233
2.710654936461388
2.6959921798631474
2.674486803519061
2.6471163245356792
2.6129032258064515
2.570869990224829
2.5210166177908118
2.4613880742913
2.3929618768328447
2.3167155425219943
2.2355816226783967
2.1515151515151514
2.0684261974584555
1.988269794721408
1.913978494623656
1.8533724340175952
1.8035190615835777
1.7565982404692082
1.7145650048875856
1.6803519061583578
1.6529814271749756
1.6314760508308896
1.6138807429130009
1.6001955034213098
1.590420332355816
1.5806451612903225
1.5708699902248289
1.563049853372434
1.5562072336265884
1.5454545454545454
1.5327468230694037
1.5161290322580645
1.4975562072336266
1.478005865102639
1.458455522971652
1.4389051808406648
1.4203323558162269
1.4007820136852396
1.3792766373411536
1.3577712609970674
1.3401759530791788
1.3264907135874875
1.3098729227761483
1.2932551319648091
1.2776148582600195
1.2649071358748778
1.2551319648093842
1.2473118279569892
1.241446725317693
1.2375366568914956
1.2336265884652982
1.2287390029325511
1.2267839687194526
1.2258064516129032
1.2218963831867058
1.2150537634408602
1.2052785923753666
1.1935483870967742
1.1798631476050832
1.1652003910068427
1.147605083088954
1.1290322580645162
1.1114369501466277
1.1026392961876832
1.1085043988269794
1.1300097751710656
1.1730205278592376
1.249266862170088
1.3587487781036167
1.499511241446725
1.6627565982404693
1.8377321603128052
2.0117302052785924
2.174975562072336
2.318670576735093
2.4389051808406648
2.533724340175953
2.5972629521016617
2.638318670576735
2.6715542521994133
2.695014662756598
2.708699902248289
2.7145650048875853
2.710654936461388
2.697947214076246
2.67644183773216
2.6471163245356792
2.6080156402737047
2.5610948191593352
2.50733137829912
2.4516129032258065
2.3919843597262958
2.318670576735093
2.2346041055718477
2.145650048875855
2.0547409579667644
1.963831867057673
1.87683284457478
1.796676441837732
1.726295210166178
1.6666666666666667
1.6177908113391983
1.5826001955034212
1.5571847507331378
1.5356793743890518
1.5180840664711632
1.504398826979472
1.4936461388074291
1.4858260019550342
1.478983382209189
1.4711632453567938
1.4633431085043989
1.455522971652004
1.4457478005865103
1.434017595307918
1.4252199413489737
1.4173998044965788
1.4076246334310851
1.396871945259042
1.3861192570869991
1.375366568914956
1.3655913978494625
1.3558162267839686
1.346041055718475
1.3362658846529814
1.3264907135874875
1.316715542521994
1.3118279569892473
1.3098729227761483
1.3069403714565004
1.3040078201368523
1.3010752688172045
1.2981427174975562
1.295210166177908
1.29227761485826
1.2883675464320623
1.2825024437927663
1.2746823069403714
1.2658846529814272
1.2561094819159335
1.2482893450635386
1.2394916911045943
1.2238514173998043
1.203323558162268
1.181818181818182
1.1622678396871946
1.1495601173020529
1.1505376344086022
1.173998044965787
1.2287390029325511
1.316715542521994
1.4379276637341154
1.5650048875855327
1.6989247311827955
1.8592375366568916
2.027370478983382
2.188660801564027
2.334310850439883
2.4574780058651027
2.5562072336265884
2.631476050830889
2.687194525904203
2.7253176930596283
2.748778103616813
2.758553274682307
2.7546432062561097
2.740957966764418
2.721407624633431
2.69208211143695
2.653958944281525
2.6080156402737047
2.5542521994134897
2.49266862170088
2.423264907135875
2.345063538611926
2.259042033235582
2.167155425219941
2.083088954056696
2.002932551319648
1.9149560117302051
1.826001955034213
1.7419354838709675
1.6656891495601174
1.598240469208211
1.541544477028348
1.495601173020528
1.4604105571847508
1.4330400782013686
1.412512218963832
1.3958944281524928
1.3851417399804498
1.3792766373411536
1.3724340175953078
1.3655913978494625
1.3607038123167154
1.3558162267839686
1.3519061583577712
1.348973607038123
1.346041055718475
1.343108504398827
1.3391984359726294
1.3362658846529814
1.335288367546432
1.3343108504398826
1.3294232649071358
1.324535679374389
1.3176930596285434
1.310850439882698
1.305962854349951
1.3020527859237536
1.300097751710655
1.3010752688172045
1.303030303030303
1.3049853372434017
1.305962854349951
1.3088954056695992
1.3128054740957966
1.313782991202346
1.3118279569892473
1.3098729227761483
1.3069403714565004
1.303030303030303
1.2971652003910068
1.2883675464320623
1.2756598240469208
1.2609970674486803
1.2443792766373412
1.2316715542521994
1.2258064516129032
1.2258064516129032
1.241446725317693
1.2825024437927663
