ppg
1.2688172043010753
1.2864125122189638
1.3040078201368523
1.321603128054741
1.3372434017595307
1.3548387096774193
1.3734115347018572
1.3958944281524928
1.4242424242424243
1.457478005865103
1.4965786901270772
1.543499511241447
1.5923753665689149
1.6441837732160314
1.7096774193548387
1.7849462365591398
1.8670576735092863
1.95405669599218
2.04594330400782
2.1407624633431084
2.2346041055718477
2.326490713587488
2.4134897360703813
2.495601173020528
2.5610948191593352
2.6158357771261
2.6715542521994133
2.7253176930596283
2.7722385141739982
2.812316715542522
2.8455522971652005
2.8719452590420333
2.889540566959922
2.898338220918866
2.900293255131965
2.895405669599218
2.8826979472140764
2.863147605083089
2.8377321603128056
2.806451612903226
2.76930596285435
2.727272727272727
2.681329423264907
2.632453567937439
2.58455522971652
2.5386119257087
2.495601173020528
2.4565004887585533
2.420332355816227
2.389051808406647
2.3626588465298144
2.337243401759531
2.312805474095797
2.290322580645161
2.270772238514174
2.2531769305962857
2.2355816226783967
2.217986314760508
2.198435972629521
2.179863147605083
2.160312805474096
2.1388074291300097
2.117302052785924
2.0948191593352883
2.067448680351906
2.037145650048876
2.002932551319648
1.9657869012707725
1.9257086999022484
1.8836754643206255
1.8406647116324533
1.7956989247311828
1.750733137829912
1.7057673509286413
1.667644183773216
1.6334310850439884
1.5962854349951123
1.5581622678396871
1.520039100684262
1.4838709677419355
1.4496578690127078
1.41544477028348
1.383186705767351
1.3528836754643203
1.3255131964809383
1.300097751710655
1.278592375366569
1.2649071358748778
1.2561094819159335
1.2453567937438903
1.2355816226783969
1.227761485826002
1.2209188660801564
1.2150537634408602
1.209188660801564
1.203323558162268
1.2003910068426198
1.198435972629521
1.1994134897360704
1.2043010752688172
1.2121212121212122
1.2209188660801564
1.2297165200391007
1.238514173998045
1.2473118279569892
1.2561094819159335
1.2658846529814272
1.278592375366569
1.2961876832844574
1.3196480938416422
1.3519061583577712
1.388074291300098
1.4320625610948192
1.490713587487781
1.5620723362658846
1.64613880742913
1.739980449657869
1.8416422287390029
1.951124144672532
2.064516129032258
2.177908113391984
2.289345063538612
2.396871945259042
2.4975562072336266
2.578690127077224
2.6451612903225805
2.713587487781036
2.7781036168132944
2.835777126099707
2.884652981427175
2.924731182795699
2.956989247311828
2.979472140762464
2.995112414467253
3.002932551319648
3.003910068426197
2.995112414467253
2.979472140762464
2.9589442815249267
2.9315738025415445
2.897360703812317
2.8563049853372435
2.8103616813294234
2.7614858260019552
2.695014662756598
2.6207233626588464
2.5591397849462365
2.504398826979472
2.4545454545454546
2.410557184750733
2.372434017595308
2.335288367546432
2.300097751710655
2.2658846529814274
2.232649071358749
2.201368523949169
2.1700879765395893
2.136852394916911
2.101661779081134
2.0635386119257086
2.022482893450636
1.9833822091886608
1.9442815249266865
1.8983382209188664
1.8494623655913975
1.7996089931573802
1.747800586510264
1.6950146627565983
1.643206256109482
1.5923753665689149
1.543499511241447
1.4975562072336266
1.4535679374389052
1.412512218963832
1.380254154447703
1.3509286412512218
1.3176930596285434
1.2834799608993157
1.2502443792766371
1.2189638318670577
1.1896383186705768
1.164222873900293
1.1397849462365592
1.1163245356793745
1.0948191593352885
1.0772238514173995
1.0654936461388074
1.0576735092864125
1.0488758553274682
1.0410557184750733
1.0342130987292275
1.0303030303030305
1.0283479960899315
1.0283479960899315
1.0303030303030305
1.0361681329423265
1.0439882697947214
1.0527859237536656
1.0635386119257086
1.0772238514173995
1.0928641251221896
1.1094819159335287
1.1251221896383188
1.141739980449658
1.1583577712609971
1.176930596285435
1.198435972629521
1.2238514173998043
1.2561094819159335
1.2961876832844574
1.3440860215053765
1.392961876832845
1.4467253176930597
1.5151515151515151
1.595307917888563
1.6852394916911049
1.782991202346041
1.8856304985337244
1.9902248289345064
2.0948191593352883
2.198435972629521
2.300097751710655
2.396871945259042
2.486803519061584
2.5562072336265884
2.613880742913001
2.673509286412512
2.729227761485826
2.779081133919844
2.8211143695014664
2.854349951124145
2.878787878787879
2.895405669599218
2.903225806451613
2.9012707722385143
2.889540566959922
2.8690127077223853
2.8396871945259043
2.803519061583578
2.760508308895406
2.710654936461388
2.654936461388074
2.5943304007820136
2.532746823069404
2.472140762463343
2.4134897360703813
2.356793743890518
2.304007820136853
2.257086999022483
2.2170087976539588
2.182795698924731
2.150537634408602
2.120234604105572
2.093841642228739
2.070381231671554
2.048875855327468
2.0303030303030303
2.0127077223851417
1.994134897360704
1.9745845552297163
1.9530791788856303
1.932551319648094
1.9100684261974583
1.8826979472140764
1.8533724340175952
1.8211143695014664
1.7859237536656891
1.7487781036168133
1.710654936461388
1.6705767350928642
1.6275659824046922
1.5835777126099706
1.5405669599217986
1.498533724340176
1.4633431085043989
1.43108504398827
1.393939393939394
1.3558162267839686
1.3176930596285434
1.2795698924731185
1.2434017595307918
1.209188660801564
1.176930596285435
1.1466275659824048
1.1173020527859236
1.0899315738025417
1.0713587487781036
1.056695992179863
1.0410557184750733
1.0254154447702837
1.010752688172043
0.997067448680352
0.9853372434017597
0.9765395894428152
0.9687194525904204
0.9618768328445748
0.9560117302052786
0.9530791788856304
0.9530791788856304
0.9579667644183774
0.9657869012707724
0.9745845552297164
0.9853372434017597
0.9980449657869012
1.010752688172043
1.0254154447702837
1.0420332355816226
1.0625610948191593
1.0909090909090908
1.1290322580645162
1.1779081133919844
1.23069403714565
1.29227761485826
1.3724340175953078
1.469208211143695
1.5806451612903225
1.7018572825024438
1.83088954056696
1.9618768328445748
2.090909090909091
2.21505376344086
2.332355816226784
2.4408602150537635
2.525904203323558
2.5943304007820136
2.66177908113392
2.724340175953079
2.780058651026393
2.8269794721407626
2.865102639296188
2.8963831867057674
2.920821114369501
2.93841642228739
2.948191593352884
2.949169110459433
2.940371456500489
2.921798631476051
2.895405669599218
2.8611925708699903
2.819159335288368
2.7702834799608995
2.7155425219941347
2.6559139784946235
2.5943304007820136
2.533724340175953
2.474095796676442
2.4173998044965788
2.364613880742913
2.318670576735093
2.27761485826002
2.2375366568914954
2.198435972629521
2.161290322580645
2.1270772238514173
2.0948191593352883
2.0625610948191597
2.0303030303030303
1.9990224828934504
1.9667644183773216
1.932551319648094
1.8963831867057677
1.8631476050830889
1.83088954056696
1.7947214076246334
1.75366568914956
1.7096774193548387
1.664711632453568
1.6207233626588464
1.576735092864125
1.5317693059628543
1.487781036168133
1.4437927663734116
1.4007820136852396
1.3655913978494625
1.3362658846529814
1.303030303030303
1.2688172043010753
1.2336265884652982
1.1994134897360704
1.1671554252199414
1.1368523949169111
1.1065493646138806
1.078201368523949
1.0518084066471165
1.0273704789833822
1.0058651026392962
0.9912023460410556
0.981427174975562
0.9696969696969696
0.9589442815249268
0.9511241446725318
0.9452590420332356
0.9413489736070382
0.9393939393939394
0.9393939393939394
0.9423264907135877
0.9472140762463344
0.9530791788856304
0.9608993157380256
0.9706744868035192
0.9951124144672532
1.0263929618768328
1.04594330400782
1.0596285434995112
1.0733137829912025
1.0869990224828934
1.1026392961876832
1.1231671554252198
1.1515151515151516
1.1906158357771262
1.241446725317693
1.2971652003910068
1.3616813294232648
1.4437927663734116
1.542521994134897
1.651026392961877
1.7634408602150538
1.8797653958944285
1.9951124144672527
2.10850439882698
2.2170087976539588
2.3196480938416424
2.41544477028348
2.490713587487781
2.5532746823069403
2.618768328445748
2.681329423264907
2.7370478983382207
2.7859237536656893
2.827956989247312
2.86217008797654
2.8856304985337244
2.898338220918866
2.902248289345064
2.897360703812317
2.8826979472140764
2.859237536656892
2.827956989247312
2.789833822091887
2.7468230694037143
2.6989247311827955
2.649071358748778
2.5962854349951123
2.544477028347996
2.495601173020528
2.449657869012708
2.4056695992179864
2.364613880742913
2.3304007820136854
2.300097751710655
2.270772238514174
2.243401759530792
2.218963831867057
2.1945259042033234
2.1700879765395893
2.145650048875855
2.121212121212121
2.0957966764418376
2.069403714565005
2.042033235581622
2.0127077223851417
1.9853372434017595
1.9579667644183771
1.9227761485826005
1.881720430107527
1.835777126099707
1.7869012707722385
1.7350928641251222
1.683284457478006
1.632453567937439
1.58455522971652
1.5376344086021505
1.490713587487781
1.452590420332356
1.4193548387096775
1.380254154447703
1.3391984359726294
1.300097751710655
1.2619745845552297
1.2267839687194526
1.1945259042033236
1.1652003910068427
1.141739980449658
1.1221896383186705
1.1065493646138806
1.0928641251221896
1.086021505376344
1.083088954056696
1.078201368523949
1.0742913000977516
1.0733137829912025
1.075268817204301
1.0801564027370478
1.0879765395894427
1.0987292277614855
1.1094819159335287
1.1202346041055715
1.130987292277615
1.1436950146627567
1.1583577712609971
1.163245356793744
1.1906158357771262
1.2316715542521994
1.2873900293255132
1.3607038123167154
1.4516129032258065
1.5571847507331378
1.675464320625611
1.7849462365591398
1.8905180840664717
2.0127077223851417
2.142717497556207
2.271749755620724
2.396871945259042
2.515151515151515
2.625610948191593
2.727272727272727
2.819159335288368
2.8993157380254155
2.9687194525904204
3.0283479960899315
3.067448680351906
3.093841642228739
3.1192570869990224
3.1407624633431084
3.155425219941349
3.163245356793744
3.1622678396871944
3.1524926686217007
3.133919843597263
3.1065493646138806
3.072336265884653
3.032258064516129
2.9902248289345064
2.946236559139785
2.897360703812317
2.8475073313782997
2.7966764418377323
2.747800586510264
2.7008797653958942
2.654936461388074
2.610948191593353
2.570869990224829
2.532746823069404
2.496578690127077
2.4613880742913
2.4281524926686218
2.3958944281524928
2.3519061583577714
2.3118279569892475
2.280547409579668
2.241446725317693
2.1955034213098727
2.144672531769306
2.090909090909091
2.0361681329423265
1.981427174975562
1.9266862170087975
1.8797653958944285
1.8377321603128052
1.793743890518084
1.747800586510264
1.7018572825024438
1.6578690127077225
1.6158357771260996
1.5757575757575757
1.5366568914956011
1.498533724340176
1.4623655913978495
1.426197458455523
1.3919843597262953
1.3655913978494625
1.3440860215053765
1.3196480938416422
1.295210166177908
1.2727272727272727
1.2561094819159335
1.2434017595307918
1.2336265884652982
1.2267839687194526
1.2228739002932552
1.2179863147605083
1.2121212121212122
1.209188660801564
1.2072336265884651
1.203323558162268
1.1974584555229717
1.1906158357771262
1.1857282502443791
1.1837732160312806
1.1827956989247312
1.181818181818182
1.1827956989247312
1.1857282502443791
1.1906158357771262
1.198435972629521
1.2101661779081134
1.2238514173998043
1.2375366568914956
1.2531769305962854
1.2727272727272727
1.300097751710655
1.3372434017595307
1.3861192570869991
1.4496578690127078
1.525904203323558
1.6138807429130009
1.7135874877810362
1.8347996089931573
1.93841642228739
2.018572825024438
2.115347018572825
2.218963831867057
2.32355816226784
2.4281524926686218
2.5288367546432062
2.6236559139784945
2.7116324535679373
2.790811339198436
2.860215053763441
2.916911045943304
2.952101661779081
2.9716520039100685
2.986314760508309
2.9931573802541545
2.9902248289345064
2.9765395894428157
2.95405669599218
2.9227761485826003
2.8836754643206257
2.8377321603128056
2.7869012707722387
2.732160312805474
2.6803519061583576
2.627565982404692
2.5698924731182795
2.5102639296187683
2.452590420332356
2.398826979472141
2.347996089931574
2.290322580645161
2.241446725317693
2.209188660801564
2.177908113391984
2.1485826001955037
2.124144672531769
2.104594330400782
2.088954056695992
2.074291300097752
2.059628543499511
2.0449657869012707
2.027370478983382
2.010752688172043
1.9960899315738023
1.9794721407624636
1.962854349951124
1.945259042033236
1.9286412512218964
1.9130009775171064
1.8983382209188664
1.8807429130009776
1.8621700879765395
1.8416422287390029
1.8211143695014664
1.8005865102639296
1.7810361681329423
1.7624633431085044
1.7458455522971652
1.7311827956989247
1.7194525904203324
1.7096774193548387
1.7008797653958945
1.6930596285434996
1.6842619745845553
1.6735092864125125
1.6608015640273706
1.64613880742913
1.6334310850439884
1.6451612903225807
1.6559139784946235
1.6735092864125125
1.7018572825024438
1.7429130009775171
1.796676441837732
1.86119257086999
1.935483870967742
2.018572825024438
2.0957966764418376
2.1681329423264906
2.2521994134897363
2.343108504398827
2.434017595307918
2.5219941348973607
2.6021505376344085
2.675464320625611
2.7419354838709675
2.80058651026393
2.8514173998044967
2.89345063538612
2.9257086999022484
2.945259042033236
2.9579667644183774
2.9696969696969697
2.9765395894428157
2.9745845552297165
2.963831867057673
2.943304007820137
2.913000977517106
2.870967741935484
2.819159335288368
2.757575757575758
2.689149560117302
2.622678396871945
2.557184750733138
2.487781036168133
2.403714565004888
2.3167155425219943
2.260019550342131
2.219941348973607
2.1788856304985336
2.139784946236559
2.1055718475073317
2.0772238514174
2.0527859237536656
2.032258064516129
2.0146627565982405
1.997067448680352
1.981427174975562
1.9667644183773216
1.9521016617790807
1.932551319648094
1.906158357771261
1.8866080156402736
1.870967741935484
1.8504398826979471
1.825024437927664
1.7976539589442817
1.7712609970674489
1.737047898338221
1.694037145650049
1.6637341153470186
1.6392961876832846
1.598240469208211
1.5591397849462365
1.530791788856305
1.4965786901270772
1.4516129032258065
1.401759530791789
1.367546432062561
1.3401759530791788
1.316715542521994
1.2913000977517106
1.260019550342131
1.2394916911045943
1.2228739002932552
1.2082111436950147
1.198435972629521
1.1935483870967742
1.1896383186705768
1.1857282502443791
1.1827956989247312
1.181818181818182
1.1808406647116323
1.1749755620723363
1.1691104594330402
1.1612903225806452
1.1495601173020529
1.1397849462365592
1.1319648093841643
1.1280547409579669
1.1280547409579669
1.1319648093841643
1.13880742913001
1.147605083088954
1.1573802541544478
1.166177908113392
1.176930596285435
1.1906158357771262
1.2101661779081134
1.238514173998045
1.2795698924731185
1.3343108504398826
1.4027370478983383
1.4838709677419355
1.573802541544477
1.6715542521994136
1.758553274682307
1.8387096774193548
1.9266862170087975
2.013685239491691
2.0948191593352883
2.166177908113392
2.2277614858260018
2.2795698924731185
2.321603128054741
2.3548387096774195
2.3792766373411536
2.3958944281524928
2.403714565004888
2.4056695992179864
2.403714565004888
2.3978494623655915
2.389051808406647
2.375366568914956
2.355816226783969
2.3304007820136854
2.300097751710655
2.2639296187683287
2.222873900293255
2.177908113391984
2.1300097751710654
2.086021505376344
2.043010752688172
1.9980449657869013
1.95405669599218
1.913978494623656
1.8778103616813293
1.844574780058651
1.81524926686217
1.7898338220918866
1.7663734115347018
1.7448680351906158
1.7253176930596286
1.7086999022482894
1.6920821114369502
1.6744868035190617
1.6559139784946235
1.635386119257087
1.6109481915933528
1.5835777126099706
1.5532746823069403
1.521016617790811
1.4858260019550342
1.447702834799609
1.4066471163245358
1.364613880742913
1.327468230694037
1.29227761485826
1.249266862170088
1.2023460410557183
1.1544477028347997
1.104594330400782
1.053763440860215
1.002932551319648
0.9521016617790812
0.9042033235581622
0.8582600195503421
0.8152492668621701
0.782991202346041
0.7565982404692082
0.7253176930596286
0.6950146627565983
0.6656891495601173
0.6373411534701857
0.6109481915933529
0.5874877810361682
0.5669599217986315
0.5493646138807429
0.5347018572825024
0.5219941348973607
0.5102639296187683
0.5053763440860215
0.5053763440860215
0.5043988269794721
0.501466275659824
0.4985337243401759
0.4975562072336266
0.4985337243401759
0.5024437927663734
0.509286412512219
0.520039100684262
0.533724340175953
0.5483870967741935
0.5659824046920822
0.5845552297165201
0.6011730205278593
0.6197458455522972
0.6432062561094819
0.6725317693059628
0.7126099706744868
0.7663734115347018
0.833822091886608
0.916911045943304
1.013685239491691
1.1221896383186705
1.2394916911045943
1.3479960899315735
1.452590420332356
1.5698924731182795
1.689149560117302
1.8054740957966764
1.9178885630498532
2.022482893450636
2.117302052785924
2.20039100684262
2.271749755620724
2.3304007820136854
2.378299120234604
2.412512218963832
2.4359726295210167
2.4574780058651027
2.474095796676442
2.4838709677419355
2.484848484848485
2.4780058651026398
2.462365591397849
2.436950146627566
2.404692082111437
2.366568914956012
2.324535679374389
2.2844574780058653
2.24633431085044
2.206256109481916
2.166177908113392
2.176930596285435
2.2170087976539588
2.225806451612903
2.220918866080156
2.2082111436950145
2.1925708699902247
2.174975562072336
2.157380254154448
2.1378299120234603
2.120234604105572
2.103616813294233
2.086021505376344
2.0664711632453567
2.043010752688172
2.0175953079178885
1.989247311827957
1.9579667644183771
1.9237536656891496
1.8856304985337244
1.8455522971652003
1.804496578690127
1.76930596285435
1.7380254154447703
1.7008797653958945
1.66177908113392
1.6226783968719452
1.58455522971652
1.547409579667644
1.512218963831867
1.478983382209189
1.4467253176930597
1.4173998044965788
1.391006842619746
1.3665689149560116
1.348973607038123
1.335288367546432
1.3186705767350928
1.303030303030303
1.2873900293255132
1.273704789833822
1.2619745845552297
1.2541544477028348
1.249266862170088
1.2453567937438903
1.2424242424242424
1.2394916911045943
1.2404692082111437
1.2453567937438903
1.2482893450635386
1.2502443792766371
1.2531769305962854
1.2580645161290325
1.262952101661779
1.2688172043010753
1.2766373411534702
1.284457478005865
1.2932551319648091
1.303030303030303
1.313782991202346
1.3255131964809383
1.3372434017595307
1.3479960899315735
1.3616813294232648
1.380254154447703
1.404692082111437
1.435972629521017
1.47702834799609
1.5268817204301075
1.58455522971652
1.6500488758553276
1.7233626588465298
1.7917888563049853
1.857282502443793
1.9315738025415443
2.0087976539589443
2.086021505376344
2.161290322580645
2.233626588465298
2.302052785923754
2.364613880742913
2.4222873900293256
2.4731182795698925
2.5180840664711632
2.5562072336265884
2.581622678396872
2.5992179863147604
2.616813294232649
2.6295210166177907
2.635386119257087
2.634408602150537
2.624633431085044
2.6080156402737047
2.58455522971652
2.555229716520039
2.520039100684262
2.4809384164222874
2.443792766373412
2.406647116324536
2.366568914956012
2.3255131964809386
2.2873900293255134
2.2502443792766376
2.2140762463343107
2.179863147605083
2.147605083088954
2.118279569892473
2.0928641251221896
2.071358748778104
2.050830889540567
2.0332355816226784
2.018572825024438
2.002932551319648
1.9872922776148585
1.970674486803519
1.9530791788856303
1.9345063538611929
1.9159335288367547
1.8973607038123168
1.87683284457478
1.855327468230694
1.8328445747800584
1.812316715542522
1.7927663734115349
1.76930596285435
1.7458455522971652
1.721407624633431
1.696969696969697
1.6735092864125125
1.6490713587487782
1.624633431085044
1.6011730205278591
1.576735092864125
1.552297165200391
1.5298142717497556
1.5131964809384164
1.500488758553275
1.4868035190615836
1.4721407624633431
1.458455522971652
1.444770283479961
1.43108504398827
1.418377321603128
1.4066471163245358
1.3949169110459434
1.3851417399804498
1.3763440860215057
1.3714565004887584
1.3685239491691104
1.364613880742913
1.3616813294232648
1.3587487781036167
1.356793743890518
1.356793743890518
1.3577712609970674
1.3607038123167154
1.3665689149560116
1.3734115347018572
1.3822091886608017
1.392961876832845
1.4056695992179864
1.4203323558162269
1.4389051808406648
1.4633431085043989
1.4946236559139785
1.5356793743890518
1.5884652981427174
1.651026392961877
1.7223851417399805
1.8005865102639296
1.8836754643206255
1.970674486803519
2.048875855327468
2.120234604105572
2.1974584555229715
2.275659824046921
2.350928641251222
2.421309872922776
2.486803519061584
2.5454545454545454
2.60019550342131
2.650048875855328
2.6940371456500487
2.7311827956989245
2.7624633431085046
2.7839687194525906
2.7976539589442817
2.811339198435973
2.820136852394917
2.822091886608016
2.81622678396872
2.8025415444770285
2.780058651026393
2.750733137829912
2.7155425219941347
2.675464320625611
2.632453567937439
2.591397849462365
2.5513196480938416
2.509286412512219
2.4682306940371457
2.4281524926686218
2.391006842619746
2.355816226783969
2.32355816226784
2.294232649071359
2.2688172043010755
2.247311827956989
2.228739002932551
2.2130987292277613
2.20039100684262
2.188660801564027
2.1788856304985336
2.16911045943304
2.158357771260997
2.147605083088954
2.136852394916911
2.12316715542522
2.10850439882698
2.0928641251221896
2.074291300097752
2.053763440860215
2.0332355816226784
2.013685239491691
1.9902248289345064
1.964809384164223
1.9393939393939397
1.911045943304008
1.8826979472140764
1.855327468230694
1.827956989247312
1.8005865102639296
1.7732160312805474
1.7487781036168133
1.729227761485826
1.7126099706744868
1.694037145650049
1.6764418377321604
1.6588465298142718
1.640273704789834
1.6226783968719452
1.607038123167155
1.5923753665689149
1.5777126099706744
1.564027370478983
1.5513196480938416
1.5395894428152492
1.5327468230694037
1.5278592375366569
1.521016617790811
1.5141739980449658
1.5083088954056696
1.5024437927663734
1.4965786901270772
1.4916911045943304
1.4858260019550342
1.4809384164222874
1.4330400782013686
1.3626588465298142
1.3294232649071358
1.3157380254154447
1.3098729227761483
1.3098729227761483
1.3176930596285434
1.3333333333333333
1.3607038123167154
1.4007820136852396
1.4535679374389052
1.5180840664711632
1.5943304007820136
1.6813294232649072
1.7771260997067448
1.8641251221896384
1.946236559139785
2.0410557184750733
2.139784946236559
2.2375366568914954
2.3313782991202348
2.4164222873900294
2.4916911045943304
2.5562072336265884
2.608993157380254
2.6510263929618767
2.6823069403714563
2.6989247311827955
2.70772238514174
2.713587487781036
2.7145650048875853
2.710654936461388
2.699902248289345
2.6823069403714563
2.656891495601173
2.624633431085044
2.587487781036168
2.5464320625610948
2.5024437927663734
2.455522971652004
2.412512218963832
2.372434017595308
2.3313782991202348
2.291300097751711
2.2531769305962857
2.2170087976539588
2.1837732160312804
2.15347018572825
2.126099706744868
2.103616813294233
2.083088954056696
2.0635386119257086
2.04594330400782
2.027370478983382
2.005865102639296
1.9824046920821117
1.9550342130987293
1.924731182795699
1.8914956011730208
1.8563049853372435
1.8201368523949168
1.782991202346041
1.7448680351906158
1.7057673509286413
1.6656891495601174
1.6304985337243405
1.598240469208211
1.560117302052786
1.5180840664711632
1.474095796676442
1.4301075268817205
1.3861192570869991
1.3440860215053765
1.3020527859237536
1.2619745845552297
1.2228739002932552
1.18475073313783
1.155425219941349
1.130987292277615
1.1026392961876832
