ppg
2.378299120234604
2.4819159335288368
2.5698924731182795
2.643206256109482
2.702834799608993
2.750733137829912
2.789833822091887
2.820136852394917
2.835777126099707
2.8426197458455524
2.8484848484848486
2.849462365591398
2.8426197458455524
2.8269794721407626
2.801564027370479
2.7653958944281527
2.718475073313783
2.66177908113392
2.5962854349951123
2.52297165200391
2.4516129032258065
2.3812316715542523
2.304985337243402
2.2267839687194524
2.1515151515151514
2.081133919843597
2.018572825024438
1.963831867057673
1.9159335288367547
1.8748778103616808
1.8377321603128052
1.8035190615835777
1.7702834799608993
1.7409579667644184
1.7145650048875856
1.6852394916911049
1.6549364613880744
1.6236559139784943
1.590420332355816
1.5571847507331378
1.5239491691104594
1.490713587487781
1.457478005865103
1.4252199413489737
1.392961876832845
1.367546432062561
1.3450635386119256
1.3196480938416422
1.2942326490713587
1.270772238514174
1.2482893450635386
1.2267839687194526
1.2072336265884651
1.1886608015640274
1.1720430107526882
1.155425219941349
1.1397849462365592
1.1290322580645162
1.121212121212121
1.1114369501466277
1.1006842619745845
1.088954056695992
1.078201368523949
1.0664711632453567
1.0557184750733135
1.04594330400782
1.0361681329423265
1.0273704789833822
1.0175953079178883
1.0097751710654936
1.0058651026392962
1.0039100684261977
1.0
1.0068426197458455
1.018572825024438
1.0224828934506354
1.0224828934506354
1.021505376344086
1.018572825024438
1.0156402737047898
1.0127077223851415
1.010752688172043
1.010752688172043
1.0127077223851415
1.0127077223851415
1.0117302052785924
1.0117302052785924
1.0117302052785924
1.0117302052785924
1.0117302052785924
1.0117302052785924
1.010752688172043
1.0097751710654936
1.0087976539589445
1.0087976539589445
1.010752688172043
1.0156402737047898
1.0224828934506354
1.0361681329423265
1.0596285434995112
1.0987292277614855
1.1564027370478984
1.2355816226783969
1.3362658846529814
1.4545454545454546
1.587487781036168
1.7272727272727273
1.8504398826979471
1.9608993157380252
2.078201368523949
2.1925708699902247
2.2961876832844577
2.3870967741935485
2.463343108504399
2.5268817204301075
2.578690127077224
2.621700879765396
2.6559139784946235
2.6832844574780057
2.704789833822092
2.7145650048875853
2.716520039100684
2.716520039100684
2.7116324535679373
2.699902248289345
2.6803519061583576
2.652003910068426
2.6148582600195502
2.56891495601173
2.5141739980449658
2.452590420332356
2.386119257086999
2.321603128054741
2.259042033235582
2.1915933528836757
2.124144672531769
2.060606060606061
2.0019550342130987
1.949169110459433
1.902248289345064
1.86119257086999
1.8240469208211143
1.7917888563049853
1.7624633431085044
1.7341153470185728
1.7096774193548387
1.6881720430107527
1.664711632453568
1.6392961876832846
1.6129032258064515
1.585532746823069
1.5581622678396871
1.5298142717497556
1.501466275659824
1.4731182795698925
1.444770283479961
1.418377321603128
1.3958944281524928
1.3773216031280548
1.356793743890518
1.3362658846529814
1.316715542521994
1.2981427174975562
1.281524926686217
1.2658846529814272
1.2512218963831867
1.2375366568914956
1.2238514173998043
1.2111436950146628
1.2003910068426198
1.1925708699902249
1.1867057673509287
1.1788856304985338
1.1700879765395895
1.1622678396871946
1.1534701857282503
1.1456500488758554
1.1378299120234605
1.130987292277615
1.1251221896383188
1.1192570869990224
1.1133919843597262
1.110459433040078
1.1085043988269794
1.104594330400782
1.1006842619745845
1.096774193548387
1.093841642228739
1.0899315738025417
1.0869990224828934
1.0840664711632453
1.0811339198435972
1.0791788856304985
1.078201368523949
1.0772238514173995
1.078201368523949
1.0801564027370478
1.0811339198435972
1.0821114369501466
1.083088954056696
1.0840664711632453
1.0850439882697946
1.086021505376344
1.0869990224828934
1.0869990224828934
1.086021505376344
1.0850439882697946
1.0869990224828934
1.0899315738025417
1.0948191593352885
1.104594330400782
1.1241446725317692
1.1583577712609971
1.209188660801564
1.281524926686217
1.3743890518084063
1.4858260019550342
1.6109481915933528
1.7448680351906158
1.8797653958944285
1.9931573802541545
2.090909090909091
2.1925708699902247
2.2873900293255134
2.372434017595308
2.444770283479961
2.504398826979472
2.5532746823069403
2.593352883675464
2.625610948191593
2.6510263929618767
2.670576735092864
2.678396871945259
2.678396871945259
2.675464320625611
2.667644183773216
2.6529814271749754
2.63049853372434
2.60019550342131
2.560117302052786
2.512218963831867
2.455522971652004
2.3919843597262958
2.324535679374389
2.254154447702835
2.189638318670577
2.1300097751710654
2.0684261974584555
2.0097751710654936
1.9560117302052784
1.90811339198436
1.865102639296188
1.8269794721407624
1.7927663734115349
1.761485826001955
1.732160312805474
1.704789833822092
1.6803519061583578
1.6578690127077225
1.632453567937439
1.606060606060606
1.5796676441837731
1.552297165200391
1.5239491691104594
1.495601173020528
1.466275659824047
1.436950146627566
1.409579667644184
1.383186705767351
1.3616813294232648
1.343108504398827
1.3225806451612905
1.303030303030303
1.2834799608993157
1.2639296187683284
1.24633431085044
1.2297165200391007
1.2140762463343109
1.1994134897360704
1.1867057673509287
1.173998044965787
1.163245356793744
1.155425219941349
1.1495601173020529
1.141739980449658
1.1329423264907137
1.1231671554252198
1.1143695014662756
1.1055718475073313
1.096774193548387
1.0879765395894427
1.0801564027370478
1.072336265884653
1.064516129032258
1.0606060606060606
1.0586510263929618
1.0547409579667644
1.050830889540567
1.04594330400782
1.0410557184750733
1.0371456500488758
1.032258064516129
1.0283479960899315
1.0254154447702837
1.0224828934506354
1.0195503421309873
1.0166177908113392
1.0175953079178883
1.0205278592375366
1.021505376344086
1.0224828934506354
1.0234604105571847
1.024437927663734
1.0254154447702837
1.0254154447702837
1.024437927663734
1.0234604105571847
1.0224828934506354
1.021505376344086
1.0234604105571847
1.0283479960899315
1.0371456500488758
1.053763440860215
1.0840664711632453
1.1319648093841643
1.1994134897360704
1.2873900293255132
1.3958944281524928
1.520039100684262
1.6881720430107527
1.8826979472140764
2.058651026392962
2.198435972629521
2.313782991202346
2.429130009775171
2.5347018572825024
2.6265884652981426
2.704789833822092
2.7702834799608995
2.825024437927664
2.8699902248289346
2.9071358748778104
2.936461388074292
2.9579667644183774
2.9657869012707723
2.964809384164223
2.960899315738025
2.9501466275659824
2.9315738025415445
2.903225806451613
2.865102639296188
2.81622678396872
2.757575757575758
2.6901270772238512
2.6148582600195502
2.533724340175953
2.449657869012708
2.3734115347018574
2.304007820136853
2.232649071358749
2.163245356793744
2.099706744868035
2.043010752688172
1.992179863147605
1.9472140762463344
1.9071358748778104
1.870967741935484
1.836754643206256
1.8035190615835777
1.775171065493646
1.7487781036168133
1.7194525904203324
1.6881720430107527
1.6559139784946235
1.6226783968719452
1.5894428152492668
1.5562072336265884
1.52297165200391
1.490713587487781
1.458455522971652
1.4281524926686218
1.3988269794721409
1.3763440860215057
1.356793743890518
1.335288367546432
1.313782991202346
1.2932551319648091
1.273704789833822
1.2551319648093842
1.2375366568914956
1.2218963831867058
1.206256109481916
1.1915933528836755
1.1788856304985338
1.1700879765395895
1.163245356793744
1.155425219941349
1.1466275659824048
1.1378299120234605
1.1290322580645162
1.1202346041055715
1.1124144672531768
1.104594330400782
1.096774193548387
1.088954056695992
1.0821114369501466
1.075268817204301
1.072336265884653
1.0713587487781036
1.0694037145650048
1.0664711632453567
1.0635386119257086
1.0606060606060606
1.0576735092864125
1.0547409579667644
1.0527859237536656
1.050830889540567
1.0488758553274682
1.0469208211143697
1.0478983382209188
1.050830889540567
1.0518084066471165
1.053763440860215
1.0557184750733135
1.056695992179863
1.0576735092864125
1.0586510263929618
1.0596285434995112
1.0606060606060606
1.06158357771261
1.0625610948191593
1.0635386119257086
1.067448680351906
1.0733137829912025
1.0821114369501466
1.0977517106549364
1.1270772238514175
1.173998044965787
1.2424242424242424
1.3343108504398826
1.4506353861192571
1.5884652981427174
1.7409579667644184
1.9012707722385145
2.0410557184750733
2.1652003910068425
2.297165200391007
2.423264907135875
2.5376344086021505
2.6373411534701856
2.721407624633431
2.790811339198436
2.8484848484848486
2.895405669599218
2.932551319648094
2.961876832844575
2.983382209188661
2.992179863147605
2.991202346041056
2.988269794721408
2.979472140762464
2.962854349951124
2.9374389051808407
2.9012707722385143
2.854349951124145
2.7966764418377323
2.730205278592375
2.6559139784946235
2.5747800586510263
2.4995112414467253
2.4271749755620724
2.3519061583577714
2.27761485826002
2.2082111436950145
2.144672531769306
2.0879765395894427
2.038123167155425
1.994134897360704
1.95405669599218
1.9178885630498532
1.8836754643206255
1.836754643206256
1.8093841642228736
1.780058651026393
1.7331378299120237
1.699902248289345
1.664711632453568
1.629521016617791
1.5943304007820136
1.560117302052786
1.525904203323558
1.4936461388074291
1.4623655913978495
1.436950146627566
1.414467253176931
1.3900293255131966
1.3655913978494625
1.3421309872922775
1.3206256109481915
1.300097751710655
1.2805474095796676
1.262952101661779
1.24633431085044
1.2297165200391007
1.2140762463343109
1.203323558162268
1.195503421309873
1.1857282502443791
1.1691104594330402
1.1573802541544478
1.1466275659824048
1.1270772238514175
1.1173020527859236
1.1085043988269794
1.0918866080156402
1.086021505376344
1.0821114369501466
1.0762463343108504
1.0703812316715542
1.064516129032258
1.0586510263929618
1.0527859237536656
1.0478983382209188
1.043010752688172
1.0391006842619743
1.035190615835777
1.032258064516129
1.032258064516129
1.0342130987292275
1.035190615835777
1.035190615835777
1.035190615835777
1.0342130987292275
1.0332355816226784
1.0312805474095796
1.029325513196481
1.0273704789833822
1.0263929618768328
1.0263929618768328
1.0303030303030305
1.0410557184750733
1.0606060606060606
1.0928641251221896
1.144672531769306
1.219941348973607
1.3196480938416422
1.4418377321603129
1.5835777126099706
1.7380254154447703
1.8973607038123168
2.0547409579667644
2.203323558162268
2.321603128054741
2.418377321603128
2.5131964809384164
2.5992179863147604
2.673509286412512
2.736070381231672
2.787878787878788
2.8299120234604107
2.8641251221896384
2.8905180840664717
2.9100684261974585
2.921798631476051
2.9257086999022484
2.918866080156403
2.902248289345064
2.878787878787879
2.8475073313782997
2.806451612903226
2.755620723362659
2.695014662756598
2.625610948191593
2.549364613880743
2.469208211143695
2.3870967741935485
2.3059628543499517
2.2346041055718477
2.1710654936461387
2.10752688172043
2.048875855327468
1.992179863147605
1.93841642228739
1.8934506353861196
1.8543499511241448
1.818181818181818
1.7839687194525904
1.750733137829912
1.7174975562072337
1.6842619745845553
1.6559139784946235
1.629521016617791
1.6001955034213098
1.56891495601173
1.5366568914956011
1.5034213098729228
1.4701857282502444
1.4379276637341154
1.4066471163245358
1.3763440860215057
1.3479960899315735
1.321603128054741
1.3010752688172045
1.284457478005865
1.2649071358748778
1.2453567937438903
1.2258064516129032
1.2072336265884651
1.1906158357771262
1.173998044965787
1.1593352883675463
1.1456500488758554
1.1329423264907137
1.121212121212121
1.110459433040078
1.1036168132942326
1.0987292277614855
1.0918866080156402
1.083088954056696
1.0742913000977516
1.0654936461388074
1.0557184750733135
1.0469208211143697
1.040078201368524
1.0332355816226784
1.0273704789833822
1.0224828934506354
1.0205278592375366
1.0205278592375366
1.018572825024438
1.0156402737047898
1.0117302052785924
1.0068426197458455
1.002932551319648
1.0
0.9980449657869012
0.997067448680352
0.997067448680352
0.9980449657869012
0.9990224828934506
1.002932551319648
1.007820136852395
1.010752688172043
1.0127077223851415
1.0146627565982405
1.0156402737047898
1.0166177908113392
1.0166177908113392
1.0166177908113392
1.0175953079178883
1.0224828934506354
1.035190615835777
1.056695992179863
1.0899315738025417
1.142717497556207
1.2189638318670577
1.3206256109481915
1.4467253176930597
1.5913978494623655
1.750733137829912
1.9159335288367547
2.0791788856304985
2.232649071358749
2.3734115347018574
2.496578690127077
2.589442815249267
2.659824046920821
2.727272727272727
2.787878787878788
2.8396871945259043
2.8826979472140764
2.917888563049853
2.945259042033236
2.964809384164223
2.9775171065493646
2.981427174975562
2.9765395894428157
2.960899315738025
2.936461388074292
2.905180840664712
2.865102639296188
2.814271749755621
2.7546432062561097
2.6852394916911044
2.608993157380254
2.527859237536657
2.444770283479961
2.3626588465298144
2.2844574780058653
2.212121212121212
2.150537634408602
2.0987292277614857
2.048875855327468
2.002932551319648
1.9618768328445748
1.9237536656891496
1.8885630498533723
1.8543499511241448
1.822091886608016
1.790811339198436
1.758553274682307
1.726295210166178
1.696969696969697
1.6695992179863148
1.6392961876832846
1.607038123167155
1.5728250244379276
1.5386119257087
1.5053763440860215
1.4721407624633431
1.4408602150537635
1.4115347018572826
1.3841642228739004
1.3577712609970674
1.3372434017595307
1.3196480938416422
1.2991202346041055
1.2795698924731185
1.260019550342131
1.241446725317693
1.224828934506354
1.209188660801564
1.1945259042033236
1.1808406647116323
1.1671554252199414
1.1544477028347997
1.142717497556207
1.133919843597263
1.1270772238514175
1.118279569892473
1.1085043988269794
1.0987292277614855
1.088954056695992
1.0801564027370478
1.0713587487781036
1.0625610948191593
1.053763440860215
1.04594330400782
1.0391006842619743
1.035190615835777
1.0332355816226784
1.029325513196481
1.024437927663734
1.018572825024438
1.0127077223851415
1.007820136852395
1.0039100684261977
1.0019550342130987
1.0009775171065494
1.0
1.0
1.0
1.0019550342130987
1.0058651026392962
1.0068426197458455
1.0068426197458455
1.0048875855327468
1.002932551319648
1.0009775171065494
1.0
1.0019550342130987
1.007820136852395
1.0234604105571847
1.0527859237536656
1.0918866080156402
1.1456500488758554
1.2267839687194526
1.3333333333333333
1.4623655913978495
1.6099706744868034
1.7683284457478006
1.9305962854349952
2.0879765395894427
2.2355816226783967
2.36950146627566
2.486803519061584
2.5865102639296187
2.658846529814272
2.7126099706744866
2.763440860215054
2.8084066471163247
2.8455522971652005
2.875855327468231
2.8993157380254155
2.916911045943304
2.9266862170087977
2.9286412512218964
2.921798631476051
2.905180840664712
2.878787878787879
2.844574780058651
2.80058651026393
2.745845552297165
2.681329423264907
2.608993157380254
2.530791788856305
2.447702834799609
2.363636363636364
2.281524926686217
2.204301075268817
2.131964809384164
2.067448680351906
2.0146627565982405
1.9696969696969695
1.927663734115347
1.8885630498533723
1.8523949169110456
1.8191593352883677
1.7869012707722385
1.7546432062561097
1.7233626588465298
1.6911045943304008
1.6588465298142718
1.6256109481915937
1.5962854349951123
1.56891495601173
1.5376344086021505
1.504398826979472
1.4701857282502444
1.436950146627566
1.4056695992179864
1.375366568914956
1.3470185728250244
1.3206256109481915
1.295210166177908
1.2717497556207231
1.249266862170088
1.2326490713587488
1.2189638318670577
1.203323558162268
1.1867057673509287
1.1720430107526882
1.1583577712609971
1.1456500488758554
1.1329423264907137
1.1202346041055715
1.1085043988269794
1.0987292277614855
1.0899315738025417
1.0840664711632453
1.0801564027370478
1.0733137829912025
1.0654936461388074
1.0576735092864125
1.0488758553274682
1.0410557184750733
1.0332355816226784
1.0263929618768328
1.0195503421309873
1.0127077223851415
1.007820136852395
1.002932551319648
1.0019550342130987
1.002932551319648
1.0019550342130987
1.0
0.9980449657869012
0.9960899315738024
0.9941348973607038
0.9921798631476052
0.9912023460410556
0.989247311827957
0.9882697947214076
0.9872922776148584
0.989247311827957
0.9921798631476052
0.9941348973607038
0.9960899315738024
0.9980449657869012
0.9980449657869012
0.997067448680352
0.9960899315738024
0.9960899315738024
0.9980449657869012
1.0058651026392962
1.0234604105571847
1.056695992179863
1.1006842619745845
1.160312805474096
1.2482893450635386
1.3626588465298142
1.500488758553275
1.6559139784946235
1.822091886608016
1.991202346041056
2.155425219941349
2.3088954056695994
2.447702834799609
2.5698924731182795
2.6608015640273703
2.730205278592375
2.7976539589442817
2.859237536656892
2.913000977517106
2.9589442815249267
2.9980449657869013
3.0303030303030303
3.0557184750733137
3.074291300097752
3.0840664711632453
3.085043988269794
3.075268817204301
3.0547409579667644
3.0234604105571847
2.983382209188661
2.932551319648094
2.8719452590420333
2.8025415444770285
2.7262952101661777
2.64613880742913
2.5650048875855327
2.486803519061584
2.412512218963832
2.3440860215053765
2.286412512218964
2.2375366568914954
2.193548387096774
2.1544477028347995
2.1192570869990224
2.088954056695992
2.06158357771261
2.035190615835777
2.0087976539589443
1.9824046920821117
1.9560117302052784
1.9286412512218964
1.9012707722385145
1.87683284457478
1.8543499511241448
1.8299120234604105
1.804496578690127
1.7790811339198436
1.75366568914956
1.729227761485826
1.7067448680351909
1.6852394916911049
1.6656891495601174
1.6490713587487782
1.6334310850439884
1.6207233626588464
1.6080156402737047
1.5923753665689149
1.5718475073313782
1.547409579667644
1.5180840664711632
1.4848484848484849
1.4496578690127078
1.412512218963832
1.375366568914956
1.3411534701857282
1.3088954056695992
1.284457478005865
1.2649071358748778
1.2453567937438903
1.2267839687194526
1.2111436950146628
1.1994134897360704
1.1925708699902249
1.1915933528836755
1.195503421309873
1.2052785923753666
1.2189638318670577
1.2375366568914956
1.2590420332355816
1.2805474095796676
1.303030303030303
1.3264907135874875
1.3499511241446724
1.3714565004887584
1.3900293255131966
1.4027370478983383
1.4105571847507332
1.412512218963832
1.409579667644184
1.401759530791789
1.3900293255131966
1.3773216031280548
1.3626588465298142
1.3421309872922775
1.3176930596285434
1.2903225806451613
1.2619745845552297
1.2346041055718475
1.2082111436950147
1.1837732160312806
1.1622678396871946
1.1436950146627567
1.1319648093841643
1.1290322580645162
1.1368523949169111
1.1583577712609971
1.1994134897360704
1.260019550342131
1.3411534701857282
1.4389051808406648
1.5483870967741935
1.6627565982404693
1.7761485826001957
1.8836754643206255
1.981427174975562
2.0684261974584555
2.133919843597263
2.187683284457478
2.243401759530792
2.300097751710655
2.358748778103617
2.419354838709677
2.479960899315738
2.539589442815249
2.5972629521016617
2.649071358748778
2.6940371456500487
2.729227761485826
2.755620723362659
2.7673509286412514
2.7673509286412514
2.760508308895406
2.742913000977517
2.713587487781036
2.673509286412512
2.6236559139784945
2.5669599217986314
2.504398826979472
2.4389051808406648
2.3714565004887587
2.304007820136853
2.243401759530792
2.185728250244379
2.124144672531769
2.06158357771261
1.9990224828934504
1.9364613880742916
1.8758553274682308
1.8172043010752688
1.761485826001955
1.7086999022482894
1.6588465298142718
1.611925708699902
1.56891495601173
1.5347018572825024
1.5053763440860215
1.4750733137829912
1.444770283479961
1.4173998044965788
1.392961876832845
1.3714565004887584
1.3528836754643203
1.3372434017595307
1.3235581622678396
1.3118279569892473
1.3010752688172045
1.2942326490713587
1.2883675464320623
1.2805474095796676
1.2727272727272727
1.2649071358748778
1.2570869990224829
1.249266862170088
1.241446725317693
1.2326490713587488
1.224828934506354
1.217008797653959
1.209188660801564
1.2013685239491692
1.1964809384164223
1.1935483870967742
1.1886608015640274
1.1827956989247312
1.176930596285435
1.1720430107526882
1.1671554252199414
1.1622678396871946
1.1583577712609971
1.1544477028347997
1.1515151515151516
1.1485826001955035
1.147605083088954
1.1485826001955035
1.147605083088954
1.1456500488758554
1.1436950146627567
1.141739980449658
1.1397849462365592
1.13880742913001
1.1378299120234605
1.13880742913001
1.1407624633431086
1.144672531769306
1.1495601173020529
1.1564027370478984
1.164222873900293
1.1700879765395895
1.1759530791788857
1.1827956989247312
1.1896383186705768
1.195503421309873
1.2023460410557183
1.2130987292277615
1.2316715542521994
1.2639296187683284
1.3128054740957966
1.370478983382209
1.439882697947214
1.5366568914956011
1.653958944281525
1.7869012707722385
1.9286412512218964
2.072336265884653
2.212121212121212
2.3411534701857284
2.4574780058651027
2.560117302052786
2.6480938416422286
2.7223851417399803
2.7751710654936463
2.814271749755621
2.855327468230694
2.89247311827957
2.9257086999022484
2.95405669599218
2.975562072336266
2.9902248289345064
2.9960899315738025
2.9931573802541545
2.981427174975562
2.960899315738025
2.9315738025415445
2.8944281524926687
2.849462365591398
2.795698924731183
2.7341153470185726
2.667644183773216
2.598240469208211
2.5288367546432062
2.464320625610948
2.4086021505376345
2.3655913978494625
2.3362658846529816
2.320625610948192
2.313782991202346
2.314760508308896
2.3255131964809386
2.3421309872922778
2.357771260997068
2.3685239491691106
2.3714565004887587
2.363636363636364
2.347018572825025
2.3225806451612905
2.29227761485826
2.259042033235582
2.2267839687194524
2.196480938416422
2.166177908113392
2.1378299120234603
2.113391984359726
2.09188660801564
2.074291300097752
2.058651026392962
2.04594330400782
2.035190615835777
2.0254154447702835
2.016617790811339
2.007820136852395
1.9990224828934504
1.9872922776148585
1.9736070381231672
1.9550342130987293
1.9335288367546437
1.9071358748778104
1.8778103616813293
1.8455522971652003
1.8113391984359728
1.775171065493646
1.739980449657869
1.7057673509286413
1.6764418377321604
1.6520039100684265
1.6275659824046922
1.6050830889540566
1.585532746823069
1.5679374389051808
1.5542521994134897
1.542521994134897
1.533724340175953
1.525904203323558
1.520039100684262
1.5141739980449658
1.509286412512219
1.5053763440860215
1.501466275659824
1.4965786901270772
1.4916911045943304
1.4868035190615836
1.4819159335288368
1.47702834799609
1.4731182795698925
1.469208211143695
1.4643206256109482
1.4594330400782014
1.4535679374389052
1.4496578690127078
1.4457478005865103
1.4418377321603129
1.4389051808406648
1.4379276637341154
1.4408602150537635
1.452590420332356
1.4750733137829912
1.512218963831867
1.5669599217986314
1.640273704789834
1.7302052785923754
1.8172043010752688
1.9042033235581624
2.005865102639296
2.112414467253177
2.21505376344086
2.3088954056695994
2.3919843597262958
2.4613880742913
2.5190615835777126
2.565982404692082
2.603128054740958
2.632453567937439
2.654936461388074
2.6666666666666665
2.6715542521994133
2.677419354838709
2.6803519061583576
2.6803519061583576
2.675464320625611
2.6637341153470184
2.6451612903225805
2.619745845552297
2.587487781036168
2.547409579667644
2.5004887585532747
2.452590420332356
2.4027370478983383
2.346041055718475
2.2873900293255134
2.228739002932551
2.1730205278592374
2.121212121212121
2.075268817204301
2.0361681329423265
2.002932551319648
1.9745845552297163
1.9501466275659824
