ppg
3.03128054740958
3.0117302052785924
2.963831867057673
2.8944281524926687
2.807429130009776
2.708699902248289
2.60019550342131
2.4858260019550342
2.3812316715542523
2.280547409579668
2.167155425219941
2.047898338220919
1.9286412512218964
1.812316715542522
1.699902248289345
1.5943304007820136
1.498533724340176
1.414467253176931
1.3440860215053765
1.289345063538612
1.2551319648093842
1.2375366568914956
1.2316715542521994
1.238514173998045
1.260019550342131
1.2961876832844574
1.343108504398827
1.3978494623655917
1.457478005865103
1.5190615835777126
1.5796676441837731
1.6363636363636365
1.686217008797654
1.7253176930596286
1.75366568914956
1.7741935483870968
1.7869012707722385
1.790811339198436
1.7869012707722385
1.7761485826001957
1.758553274682307
1.7350928641251222
1.7086999022482894
1.678396871945259
1.643206256109482
1.611925708699902
1.581622678396872
1.5454545454545454
1.5102639296187683
1.4819159335288368
1.4701857282502444
1.4819159335288368
1.5268817204301075
1.6080156402737047
1.7253176930596286
1.8748778103616808
2.047898338220919
2.206256109481916
2.3519061583577714
2.506353861192571
2.6471163245356792
2.7624633431085046
2.843597262952102
2.887585532746823
2.8944281524926687
2.8699902248289346
2.819159335288368
2.747800586510264
2.658846529814272
2.5591397849462365
2.464320625610948
2.36950146627566
2.260997067448681
2.144672531769306
2.024437927663734
1.903225806451613
1.7839687194525904
1.6686217008797657
1.5581622678396871
1.456500488758553
1.3665689149560116
1.289345063538612
1.2326490713587488
1.1925708699902249
1.160312805474096
1.1407624633431086
1.1348973607038124
1.1436950146627567
1.166177908113392
1.1994134897360704
1.241446725317693
1.2883675464320623
1.3372434017595307
1.3841642228739004
1.4271749755620724
1.4623655913978495
1.4916911045943304
1.5161290322580645
1.5356793743890518
1.5483870967741935
1.5532746823069403
1.5513196480938416
1.542521994134897
1.5268817204301075
1.5053763440860215
1.478983382209189
1.4486803519061584
1.423264907135875
1.3988269794721409
1.367546432062561
1.3333333333333333
1.2971652003910068
1.2619745845552297
1.23069403714565
1.209188660801564
1.2043010752688172
1.224828934506354
1.2776148582600195
1.3665689149560116
1.4897360703812317
1.6187683284457477
1.7556207233626588
1.919843597262952
2.090909090909091
2.2170087976539588
2.303030303030303
2.3851417399804498
2.4457478005865103
2.4780058651026398
2.4819159335288368
2.4594330400782014
2.4144672531769307
2.3597262952101663
2.2952101661779083
2.2140762463343107
2.121212121212121
2.0205278592375366
1.9120234604105573
1.7996089931573802
1.683284457478006
1.5669599217986314
1.4516129032258065
1.3401759530791788
1.2346041055718475
1.1368523949169111
1.0606060606060606
1.0
0.9403714565004888
0.8885630498533724
0.8484848484848485
0.823069403714565
0.8123167155425219
0.8172043010752689
0.8377321603128055
0.873900293255132
0.9227761485826002
0.981427174975562
1.0391006842619743
1.0977517106549364
1.1622678396871946
1.2287390029325511
1.2932551319648091
1.3499511241446724
1.3988269794721409
1.435972629521017
1.4613880742913
1.4760508308895406
1.4809384164222874
1.47702834799609
1.466275659824047
1.4545454545454546
1.4408602150537635
1.423264907135875
1.4037145650048877
1.383186705767351
1.3655913978494625
1.35386119257087
1.3558162267839686
1.3782991202346042
1.4291300097751711
1.5161290322580645
1.6412512218963833
1.7741935483870968
1.921798631476051
2.10850439882698
2.315738025415445
2.5239491691104594
2.717497556207233
2.8836754643206257
3.01564027370479
3.1065493646138806
3.157380254154448
3.1700879765395893
3.1485826001955037
3.0977517106549364
3.0332355816226784
2.956011730205278
2.8611925708699903
2.7536656891495603
2.6392961876832843
2.520039100684262
2.396871945259042
2.272727272727273
2.1485826001955037
2.026392961876833
1.9090909090909087
1.8005865102639296
1.7126099706744868
1.6412512218963833
1.573802541544477
1.517106549364614
1.474095796676442
1.4457478005865103
1.434017595307918
1.4389051808406648
1.458455522971652
1.4916911045943304
1.5356793743890518
1.587487781036168
1.6441837732160314
1.694037145650049
1.739980449657869
1.7869012707722385
1.8299120234604105
1.866080156402737
1.8944281524926687
1.913978494623656
1.924731182795699
1.9266862170087975
1.921798631476051
1.9100684261974583
1.8934506353861196
1.8748778103616808
1.8543499511241448
1.828934506353861
1.7976539589442817
1.7634408602150538
1.729227761485826
1.6989247311827955
1.6803519061583578
1.6803519061583578
1.7086999022482894
1.7732160312805474
1.8758553274682308
2.016617790811339
2.158357771260997
2.304985337243402
2.479960899315738
2.6578690127077222
2.8211143695014664
2.956989247311828
3.056695992179863
3.114369501466276
3.132942326490713
3.114369501466276
3.065493646138808
2.992179863147605
2.9100684261974585
2.820136852394917
2.713587487781036
2.595307917888563
2.4701857282502444
2.3421309872922778
2.212121212121212
2.083088954056696
1.9550342130987293
1.83088954056696
1.7135874877810362
1.6041055718475072
1.5053763440860215
1.4291300097751711
1.3695014662756595
1.316715542521994
1.2766373411534702
1.2512218963831867
1.2434017595307918
1.2512218963831867
1.273704789833822
1.3098729227761483
1.356793743890518
1.4115347018572826
1.4711632453567938
1.525904203323558
1.576735092864125
1.6285434995112416
1.6764418377321604
1.718475073313783
1.750733137829912
1.7732160312805474
1.7839687194525904
1.7849462365591398
1.7761485826001957
1.7605083088954057
1.7380254154447703
1.715542521994135
1.6920821114369502
1.66177908113392
1.6265884652981428
1.587487781036168
1.5454545454545454
1.500488758553275
1.4594330400782014
1.426197458455523
1.4086021505376345
1.41544477028348
1.456500488758553
1.5366568914956011
1.632453567937439
1.7487781036168133
1.906158357771261
2.0869990224828934
2.274682306940372
2.452590420332356
2.6070381231671558
2.7282502443792764
2.811339198435973
2.855327468230694
2.86217008797654
2.8377321603128056
2.792766373411535
2.7311827956989245
2.650048875855328
2.555229716520039
2.450635386119257
2.3382209188660803
2.219941348973607
2.0987292277614857
1.975562072336266
1.8523949169110456
1.7302052785923754
1.611925708699902
1.499511241446725
1.4086021505376345
1.332355816226784
1.2561094819159335
1.1886608015640274
1.1348973607038124
1.0948191593352885
1.0713587487781036
1.0654936461388074
1.0772238514173995
1.104594330400782
1.1456500488758554
1.1974584555229717
1.249266862170088
1.3040078201368523
1.3655913978494625
1.4281524926686218
1.487781036168133
1.541544477028348
1.5865102639296187
1.6207233626588464
1.643206256109482
1.6549364613880744
1.6578690127077225
1.6529814271749756
1.640273704789834
1.6256109481915937
1.608993157380254
1.585532746823069
1.5581622678396871
1.5278592375366569
1.4946236559139785
1.4594330400782014
1.4242424242424243
1.393939393939394
1.3743890518084063
1.375366568914956
1.4066471163245358
1.457478005865103
1.533724340175953
1.6529814271749756
1.8084066471163245
1.9872922776148585
2.177908113391984
2.363636363636364
2.530791788856305
2.667644183773216
2.766373411534702
2.8260019550342133
2.809384164222874
2.7419354838709675
2.684261974584555
2.624633431085044
2.5562072336265884
2.4780058651026398
2.3929618768328447
2.302052785923754
2.207233626588465
2.1094819159335287
2.010752688172043
1.911045943304008
1.812316715542522
1.7174975562072337
1.6373411534701858
1.5669599217986314
1.4926686217008798
1.4222873900293256
1.3587487781036167
1.3040078201368523
1.2619745845552297
1.2326490713587488
1.2179863147605083
1.2160312805474096
1.2267839687194526
1.249266862170088
1.2805474095796676
1.3147605083088951
1.3509286412512218
1.3919843597262953
1.4349951124144673
1.4760508308895406
1.5141739980449658
1.5464320625610948
1.5728250244379276
1.5923753665689149
1.6041055718475072
1.6080156402737047
1.606060606060606
1.6001955034213098
1.590420332355816
1.5747800586510263
1.555229716520039
1.533724340175953
1.5102639296187683
1.4848484848484849
1.458455522971652
1.43108504398827
1.4027370478983383
1.3763440860215057
1.3548387096774193
1.343108504398827
1.3440860215053765
1.3607038123167154
1.4007820136852396
1.4682306940371457
1.563049853372434
1.6813294232649072
1.81524926686217
1.9560117302052784
2.09188660801564
2.2140762463343107
2.315738025415445
2.3919843597262958
2.436950146627566
2.455522971652004
2.453567937438905
2.432062561094819
2.3919843597262958
2.3362658846529816
2.2688172043010755
2.1925708699902247
2.10850439882698
2.0205278592375366
1.9286412512218964
1.8347996089931573
1.7390029325513197
1.656891495601173
1.5826001955034212
1.501466275659824
1.4193548387096775
1.3411534701857282
1.270772238514174
1.2101661779081134
1.1612903225806452
1.1251221896383188
1.1026392961876832
1.0948191593352885
1.1016617790811338
1.1192570869990224
1.1456500488758554
1.1827956989247312
1.2297165200391007
1.2834799608993157
1.3411534701857282
1.3998044965786902
1.457478005865103
1.5112414467253177
1.5591397849462365
1.6001955034213098
1.6344086021505375
1.6598240469208212
1.6774193548387095
1.6881720430107527
1.694037145650049
1.6950146627565983
1.6920821114369502
1.6852394916911049
1.675464320625611
1.66177908113392
1.6451612903225807
1.6285434995112416
1.6138807429130009
1.607038123167155
1.608993157380254
1.6256109481915937
1.664711632453568
1.7311827956989247
1.8240469208211143
1.9413489736070384
2.0772238514174
2.2218963831867056
2.364613880742913
2.495601173020528
2.6050830889540566
2.686217008797654
2.7331378299120237
2.750733137829912
2.7468230694037143
2.721407624633431
2.675464320625611
2.6148582600195502
2.541544477028348
2.4604105571847508
2.372434017595308
2.2795698924731185
2.1847507331378297
2.0879765395894427
1.991202346041056
1.906158357771261
1.828934506353861
1.7468230694037146
1.6656891495601174
1.5884652981427174
1.5190615835777126
1.4594330400782014
1.4115347018572826
1.375366568914956
1.3528836754643203
1.3440860215053765
1.3479960899315735
1.3626588465298142
1.3861192570869991
1.4213098729227762
1.4643206256109482
1.512218963831867
1.5620723362658846
1.611925708699902
1.6588465298142718
1.7008797653958945
1.7360703812316716
1.7644183773216031
1.7859237536656891
1.7986314760508308
1.804496578690127
1.8035190615835777
1.7976539589442817
1.7859237536656891
1.76930596285435
1.7497556207233629
1.726295210166178
1.699902248289345
1.6705767350928642
1.6392961876832846
1.608993157380254
1.5835777126099706
1.5679374389051808
1.565982404692082
1.58455522971652
1.6304985337243405
1.70772238514174
1.81524926686217
1.948191593352884
2.0987292277614857
2.2551319648093844
2.4056695992179864
2.5386119257087
2.6451612903225805
2.720430107526881
2.760508308895406
2.771260997067449
2.758553274682307
2.7233626588465296
2.6695992179863146
2.60019550342131
2.5190615835777126
2.429130009775171
2.333333333333333
2.232649071358749
2.129032258064516
2.0254154447702835
1.9345063538611929
1.8514173998044965
1.761485826001955
1.6705767350928642
1.5826001955034212
1.500488758553275
1.4281524926686218
1.3655913978494625
1.3157380254154447
1.2795698924731185
1.2580645161290325
1.249266862170088
1.2551319648093842
1.2717497556207231
1.2981427174975562
1.335288367546432
1.380254154447703
1.4301075268817205
1.482893450635386
1.5356793743890518
1.585532746823069
1.629521016617791
1.6666666666666667
1.6950146627565983
1.7145650048875856
1.7272727272727273
1.7331378299120237
1.732160312805474
1.7243401759530792
1.7096774193548387
1.6911045943304008
1.667644183773216
1.6412512218963833
1.6109481915933528
1.5786901270772238
1.544477028347996
1.5112414467253177
1.482893450635386
1.4643206256109482
1.458455522971652
1.4701857282502444
1.5083088954056696
1.5777126099706744
1.6793743890518085
1.8084066471163245
1.956989247311828
2.113391984359726
2.2658846529814274
2.403714565004888
2.5161290322580645
2.591397849462365
2.635386119257087
2.6578690127077222
2.6559139784946235
2.6295210166177907
2.6177908113391983
2.603128054740958
2.5434995112414467
2.4594330400782014
2.3597262952101663
2.251221896383187
2.1378299120234603
2.021505376344086
1.919843597262952
1.8269794721407624
1.7253176930596286
1.6226783968719452
1.5239491691104594
1.43108504398827
1.3479960899315735
1.2776148582600195
1.2209188660801564
1.1808406647116323
1.1583577712609971
1.1534701857282503
1.1612903225806452
1.1808406647116323
1.2140762463343109
1.260019550342131
1.3147605083088951
1.375366568914956
1.439882697947214
1.5034213098729228
1.563049853372434
1.6177908113391983
1.6637341153470186
1.699902248289345
1.7253176930596286
1.7409579667644184
1.747800586510264
1.7468230694037146
1.7380254154447703
1.7223851417399805
1.7018572825024438
1.6774193548387095
1.6490713587487782
1.616813294232649
1.581622678396872
1.5454545454545454
1.509286412512219
1.4809384164222874
1.4604105571847508
1.447702834799609
1.4535679374389052
1.4868035190615836
1.5542521994134897
1.6578690127077225
1.7947214076246334
1.9579667644183771
2.1358748778103616
2.313782991202346
2.4789833822091887
2.618768328445748
2.716520039100684
2.777126099706745
2.814271749755621
2.822091886608016
2.80058651026393
2.752688172043011
2.684261974584555
2.5992179863147604
2.5004887585532747
2.393939393939394
2.281524926686217
2.1652003910068425
2.060606060606061
1.9618768328445748
1.8533724340175952
1.7409579667644184
1.629521016617791
1.52297165200391
1.4252199413489737
1.3372434017595307
1.2609970674486803
1.1964809384164223
1.147605083088954
1.1143695014662756
1.0987292277614855
1.0977517106549364
1.110459433040078
1.1348973607038124
1.1710654936461389
1.2150537634408602
1.2649071358748778
1.3186705767350928
1.3724340175953078
1.4242424242424243
1.4721407624633431
1.5141739980449658
1.5483870967741935
1.573802541544477
1.5913978494623655
1.603128054740958
1.606060606060606
1.6011730205278591
1.5884652981427174
1.5708699902248289
1.5493646138807429
1.5249266862170088
1.4965786901270772
1.466275659824047
1.434017595307918
1.4056695992179864
1.380254154447703
1.3499511241446724
1.321603128054741
1.3020527859237536
1.2971652003910068
1.313782991202346
1.3577712609970674
1.4349951124144673
1.542521994134897
1.6764418377321604
1.828934506353861
1.988269794721408
2.124144672531769
2.239491691104594
2.350928641251222
2.442815249266862
2.5083088954056696
2.5425219941348973
2.5464320625610948
2.5249266862170088
2.4809384164222874
2.418377321603128
2.3411534701857284
2.2531769305962857
2.16911045943304
2.085043988269794
1.988269794721408
1.8836754643206255
1.7761485826001957
1.667644183773216
1.5610948191593352
1.458455522971652
1.3626588465298142
1.2756598240469208
1.2003910068426198
1.1368523949169111
1.0869990224828934
1.0557184750733135
1.0410557184750733
1.0361681329423265
1.0449657869012707
1.0684261974584557
1.1055718475073313
1.1534701857282503
1.2111436950146628
1.2746823069403714
1.3421309872922775
1.4086021505376345
1.4721407624633431
1.525904203323558
1.5708699902248289
1.611925708699902
1.6471163245356797
1.6744868035190617
1.6920821114369502
1.7008797653958945
1.7018572825024438
1.696969696969697
1.6852394916911049
1.6686217008797657
1.6471163245356797
1.6226783968719452
1.6001955034213098
1.5796676441837731
1.5562072336265884
1.5356793743890518
1.5249266862170088
1.5327468230694037
1.565982404692082
1.6304985337243405
1.729227761485826
1.8592375366568916
2.0146627565982405
2.1847507331378297
2.334310850439883
2.464320625610948
2.595307917888563
2.70772238514174
2.790811339198436
2.8396871945259043
2.854349951124145
2.8367546432062563
2.791788856304985
2.724340175953079
2.6392961876832843
2.541544477028348
2.4349951124144678
2.335288367546432
2.239491691104594
2.1309872922776147
2.016617790811339
1.900293255131965
1.7859237536656891
1.675464320625611
1.5718475073313782
1.478983382209189
1.3978494623655917
1.3304007820136852
1.2795698924731185
1.2482893450635386
1.2316715542521994
1.2267839687194526
1.2346041055718475
1.2580645161290325
1.2942326490713587
1.343108504398827
1.4007820136852396
1.4633431085043989
1.5288367546432062
1.5923753665689149
1.651026392961877
1.7018572825024438
1.7409579667644184
1.7702834799608993
1.793743890518084
1.8084066471163245
1.81524926686217
1.8132942326490715
1.8025415444770283
1.7859237536656891
1.7634408602150538
1.7360703812316716
1.704789833822092
1.6695992179863148
1.6373411534701858
1.607038123167155
1.573802541544477
1.544477028347996
1.5268817204301075
1.530791788856305
1.5650048875855327
1.635386119257087
1.7438905180840665
1.8875855327468232
2.0576735092864125
2.242424242424242
2.4271749755620724
2.576735092864125
2.695014662756598
2.80058651026393
2.877810361681329
2.920821114369501
2.9286412512218964
2.9042033235581624
2.852394916911046
2.779081133919844
2.689149560117302
2.587487781036168
2.4809384164222874
2.3851417399804498
2.2883675464320627
2.176930596285435
2.058651026392962
1.93841642228739
1.8191593352883677
1.7038123167155426
1.5943304007820136
1.4936461388074291
1.4037145650048877
1.3264907135874875
1.2639296187683284
1.217008797653959
1.1906158357771262
1.1808406647116323
1.1837732160312806
1.2023460410557183
1.2346041055718475
1.278592375366569
1.3313782991202343
1.391006842619746
1.455522971652004
1.520039100684262
1.581622678396872
1.6373411534701858
1.6813294232649072
1.715542521994135
1.7438905180840665
1.7634408602150538
1.7741935483870968
1.775171065493646
1.7683284457478006
1.75366568914956
1.7331378299120237
1.70772238514174
1.678396871945259
1.6451612903225807
1.608993157380254
1.5777126099706744
1.547409579667644
1.5141739980449658
1.487781036168133
1.4760508308895406
1.4887585532746823
1.5356793743890518
1.6207233626588464
1.7458455522971652
1.905180840664712
2.088954056695992
2.281524926686217
2.4457478005865103
2.5835777126099706
2.7145650048875853
2.8211143695014664
2.89345063538612
2.9266862170087977
2.9227761485826003
2.887585532746823
2.825024437927664
2.742913000977517
2.64613880742913
2.539589442815249
2.4408602150537635
2.343108504398827
2.231671554252199
2.113391984359726
1.992179863147605
1.870967741935484
1.7517106549364614
1.6363636363636365
1.5278592375366569
1.4281524926686218
1.3401759530791788
1.2658846529814272
1.2072336265884651
1.1691104594330402
1.1485826001955035
1.1397849462365592
1.144672531769306
1.164222873900293
1.198435972629521
1.2453567937438903
1.3020527859237536
1.3655913978494625
1.4320625610948192
1.4975562072336266
1.5581622678396871
1.6080156402737047
1.6471163245356797
1.6803519061583578
1.7057673509286413
1.7223851417399805
1.7282502443792769
1.726295210166178
1.7165200391006843
1.6989247311827955
1.675464320625611
1.6480938416422288
1.616813294232649
1.581622678396872
1.5513196480938416
1.521994134897361
1.487781036168133
1.4516129032258065
1.4193548387096775
1.3978494623655917
1.3949169110459434
1.4203323558162269
1.4809384164222874
1.5786901270772238
1.7126099706744868
1.8758553274682308
2.03128054740958
2.1808406647116323
2.345063538611926
2.501466275659824
2.634408602150537
2.7331378299120237
2.793743890518084
2.81622678396872
2.8044965786901277
2.763440860215054
2.6989247311827955
2.616813294232649
2.5219941348973607
2.43108504398827
2.3411534701857284
2.236559139784946
2.124144672531769
2.0087976539589443
1.8914956011730208
1.7741935483870968
1.6608015640273706
1.5513196480938416
1.4506353861192571
1.359726295210166
1.2805474095796676
1.2228739002932552
1.1827956989247312
1.1515151515151516
1.133919843597263
1.1329423264907137
1.1495601173020529
1.181818181818182
1.2267839687194526
1.2825024437927663
1.3440860215053765
1.4076246334310851
1.4701857282502444
1.5298142717497556
1.5796676441837731
1.6207233626588464
1.6578690127077225
1.686217008797654
1.704789833822092
1.7126099706744868
1.7116324535679377
1.7018572825024438
1.6852394916911049
1.66177908113392
1.6334310850439884
1.6021505376344083
1.5747800586510263
1.5483870967741935
1.5161290322580645
1.479960899315738
1.4428152492668622
1.4076246334310851
1.3792766373411536
1.364613880742913
1.3724340175953078
1.4105571847507332
1.4848484848484849
1.5972629521016617
1.7429130009775171
1.8885630498533723
2.035190615835777
2.204301075268817
2.3743890518084068
2.5268817204301075
2.652003910068426
2.740957966764418
2.789833822091887
2.80058651026393
2.7781036168132944
2.727272727272727
2.653958944281525
2.575757575757576
2.490713587487781
2.3900293255131966
2.280547409579668
2.164222873900293
2.0449657869012707
1.9237536656891496
1.8035190615835777
1.6852394916911049
1.5718475073313782
1.466275659824047
1.370478983382209
1.2854349951124144
1.2218963831867058
1.1749755620723363
1.1348973607038124
1.1065493646138806
1.0928641251221896
1.0957966764418376
1.1143695014662756
1.147605083088954
1.1925708699902249
1.2453567937438903
1.303030303030303
1.3626588465298142
1.414467253176931
1.4604105571847508
1.504398826979472
1.542521994134897
1.5728250244379276
1.595307917888563
1.608993157380254
1.6129032258064515
1.6099706744868034
1.5992179863147604
1.5826001955034212
1.5610948191593352
1.5347018572825024
1.5112414467253177
1.4887585532746823
1.4594330400782014
1.426197458455523
1.3919843597262953
1.3577712609970674
1.3235581622678396
1.2932551319648091
1.2746823069403714
1.2756598240469208
1.303030303030303
1.3626588465298142
1.4389051808406648
1.5366568914956011
1.672531769305963
1.8328445747800584
2.003910068426197
2.1710654936461387
2.3225806451612905
2.4486803519061584
2.5425219941348973
2.601173020527859
2.625610948191593
2.619745845552297
2.5855327468230693
2.536656891495601
2.47702834799609
2.3978494623655915
2.3059628543499517
2.2052785923753664
2.090909090909091
1.967741935483871
1.8455522971652003
1.7243401759530792
1.606060606060606
1.4916911045943304
1.3841642228739004
1.2981427174975562
1.227761485826002
1.1573802541544478
1.093841642228739
1.043010752688172
1.0087976539589445
0.9931573802541545
0.9951124144672532
1.0146627565982405
1.0518084066471165
1.1026392961876832
1.1652003910068427
1.2365591397849462
1.3049853372434017
1.3714565004887584
1.4428152492668622
1.5131964809384164
1.5786901270772238
1.635386119257087
1.6813294232649072
1.7165200391006843
1.739980449657869
1.75366568914956
1.758553274682307
1.75366568914956
1.7448680351906158
1.7331378299120237
1.715542521994135
1.6930596285434996
1.6656891495601174
1.635386119257087
1.6041055718475072
1.5747800586510263
1.5532746823069403
1.5483870967741935
1.5679374389051808
1.619745845552297
1.6881720430107527
1.780058651026393
1.913978494623656
2.078201368523949
2.260997067448681
2.4457478005865103
2.6158357771261
2.758553274682307
2.8670576735092865
2.935483870967742
2.964809384164223
2.956011730205278
2.9149560117302054
2.857282502443793
2.78494623655914
2.69208211143695
2.5855327468230693
2.4682306940371457
2.3440860215053765
2.2170087976539588
2.086021505376344
1.95405669599218
1.8240469208211143
1.696969696969697
1.5757575757575757
1.47702834799609
1.3949169110459434
1.3128054740957966
1.2404692082111437
1.1827956989247312
1.142717497556207
1.121212121212121
1.1192570869990224
1.1368523949169111
1.1730205278592376
1.2238514173998043
1.2864125122189638
1.3577712609970674
1.4242424242424243
1.487781036168133
1.5542521994134897
1.6187683284457477
1.6744868035190617
1.7204301075268815
1.7556207233626588
1.7790811339198436
1.790811339198436
1.790811339198436
1.7820136852394917
1.7644183773216031
1.7448680351906158
1.7233626588465298
1.6950146627565983
1.66177908113392
1.6236559139784943
1.581622678396872
1.5366568914956011
1.4926686217008798
