ppg
1.104594330400782
1.093841642228739
1.0850439882697946
1.0791788856304985
1.075268817204301
1.0694037145650048
1.0635386119257086
1.056695992179863
1.0498533724340176
1.043010752688172
1.0371456500488758
1.032258064516129
1.0283479960899315
1.0254154447702837
1.0234604105571847
1.0224828934506354
1.024437927663734
1.0263929618768328
1.0254154447702837
1.0234604105571847
1.0224828934506354
1.0224828934506354
1.0224828934506354
1.0224828934506354
1.0224828934506354
1.0234604105571847
1.0254154447702837
1.0283479960899315
1.032258064516129
1.0361681329423265
1.0381231671554252
1.0391006842619743
1.0410557184750733
1.0420332355816226
1.043010752688172
1.04594330400782
1.0498533724340176
1.053763440860215
1.0576735092864125
1.06158357771261
1.0654936461388074
1.0703812316715542
1.0762463343108504
1.0811339198435972
1.086021505376344
1.088954056695992
1.0899315738025417
1.0899315738025417
1.0918866080156402
1.0987292277614855
1.115347018572825
1.1505376344086022
1.2130987292277615
1.289345063538612
1.3870967741935485
1.525904203323558
1.6979472140762464
1.8885630498533723
2.102639296187683
2.321603128054741
2.515151515151515
2.6803519061583576
2.8181818181818183
2.929618768328446
3.016617790811339
3.080156402737048
3.1163245356793743
3.134897360703812
3.146627565982405
3.147605083088954
3.1388074291300097
3.1192570869990224
3.089931573802541
3.0527859237536656
3.010752688172043
2.9657869012707723
2.9159335288367547
2.86217008797654
2.807429130009776
2.750733137829912
2.6852394916911044
2.6129032258064515
2.533724340175953
2.44672531769306
2.3548387096774195
2.259042033235582
2.1358748778103616
2.0254154447702835
1.948191593352884
1.868035190615836
1.7986314760508308
1.7380254154447703
1.678396871945259
1.6275659824046922
1.587487781036168
1.5562072336265884
1.533724340175953
1.5180840664711632
1.509286412512219
1.504398826979472
1.5024437927663734
1.501466275659824
1.500488758553275
1.499511241446725
1.4965786901270772
1.4916911045943304
1.4848484848484849
1.47702834799609
1.469208211143695
1.4613880742913
1.4516129032258065
1.4408602150537635
1.4271749755620724
1.409579667644184
1.3900293255131966
1.3724340175953078
1.356793743890518
1.3372434017595307
1.313782991202346
1.289345063538612
1.2649071358748778
1.2394916911045943
1.2160312805474096
1.1964809384164223
1.1808406647116323
1.166177908113392
1.152492668621701
1.1397849462365592
1.1300097751710656
1.1221896383186705
1.1114369501466277
1.1006842619745845
1.0909090909090908
1.0821114369501466
1.0742913000977516
1.0664711632453567
1.0596285434995112
1.0557184750733135
1.053763440860215
1.0527859237536656
1.053763440860215
1.053763440860215
1.0527859237536656
1.0527859237536656
1.0527859237536656
1.0527859237536656
1.050830889540567
1.0469208211143697
1.043010752688172
1.0410557184750733
1.040078201368524
1.0391006842619743
1.0391006842619743
1.0410557184750733
1.0439882697947214
1.04594330400782
1.0469208211143697
1.0469208211143697
1.0469208211143697
1.0478983382209188
1.0498533724340176
1.050830889540567
1.0518084066471165
1.0518084066471165
1.0518084066471165
1.0527859237536656
1.053763440860215
1.050830889540567
1.0449657869012707
1.0371456500488758
1.0312805474095796
1.0312805474095796
1.0410557184750733
1.0664711632453567
1.115347018572825
1.195503421309873
1.3118279569892473
1.4623655913978495
1.6138807429130009
1.7683284457478006
1.9521016617790807
2.1436950146627565
2.329423264907136
2.498533724340176
2.644183773216031
2.7624633431085046
2.855327468230694
2.9237536656891496
2.970674486803519
3.0
3.0087976539589443
3.003910068426197
2.9931573802541545
2.9745845552297165
2.949169110459433
2.918866080156403
2.881720430107527
2.8396871945259043
2.792766373411535
2.739980449657869
2.6803519061583576
2.6148582600195502
2.544477028347996
2.4750733137829912
2.404692082111437
2.324535679374389
2.2375366568914954
2.144672531769306
2.04594330400782
1.9442815249266865
1.8455522971652003
1.750733137829912
1.6608015640273706
1.576735092864125
1.498533724340176
1.4418377321603129
1.4037145650048877
1.367546432062561
1.33822091886608
1.316715542521994
1.3040078201368523
1.2981427174975562
1.2961876832844574
1.2971652003910068
1.2981427174975562
1.2991202346041055
1.2991202346041055
1.2991202346041055
1.300097751710655
1.3010752688172045
1.2981427174975562
1.29227761485826
1.2854349951124144
1.2776148582600195
1.2668621700879763
1.2531769305962854
1.2375366568914956
1.2218963831867058
1.206256109481916
1.1915933528836755
1.181818181818182
1.1710654936461389
1.1573802541544478
1.142717497556207
1.1280547409579669
1.1143695014662756
1.1006842619745845
1.0869990224828934
1.072336265884653
1.0596285434995112
1.0488758553274682
1.0391006842619743
1.0303030303030305
1.0254154447702837
1.021505376344086
1.0146627565982405
1.007820136852395
1.0
0.9931573802541545
0.9872922776148584
0.9824046920821116
0.978494623655914
0.9765395894428152
0.975562072336266
0.975562072336266
0.9775171065493646
0.9804496578690128
0.9824046920821116
0.9833822091886608
0.9833822091886608
0.9833822091886608
0.9833822091886608
0.9833822091886608
0.9824046920821116
0.9804496578690128
0.978494623655914
0.9765395894428152
0.9775171065493646
0.9804496578690128
0.9824046920821116
0.9833822091886608
0.9843597262952102
0.9863147605083088
0.989247311827957
0.9931573802541545
0.9951124144672532
0.9960899315738024
0.9951124144672532
0.9912023460410556
0.9882697947214076
0.9882697947214076
0.9843597262952102
0.9794721407624634
0.981427174975562
0.997067448680352
1.035190615835777
1.1026392961876832
1.1652003910068427
1.2825024437927663
1.479960899315738
1.6314760508308896
1.81524926686217
2.0361681329423265
2.2130987292277613
2.3851417399804498
2.5405669599217986
2.6715542521994133
2.776148582600196
2.8563049853372435
2.913978494623656
2.951124144672532
2.9716520039100685
2.978494623655914
2.93841642228739
2.8690127077223853
2.8181818181818183
2.7781036168132944
2.740957966764418
2.702834799608993
2.662756598240469
2.619745845552297
2.572825024437928
2.5210166177908118
2.462365591397849
2.3978494623655915
2.326490713587488
2.257086999022483
2.187683284457478
2.1065493646138806
2.018572825024438
1.9286412512218964
1.839687194525904
1.75366568914956
1.672531769305963
1.598240469208211
1.5317693059628543
1.4750733137829912
1.4291300097751711
1.393939393939394
1.370478983382209
1.3558162267839686
1.3450635386119256
1.3401759530791788
1.3391984359726294
1.3411534701857282
1.3440860215053765
1.346041055718475
1.3470185728250244
1.3470185728250244
1.3450635386119256
1.3421309872922775
1.3391984359726294
1.3372434017595307
1.3343108504398826
1.3284457478005864
1.3206256109481915
1.3128054740957966
1.3049853372434017
1.2961876832844574
1.2864125122189638
1.2746823069403714
1.2619745845552297
1.249266862170088
1.2375366568914956
1.227761485826002
1.219941348973607
1.2121212121212122
1.2043010752688172
1.1974584555229717
1.1915933528836755
1.1867057673509287
1.1827956989247312
1.1788856304985338
1.1749755620723363
1.1710654936461389
1.1681329423264908
1.1671554252199414
1.1691104594330402
1.1700879765395895
1.1691104594330402
1.1691104594330402
1.1691104594330402
1.1691104594330402
1.1700879765395895
1.1710654936461389
1.1720430107526882
1.1730205278592376
1.1749755620723363
1.176930596285435
1.1808406647116323
1.18475073313783
1.1867057673509287
1.1886608015640274
1.1906158357771262
1.1915933528836755
1.1915933528836755
1.1915933528836755
1.1915933528836755
1.1915933528836755
1.1915933528836755
1.1915933528836755
1.1925708699902249
1.1945259042033236
1.195503421309873
1.195503421309873
1.195503421309873
1.195503421309873
1.1945259042033236
1.1925708699902249
1.1896383186705768
1.187683284457478
1.1886608015640274
1.1964809384164223
1.2189638318670577
1.2531769305962854
1.305962854349951
1.391006842619746
1.5083088954056696
1.6529814271749756
1.8172043010752688
1.9931573802541545
2.16911045943304
2.335288367546432
2.484848484848485
2.613880742913001
2.720430107526881
2.793743890518084
2.8426197458455524
2.881720430107527
2.9071358748778104
2.917888563049853
2.9149560117302054
2.9012707722385143
2.877810361681329
2.84652981427175
2.809384164222874
2.768328445747801
2.7233626588465296
2.675464320625611
2.6265884652981426
2.575757575757576
2.5190615835777126
2.4574780058651027
2.391006842619746
2.3196480938416424
2.244379276637341
2.164222873900293
2.0791788856304985
1.988269794721408
1.895405669599218
1.8025415444770283
1.7233626588465298
1.653958944281525
1.58455522971652
1.5190615835777126
1.4633431085043989
1.4173998044965788
1.3812316715542523
1.35386119257087
1.335288367546432
1.324535679374389
1.3186705767350928
1.316715542521994
1.316715542521994
1.316715542521994
1.3157380254154447
1.3147605083088951
1.313782991202346
1.3118279569892473
1.3069403714565004
1.300097751710655
1.29227761485826
1.281524926686217
1.267839687194526
1.2531769305962854
1.238514173998045
1.2258064516129032
1.2140762463343109
1.2003910068426198
1.1857282502443791
1.1700879765395895
1.1564027370478984
1.142717497556207
1.1290322580645162
1.1163245356793745
1.104594330400782
1.0928641251221896
1.0821114369501466
1.072336265884653
1.0664711632453567
1.0625610948191593
1.056695992179863
1.0498533724340176
1.043010752688172
1.035190615835777
1.0283479960899315
1.0234604105571847
1.0175953079178883
1.0127077223851415
1.0087976539589445
1.0048875855327468
1.0048875855327468
1.0068426197458455
1.007820136852395
1.007820136852395
1.007820136852395
1.0068426197458455
1.0048875855327468
1.0009775171065494
0.9960899315738024
0.9912023460410556
0.9863147605083088
0.981427174975562
0.9794721407624634
0.9804496578690128
0.9824046920821116
0.9833822091886608
0.9843597262952102
0.9843597262952102
0.9843597262952102
0.9843597262952102
0.9843597262952102
0.9843597262952102
0.9843597262952102
0.9843597262952102
0.9843597262952102
0.9863147605083088
0.989247311827957
0.9912023460410556
0.9902248289345064
0.9863147605083088
0.9824046920821116
0.9794721407624634
0.9794721407624634
0.9863147605083088
1.007820136852395
1.0518084066471165
1.1251221896383188
1.2101661779081134
1.3147605083088951
1.456500488758553
1.624633431085044
1.8064516129032255
1.989247311827957
2.163245356793744
2.318670576735093
2.4516129032258065
2.5610948191593352
2.6471163245356792
2.710654936461388
2.7536656891495603
2.774193548387097
2.779081133919844
2.777126099706745
2.76930596285435
2.7546432062561097
2.732160312805474
2.7008797653958942
2.6637341153470184
2.621700879765396
2.575757575757576
2.5249266862170088
2.469208211143695
2.4134897360703813
2.357771260997068
2.294232649071359
2.2248289345063537
2.1495601173020527
2.069403714565005
1.9951124144672527
1.921798631476051
1.8387096774193548
1.75366568914956
1.6686217008797657
1.5884652981427174
1.5151515151515151
1.458455522971652
1.412512218963832
1.3714565004887584
1.3391984359726294
1.3157380254154447
1.3010752688172045
1.2932551319648091
1.2903225806451613
1.2913000977517106
1.295210166177908
1.2991202346041055
1.303030303030303
1.3069403714565004
1.3098729227761483
1.3118279569892473
1.310850439882698
1.305962854349951
1.2991202346041055
1.29227761485826
1.284457478005865
1.2766373411534702
1.267839687194526
1.2561094819159335
1.2434017595307918
1.23069403714565
1.2218963831867058
1.2140762463343109
1.2043010752688172
1.1935483870967742
1.181818181818182
1.1700879765395895
1.1583577712609971
1.147605083088954
1.1368523949169111
1.1270772238514175
1.1173020527859236
1.1085043988269794
1.1036168132942326
1.1016617790811338
1.0977517106549364
1.0948191593352885
1.093841642228739
1.0928641251221896
1.0928641251221896
1.0909090909090908
1.0879765395894427
1.086021505376344
1.0850439882697946
1.0850439882697946
1.0850439882697946
1.0869990224828934
1.0899315738025417
1.0909090909090908
1.0918866080156402
1.0918866080156402
1.0918866080156402
1.0918866080156402
1.0918866080156402
1.0928641251221896
1.0948191593352885
1.0957966764418376
1.0977517106549364
1.1006842619745845
1.1016617790811338
1.1006842619745845
1.0987292277614855
1.0977517106549364
1.0977517106549364
1.0977517106549364
1.0977517106549364
1.0977517106549364
1.0977517106549364
1.0987292277614855
1.0987292277614855
1.0977517106549364
1.0987292277614855
1.0987292277614855
1.0977517106549364
1.0977517106549364
1.0977517106549364
1.1016617790811338
1.1163245356793745
1.1505376344086022
1.2140762463343109
1.3088954056695992
1.435972629521017
1.590420332355816
1.7390029325513197
1.8866080156402736
2.0547409579667644
2.222873900293255
2.380254154447703
2.5190615835777126
2.634408602150537
2.7262952101661777
2.793743890518084
2.8396871945259043
2.8670576735092865
2.877810361681329
2.87683284457478
2.863147605083089
2.841642228739003
2.8152492668621703
2.7839687194525906
2.747800586510264
2.7067448680351904
2.6608015640273703
2.610948191593353
2.5562072336265884
2.496578690127077
2.4330400782013686
2.3626588465298144
2.294232649071359
2.2248289345063537
2.1436950146627565
2.0557184750733137
1.963831867057673
1.8699902248289344
1.7771260997067448
1.689149560117302
1.606060606060606
1.5298142717497556
1.4643206256109482
1.409579667644184
1.3665689149560116
1.335288367546432
1.313782991202346
1.2971652003910068
1.2873900293255132
1.2825024437927663
1.2795698924731185
1.278592375366569
1.2795698924731185
1.2825024437927663
1.2834799608993157
1.284457478005865
1.284457478005865
1.284457478005865
1.2825024437927663
1.2776148582600195
1.2697947214076246
1.260019550342131
1.2482893450635386
1.2355816226783969
1.2228739002932552
1.2101661779081134
1.1945259042033236
1.176930596285435
1.1583577712609971
1.142717497556207
1.1319648093841643
1.1231671554252198
1.1133919843597262
1.1026392961876832
1.093841642228739
1.0850439882697946
1.0772238514173995
1.0684261974584557
1.0586510263929618
1.0498533724340176
1.0410557184750733
1.0332355816226784
1.0283479960899315
1.024437927663734
1.018572825024438
1.0117302052785924
1.0039100684261977
0.9980449657869012
0.9951124144672532
0.9941348973607038
0.9921798631476052
0.989247311827957
0.9872922776148584
0.9863147605083088
0.9833822091886608
0.9824046920821116
0.9833822091886608
0.9843597262952102
0.9843597262952102
0.9833822091886608
0.981427174975562
0.9794721407624634
0.9775171065493646
0.975562072336266
0.9745845552297164
0.9736070381231672
0.9736070381231672
0.975562072336266
0.978494623655914
0.9794721407624634
0.9804496578690128
0.9804496578690128
0.9804496578690128
0.9804496578690128
0.9804496578690128
0.9804496578690128
0.981427174975562
0.9833822091886608
0.9843597262952102
0.9853372434017597
0.9853372434017597
0.981427174975562
0.9775171065493646
0.9765395894428152
0.9824046920821116
1.0058651026392962
1.053763440860215
1.1300097751710656
1.2404692082111437
1.383186705767351
1.5532746823069403
1.7429130009775171
1.9130009775171064
2.067448680351906
2.232649071358749
2.388074291300098
2.5249266862170088
2.6392961876832843
2.730205278592375
2.7996089931573804
2.850439882697948
2.8836754643206257
2.9012707722385143
2.905180840664712
2.895405669599218
2.874877810361681
2.8514173998044967
2.822091886608016
2.787878787878788
2.7497556207233624
2.7067448680351904
2.658846529814272
2.6080156402737047
2.552297165200391
2.4916911045943304
2.4252199413489737
2.3519061583577714
2.281524926686217
2.210166177908113
2.1280547409579667
2.0410557184750733
1.9521016617790807
1.86119257086999
1.772238514173998
1.6881720430107527
1.6129032258064515
1.5483870967741935
1.4946236559139785
1.4506353861192571
1.4291300097751711
1.4222873900293256
1.4134897360703813
1.4086021505376345
1.4066471163245358
1.4076246334310851
1.4105571847507332
1.414467253176931
1.418377321603128
1.4222873900293256
1.426197458455523
1.4291300097751711
1.4291300097751711
1.4281524926686218
1.4271749755620724
1.4242424242424243
1.4203323558162269
1.412512218963832
1.4027370478983383
1.392961876832845
1.3841642228739004
1.3743890518084063
1.3636363636363635
1.3528836754643203
1.3401759530791788
1.3294232649071358
1.3206256109481915
1.310850439882698
1.2991202346041055
1.289345063538612
1.2795698924731185
1.2697947214076246
1.2619745845552297
1.2551319648093842
1.2502443792766371
1.2453567937438903
1.241446725317693
1.2375366568914956
1.2355816226783969
1.2346041055718475
1.2316715542521994
1.227761485826002
1.224828934506354
1.2228739002932552
1.219941348973607
1.2160312805474096
1.2140762463343109
1.2130987292277615
1.2121212121212122
1.2111436950146628
1.2121212121212122
1.2140762463343109
1.2150537634408602
1.2140762463343109
1.2130987292277615
1.2130987292277615
1.2121212121212122
1.2111436950146628
1.2111436950146628
1.2121212121212122
1.2130987292277615
1.2150537634408602
1.217008797653959
1.219941348973607
1.2238514173998043
1.2287390029325511
1.2326490713587488
1.2365591397849462
1.2404692082111437
1.2443792766373412
1.24633431085044
1.2453567937438903
1.2434017595307918
1.2404692082111437
1.2346041055718475
1.2287390029325511
1.2228739002932552
1.2121212121212122
1.1994134897360704
1.1906158357771262
1.1915933528836755
1.2130987292277615
1.2619745845552297
1.3440860215053765
1.4613880742913
1.6129032258064515
1.7888563049853372
1.978494623655914
2.145650048875855
2.294232649071359
2.447702834799609
2.587487781036168
2.7067448680351904
2.8025415444770285
2.873900293255132
2.9227761485826003
2.95405669599218
2.970674486803519
2.973607038123167
2.964809384164223
2.946236559139785
2.920821114369501
2.8905180840664717
2.855327468230694
2.81622678396872
2.773216031280548
2.7262952101661777
2.674486803519061
2.6177908113391983
2.5562072336265884
2.490713587487781
2.418377321603128
2.3382209188660803
2.260997067448681
2.182795698924731
2.0948191593352883
2.0009775171065494
1.906158357771261
1.8132942326490715
1.7253176930596286
1.6422287390029326
1.5669599217986314
1.500488758553275
1.444770283479961
1.4007820136852396
1.3695014662756595
1.3470185728250244
1.3294232649071358
1.3176930596285434
1.310850439882698
1.3079178885630498
1.3069403714565004
1.3079178885630498
1.3079178885630498
1.3079178885630498
1.3079178885630498
1.3069403714565004
1.3040078201368523
1.300097751710655
1.2961876832844574
1.2903225806451613
1.2805474095796676
1.2688172043010753
1.2570869990224829
1.2443792766373412
1.2326490713587488
1.219941348973607
1.2072336265884651
1.1945259042033236
1.1788856304985338
1.164222873900293
1.1505376344086022
1.1368523949169111
1.1241446725317692
1.1114369501466277
1.1006842619745845
1.0918866080156402
1.083088954056696
1.0742913000977516
1.0654936461388074
1.0557184750733135
1.0449657869012707
1.035190615835777
1.029325513196481
1.0254154447702837
1.018572825024438
1.0117302052785924
1.0048875855327468
1.0
0.9951124144672532
0.9902248289345064
0.9872922776148584
0.9843597262952102
0.9833822091886608
0.9843597262952102
0.989247311827957
0.9951124144672532
0.9980449657869012
0.9990224828934506
1.0
1.0
1.0
1.0
1.0
1.0
1.0
1.0
1.0019550342130987
1.0048875855327468
1.0068426197458455
1.007820136852395
1.007820136852395
1.007820136852395
1.007820136852395
1.007820136852395
1.0068426197458455
1.0048875855327468
1.0019550342130987
0.9980449657869012
0.9941348973607038
0.9931573802541545
0.9951124144672532
0.997067448680352
1.0039100684261977
1.024437927663734
1.0664711632453567
1.1368523949169111
1.2404692082111437
1.3763440860215057
1.5405669599217986
1.7243401759530792
1.9159335288367547
2.0791788856304985
2.2218963831867056
2.3685239491691106
2.504398826979472
2.619745845552297
2.7116324535679373
2.7810361681329425
2.831867057673509
2.865102639296188
2.8826979472140764
2.887585532746823
2.8807429130009776
2.8641251221896384
2.838709677419355
2.806451612903226
2.76930596285435
2.727272727272727
2.681329423264907
2.632453567937439
2.5806451612903225
2.5239491691104594
2.4613880742913
2.3929618768328447
2.318670576735093
2.2385141739980448
2.161290322580645
2.085043988269794
1.9980449657869013
1.905180840664712
1.8132942326490715
1.726295210166178
1.6451612903225807
1.573802541544477
1.5112414467253177
1.458455522971652
1.4164222873900294
1.3851417399804498
1.3636363636363635
1.3509286412512218
1.3440860215053765
1.3411534701857282
1.3411534701857282
1.343108504398827
1.346041055718475
1.3548387096774193
1.364613880742913
1.3714565004887584
1.3743890518084063
1.3763440860215057
1.375366568914956
1.3743890518084063
1.3714565004887584
1.3665689149560116
1.359726295210166
1.3509286412512218
1.3411534701857282
1.3304007820136852
1.316715542521994
1.3020527859237536
1.2873900293255132
1.273704789833822
1.2609970674486803
1.2482893450635386
1.2394916911045943
1.2316715542521994
1.2218963831867058
1.2101661779081134
1.198435972629521
1.1867057673509287
1.173998044965787
1.163245356793744
1.1534701857282503
1.144672531769306
1.1358748778103618
1.1290322580645162
1.1251221896383188
1.1231671554252198
1.121212121212121
1.118279569892473
1.1143695014662756
1.1124144672531768
1.1094819159335287
1.1065493646138806
1.104594330400782
1.1016617790811338
1.096774193548387
1.0928641251221896
1.088954056695992
1.0869990224828934
1.0869990224828934
1.0869990224828934
1.0869990224828934
1.0869990224828934
1.0869990224828934
1.0869990224828934
1.0869990224828934
1.086021505376344
1.083088954056696
1.0811339198435972
1.0801564027370478
1.0811339198435972
1.0840664711632453
1.0840664711632453
1.0821114369501466
1.0801564027370478
1.0791788856304985
1.0791788856304985
1.0762463343108504
1.0733137829912025
1.0694037145650048
1.0635386119257086
1.056695992179863
1.0498533724340176
1.0478983382209188
1.0518084066471165
1.067448680351906
1.1026392961876832
1.163245356793744
1.2551319648093842
1.3792766373411536
1.5317693059628543
1.7067448680351909
1.8914956011730208
2.074291300097752
2.2453567937438903
2.3812316715542523
2.4887585532746823
2.5884652981427174
2.6725317693059627
2.73802541544477
2.78494623655914
2.814271749755621
2.8289345063538613
2.83088954056696
2.822091886608016
2.803519061583578
2.776148582600196
2.7438905180840663
2.70772238514174
2.6695992179863146
2.6265884652981426
2.579667644183773
2.527859237536657
2.4711632453567938
2.409579667644184
2.343108504398827
2.270772238514174
2.1915933528836757
2.1065493646138806
2.016617790811339
1.9345063538611929
1.857282502443793
1.7741935483870968
1.6920821114369502
1.6109481915933528
1.5347018572825024
1.4672531769305963
1.4086021505376345
1.359726295210166
1.3225806451612905
1.2961876832844574
1.2805474095796676
1.2727272727272727
1.2717497556207231
1.273704789833822
1.2746823069403714
1.2746823069403714
1.2746823069403714
1.273704789833822
1.270772238514174
1.267839687194526
1.2639296187683284
1.260019550342131
1.2561094819159335
1.252199413489736
1.2502443792766371
1.249266862170088
1.24633431085044
1.241446725317693
1.2326490713587488
1.2218963831867058
1.209188660801564
1.1945259042033236
1.1788856304985338
1.1652003910068427
1.1544477028347997
1.144672531769306
1.13880742913001
1.133919843597263
1.1270772238514175
1.1192570869990224
1.1114369501466277
1.1026392961876832
1.0948191593352885
1.0869990224828934
1.078201368523949
1.0713587487781036
1.0654936461388074
1.06158357771261
1.0596285434995112
1.0606060606060606
1.0635386119257086
1.064516129032258
1.0654936461388074
1.064516129032258
1.0625610948191593
1.0606060606060606
1.0596285434995112
1.0586510263929618
1.0586510263929618
1.0586510263929618
1.0586510263929618
1.0606060606060606
