ppg
1.576735092864125
1.7272727272727273
1.870967741935484
2.0303030303030303
2.188660801564027
2.3382209188660803
2.4731182795698925
2.591397849462365
2.6911045943304006
2.774193548387097
2.8396871945259043
2.889540566959922
2.924731182795699
2.941348973607038
2.943304007820137
2.9374389051808407
2.920821114369501
2.89345063538612
2.855327468230694
2.806451612903226
2.748778103616813
2.684261974584555
2.6148582600195502
2.5434995112414467
2.4731182795698925
2.404692082111437
2.345063538611926
2.2932551319648096
2.2404692082111435
2.190615835777126
2.144672531769306
2.1006842619745845
2.059628543499511
2.0205278592375366
1.9824046920821117
1.9442815249266865
1.9071358748778104
1.8699902248289344
1.8387096774193548
1.8103616813294232
1.7781036168132942
1.7438905180840665
1.7096774193548387
1.6744868035190617
1.6392961876832846
1.6050830889540566
1.5718475073313782
1.5405669599217986
1.509286412512219
1.478005865102639
1.4467253176930597
1.4222873900293256
1.4007820136852396
1.3763440860215057
1.3499511241446724
1.3235581622678396
1.2991202346041055
1.2756598240469208
1.2531769305962854
1.23069403714565
1.2101661779081134
1.1906158357771262
1.1720430107526882
1.1593352883675463
1.1505376344086022
1.1397849462365592
1.1280547409579669
1.115347018572825
1.104594330400782
1.093841642228739
1.0840664711632453
1.0742913000977516
1.064516129032258
1.053763440860215
1.0420332355816226
1.0283479960899315
1.0195503421309873
1.013685239491691
1.007820136852395
1.010752688172043
1.0312805474095796
1.0772238514173995
1.1534701857282503
1.2609970674486803
1.3978494623655917
1.5562072336265884
1.7282502443792769
1.905180840664712
2.056695992179863
2.190615835777126
2.3284457478005867
2.4594330400782014
2.576735092864125
2.677419354838709
2.7614858260019552
2.8289345063538613
2.8797653958944283
2.9149560117302054
2.935483870967742
2.941348973607038
2.932551319648094
2.913978494623656
2.8856304985337244
2.8484848484848486
2.801564027370479
2.744868035190616
2.6803519061583576
2.611925708699902
2.5405669599217986
2.4701857282502444
2.4027370478983383
2.3391984359726297
2.280547409579668
2.23069403714565
2.1867057673509285
2.1436950146627565
2.102639296187683
2.0625610948191597
2.024437927663734
1.9872922776148585
1.951124144672532
1.9149560117302051
1.878787878787879
1.8435972629521016
1.8084066471163245
1.7790811339198436
1.7517106549364614
1.7204301075268815
1.6881720430107527
1.6549364613880744
1.6217008797653958
1.5884652981427174
1.555229716520039
1.5239491691104594
1.4926686217008798
1.4623655913978495
1.434017595307918
1.4066471163245358
1.3841642228739004
1.3655913978494625
1.3440860215053765
1.321603128054741
1.300097751710655
1.278592375366569
1.2580645161290325
1.238514173998045
1.219941348973607
1.203323558162268
1.187683284457478
1.173998044965787
1.166177908113392
1.160312805474096
1.1534701857282503
1.1456500488758554
1.1378299120234605
1.1300097751710656
1.1231671554252198
1.115347018572825
1.1055718475073313
1.0948191593352885
1.0850439882697946
1.078201368523949
1.0811339198435972
1.0957966764418376
1.1270772238514175
1.18475073313783
1.2727272727272727
1.3919843597262953
1.5376344086021505
1.7038123167155426
1.878787878787879
2.0547409579667644
2.2238514173998043
2.380254154447703
2.520039100684262
2.627565982404692
2.7126099706744866
2.792766373411535
2.863147605083089
2.919843597262952
2.962854349951124
2.992179863147605
3.007820136852395
3.010752688172043
3.0009775171065494
2.978494623655914
2.9442815249266863
2.8993157380254155
2.849462365591398
2.795698924731183
2.7331378299120237
2.664711632453568
2.5943304007820136
2.5239491691104594
2.4565004887585533
2.3919843597262958
2.332355816226784
2.27761485826002
2.2267839687194524
2.179863147605083
2.1407624633431084
2.1055718475073317
2.069403714565005
2.032258064516129
1.9951124144672527
1.9589442815249267
1.9227761485826005
1.8866080156402736
1.8504398826979471
1.81524926686217
1.780058651026393
1.7448680351906158
1.710654936461388
1.6813294232649072
1.6549364613880744
1.624633431085044
1.5933528836754642
1.5610948191593352
1.5298142717497556
1.499511241446725
1.469208211143695
1.4389051808406648
1.4105571847507332
1.3841642228739004
1.3587487781036167
1.3391984359726294
1.3235581622678396
1.305962854349951
1.2873900293255132
1.2688172043010753
1.252199413489736
1.2365591397849462
1.2228739002932552
1.2101661779081134
1.1974584555229717
1.1857282502443791
1.173998044965787
1.1622678396871946
1.155425219941349
1.1505376344086022
1.141739980449658
1.130987292277615
1.1202346041055715
1.1143695014662756
1.1192570869990224
1.141739980449658
1.1906158357771262
1.270772238514174
1.3841642228739004
1.525904203323558
1.6656891495601174
1.8064516129032255
1.970674486803519
2.1407624633431084
2.3059628543499517
2.4594330400782014
2.5972629521016617
2.717497556207233
2.820136852394917
2.905180840664712
2.9745845552297165
3.027370478983382
3.067448680351906
3.088954056695992
3.096774193548387
3.1006842619745845
3.0957966764418376
3.081133919843597
3.0557184750733137
3.0205278592375366
2.9745845552297165
2.919843597262952
2.8563049853372435
2.7859237536656893
2.7116324535679373
2.6422287390029324
2.575757575757576
2.506353861192571
2.4379276637341154
2.3734115347018574
2.312805474095797
2.2561094819159337
2.203323558162268
2.15347018572825
2.1065493646138806
2.06158357771261
2.018572825024438
1.9775171065493649
1.9423264907135875
1.9090909090909087
1.873900293255132
1.8377321603128052
1.8005865102639296
1.7644183773216031
1.7282502443792769
1.6920821114369502
1.656891495601173
1.6217008797653958
1.5865102639296187
1.552297165200391
1.5249266862170088
1.499511241446725
1.4721407624633431
1.444770283479961
1.4173998044965788
1.3900293255131966
1.3626588465298142
1.3372434017595307
1.313782991202346
1.2913000977517106
1.270772238514174
1.2512218963831867
1.2336265884652982
1.2209188660801564
1.2121212121212122
1.2003910068426198
1.187683284457478
1.1759530791788857
1.164222873900293
1.152492668621701
1.1407624633431086
1.1280547409579669
1.1143695014662756
1.1006842619745845
1.0918866080156402
1.0928641251221896
1.10752688172043
1.1407624633431086
1.2013685239491692
1.2942326490713587
1.4193548387096775
1.5718475073313782
1.7429130009775171
1.9227761485826005
2.103616813294233
2.275659824046921
2.434017595307918
2.5591397849462365
2.659824046920821
2.7595307917888565
2.849462365591398
2.9266862170087977
2.989247311827957
3.0391006842619745
3.0762463343108504
3.101661779081134
3.1163245356793743
3.121212121212121
3.1163245356793743
3.1006842619745845
3.075268817204301
3.042033235581622
3.0
2.9472140762463344
2.8856304985337244
2.81622678396872
2.740957966764418
2.66177908113392
2.582600195503421
2.504398826979472
2.4301075268817205
2.3597262952101663
2.300097751710655
2.2482893450635384
2.196480938416422
2.146627565982405
2.0987292277614857
2.0527859237536656
2.0087976539589443
1.9657869012707725
1.9237536656891496
1.8826979472140764
1.8416422287390029
1.801564027370479
1.7624633431085044
1.729227761485826
1.699902248289345
1.6666666666666667
1.6314760508308896
1.5962854349951123
1.5610948191593352
1.5268817204301075
1.4936461388074291
1.4623655913978495
1.4320625610948192
1.4027370478983383
1.375366568914956
1.3548387096774193
1.3372434017595307
1.3157380254154447
1.2932551319648091
1.270772238514174
1.249266862170088
1.2287390029325511
1.209188660801564
1.1915933528836755
1.1759530791788857
1.1612903225806452
1.147605083088954
1.1358748778103618
1.1290322580645162
1.1251221896383188
1.1163245356793745
1.1055718475073313
1.0918866080156402
1.078201368523949
1.0664711632453567
1.0635386119257086
1.0762463343108504
1.1133919843597262
1.181818181818182
1.2834799608993157
1.3949169110459434
1.520039100684262
1.6764418377321604
1.8504398826979471
2.0283479960899315
2.201368523949169
2.361681329423265
2.504398826979472
2.6295210166177907
2.7370478983382207
2.8269794721407626
2.9012707722385143
2.959921798631476
2.9980449657869013
3.021505376344086
3.0410557184750733
3.053763440860215
3.0576735092864125
3.0518084066471163
3.035190615835777
3.007820136852395
2.9696969696969697
2.921798631476051
2.8641251221896384
2.7976539589442817
2.7311827956989245
2.664711632453568
2.591397849462365
2.515151515151515
2.439882697947214
2.3685239491691106
2.3010752688172045
2.2385141739980448
2.1808406647116323
2.1280547409579667
2.078201368523949
2.03128054740958
1.986314760508309
1.948191593352884
1.9149560117302051
1.878787878787879
1.8416422287390029
1.8035190615835777
1.7663734115347018
1.729227761485826
1.6920821114369502
1.656891495601173
1.6207233626588464
1.585532746823069
1.5503421309872922
1.521016617790811
1.495601173020528
1.4672531769305963
1.4379276637341154
1.4086021505376345
1.380254154447703
1.3528836754643203
1.327468230694037
1.303030303030303
1.278592375366569
1.2551319648093842
1.2326490713587488
1.2121212121212122
1.1974584555229717
1.1720430107526882
1.1368523949169111
1.1124144672531768
1.093841642228739
1.078201368523949
1.0654936461388074
1.0547409579667644
1.0449657869012707
1.0361681329423265
1.0263929618768328
1.0156402737047898
1.0087976539589445
1.0039100684261977
0.9960899315738024
0.9902248289345064
0.9931573802541545
1.0127077223851415
1.056695992179863
1.130987292277615
1.2365591397849462
1.3714565004887584
1.5288367546432062
1.699902248289345
1.8748778103616808
2.024437927663734
2.1544477028347995
2.289345063538612
2.4164222873900294
2.529814271749756
2.627565982404692
2.708699902248289
2.7751710654936463
2.8269794721407626
2.865102639296188
2.8914956011730206
2.905180840664712
2.906158357771261
2.8963831867057674
2.878787878787879
2.8533724340175954
2.8181818181818183
2.773216031280548
2.719452590420332
2.6578690127077222
2.589442815249267
2.5180840664711632
2.4457478005865103
2.3734115347018574
2.304007820136853
2.243401759530792
2.189638318670577
2.1358748778103616
2.085043988269794
2.0361681329423265
1.9902248289345064
1.946236559139785
1.903225806451613
1.8621700879765395
1.822091886608016
1.7839687194525904
1.747800586510264
1.7165200391006843
1.6881720430107527
1.656891495601173
1.624633431085044
1.5913978494623655
1.5571847507331378
1.521994134897361
1.4887585532746823
1.456500488758553
1.4252199413489737
1.3958944281524928
1.3685239491691104
1.346041055718475
1.327468230694037
1.305962854349951
1.2825024437927663
1.2590420332355816
1.2355816226783969
1.2130987292277615
1.1915933528836755
1.1700879765395895
1.1505376344086022
1.1319648093841643
1.115347018572825
1.099706744868035
1.0899315738025417
1.083088954056696
1.0733137829912025
1.0625610948191593
1.0518084066471165
1.0420332355816226
1.0332355816226784
1.0254154447702837
1.018572825024438
1.0117302052785924
1.0039100684261977
0.9951124144672532
0.989247311827957
0.9863147605083088
0.9824046920821116
0.9853372434017597
1.0048875855327468
1.0488758553274682
1.1231671554252198
1.2287390029325511
1.364613880742913
1.5239491691104594
1.696969696969697
1.8748778103616808
2.048875855327468
2.1915933528836757
2.3118279569892475
2.432062561094819
2.5425219941348973
2.638318670576735
2.718475073313783
2.782991202346041
2.832844574780059
2.868035190615836
2.889540566959922
2.8993157380254155
2.898338220918866
2.8856304985337244
2.8641251221896384
2.834799608993157
2.795698924731183
2.745845552297165
2.6881720430107525
2.624633431085044
2.5562072336265884
2.484848484848485
2.4134897360703813
2.345063538611926
2.2795698924731185
2.217986314760508
2.166177908113392
2.121212121212121
2.0762463343108504
2.032258064516129
1.989247311827957
1.9472140762463344
1.906158357771261
1.8670576735092863
1.828934506353861
1.7917888563049853
1.7546432062561097
1.718475073313783
1.6871945259042034
1.6588465298142718
1.6275659824046922
1.5943304007820136
1.5610948191593352
1.5268817204301075
1.4936461388074291
1.4613880742913
1.4301075268817205
1.3998044965786902
1.3714565004887584
1.3440860215053765
1.3176930596285434
1.2981427174975562
1.281524926686217
1.2609970674486803
1.2404692082111437
1.219941348973607
1.2003910068426198
1.181818181818182
1.164222873900293
1.1466275659824048
1.1300097751710656
1.1143695014662756
1.099706744868035
1.0899315738025417
1.083088954056696
1.0733137829912025
1.0625610948191593
1.050830889540567
1.0410557184750733
1.0312805474095796
1.0234604105571847
1.0166177908113392
1.0097751710654936
1.002932551319648
0.9960899315738024
0.9882697947214076
0.9843597262952102
0.9804496578690128
0.9736070381231672
0.9687194525904204
0.9726295210166178
0.9931573802541545
1.0381231671554252
1.1143695014662756
1.2238514173998043
1.3626588465298142
1.5249266862170088
1.7008797653958945
1.858260019550342
2.0019550342130987
2.1544477028347995
2.3010752688172045
2.434017595307918
2.5513196480938416
2.650048875855328
2.7311827956989245
2.795698924731183
2.843597262952102
2.87683284457478
2.8963831867057674
2.903225806451613
2.8963831867057674
2.878787878787879
2.852394916911046
2.81622678396872
2.7702834799608995
2.7155425219941347
2.6529814271749754
2.5865102639296187
2.5161290322580645
2.444770283479961
2.375366568914956
2.3088954056695994
2.251221896383187
2.20039100684262
2.1495601173020527
2.101661779081134
2.0557184750733137
2.0127077223851417
1.970674486803519
1.9305962854349952
1.8905180840664717
1.8523949169110456
1.8142717497556209
1.7771260997067448
1.7409579667644184
1.7096774193548387
1.6803519061583578
1.6480938416422288
1.6148582600195502
1.581622678396872
1.5483870967741935
1.5151515151515151
1.4819159335288368
1.4496578690127078
1.418377321603128
1.3870967741935485
1.3577712609970674
1.335288367546432
1.3157380254154447
1.29227761485826
1.2688172043010753
1.2453567937438903
1.2228739002932552
1.2013685239491692
1.181818181818182
1.173998044965787
1.1720430107526882
1.1622678396871946
1.1485826001955035
1.133919843597263
1.1241446725317692
1.1163245356793745
1.1065493646138806
1.0948191593352885
1.083088954056696
1.072336265884653
1.0625610948191593
1.053763440860215
1.04594330400782
1.0391006842619743
1.0332355816226784
1.0283479960899315
1.0273704789833822
1.0283479960899315
1.0254154447702837
1.0205278592375366
1.0146627565982405
1.0058651026392962
0.9960899315738024
0.9863147605083088
0.9804496578690128
0.9833822091886608
1.002932551319648
1.0488758553274682
1.1270772238514175
1.219941348973607
1.332355816226784
1.479960899315738
1.651026392961877
1.8328445747800584
2.0146627565982405
2.188660801564027
2.3489736070381237
2.490713587487781
2.613880742913001
2.717497556207233
2.8025415444770285
2.860215053763441
2.898338220918866
2.930596285434995
2.952101661779081
2.961876832844575
2.9579667644183774
2.9423264907135875
2.913978494623656
2.873900293255132
2.8240469208211145
2.766373411534702
2.7008797653958942
2.638318670576735
2.575757575757576
2.5083088954056696
2.4408602150537635
2.375366568914956
2.313782991202346
2.257086999022483
2.2052785923753664
2.158357771260997
2.115347018572825
2.075268817204301
2.035190615835777
1.997067448680352
1.962854349951124
1.9315738025415443
1.8973607038123168
1.8621700879765395
1.8269794721407624
1.7917888563049853
1.7565982404692082
1.7223851417399805
1.6871945259042034
1.6520039100684265
1.6177908113391983
1.58455522971652
1.5571847507331378
1.5327468230694037
1.5053763440860215
1.4760508308895406
1.447702834799609
1.4193548387096775
1.391006842619746
1.364613880742913
1.3391984359726294
1.313782991202346
1.289345063538612
1.2668621700879763
1.2453567937438903
1.2297165200391007
1.217008797653959
1.2023460410557183
1.1867057673509287
1.1720430107526882
1.1573802541544478
1.142717497556207
1.1290322580645162
1.1173020527859236
1.10752688172043
1.0987292277614855
1.0909090909090908
1.0869990224828934
1.0850439882697946
1.0811339198435972
1.0762463343108504
1.0713587487781036
1.0664711632453567
1.06158357771261
1.0557184750733135
1.0498533724340176
1.0420332355816226
1.0342130987292275
1.0303030303030305
1.0361681329423265
1.0547409579667644
1.0899315738025417
1.152492668621701
1.2453567937438903
1.370478983382209
1.521994134897361
1.6920821114369502
1.870967741935484
2.0498533724340176
2.220918866080156
2.380254154447703
2.52297165200391
2.631476050830889
2.716520039100684
2.7976539589442817
2.868035190615836
2.9237536656891496
2.9657869012707723
2.995112414467253
3.0097751710654936
3.0117302052785924
3.0019550342130987
2.979472140762464
2.945259042033236
2.900293255131965
2.850439882697948
2.795698924731183
2.732160312805474
2.664711632453568
2.5943304007820136
2.5239491691104594
2.455522971652004
2.3919843597262958
2.334310850439883
2.281524926686217
2.232649071358749
2.187683284457478
2.1485826001955037
2.113391984359726
2.0772238514174
2.0410557184750733
2.004887585532747
1.9687194525904204
1.9335288367546437
1.8973607038123168
1.86119257086999
1.826001955034213
1.790811339198436
1.7556207233626588
1.721407624633431
1.6920821114369502
1.664711632453568
1.6334310850439884
1.6011730205278591
1.56891495601173
1.5376344086021505
1.5063538611925709
1.47702834799609
1.4486803519061584
1.4213098729227762
1.3958944281524928
1.3714565004887584
1.3519061583577712
1.3362658846529814
1.3176930596285434
1.2981427174975562
1.2795698924731185
1.2619745845552297
1.2443792766373412
1.227761485826002
1.2121212121212122
1.198435972629521
1.18475073313783
1.1730205278592376
1.163245356793744
1.1583577712609971
1.1564027370478984
1.1515151515151516
1.1456500488758554
1.13880742913001
1.130987292277615
1.121212121212121
1.110459433040078
1.099706744868035
1.0899315738025417
1.0879765395894427
1.1016617790811338
1.1300097751710656
1.1788856304985338
1.2609970674486803
1.3763440860215057
1.521016617790811
1.6881720430107527
1.868035190615836
2.050830889540567
2.2277614858260018
2.3929618768328447
2.541544477028348
2.6725317693059627
2.78494623655914
2.868035190615836
2.9286412512218964
2.9853372434017595
3.0332355816226784
3.070381231671554
3.096774193548387
3.112414467253177
3.117302052785924
3.1114369501466275
3.0957966764418376
3.0498533724340176
3.0087976539589443
2.961876832844575
2.874877810361681
2.8054740957966766
2.730205278592375
2.6529814271749754
2.5747800586510263
2.4995112414467253
2.4281524926686218
2.360703812316716
2.2991202346041058
2.242424242424242
2.189638318670577
2.145650048875855
2.1055718475073317
2.064516129032258
2.0234604105571847
1.981427174975562
1.9413489736070384
1.9012707722385145
1.8621700879765395
1.8240469208211143
1.7869012707722385
1.7497556207233629
1.7126099706744868
1.6813294232649072
1.6529814271749756
1.6177908113391983
1.5796676441837731
1.544477028347996
1.5112414467253177
1.479960899315738
1.4506353861192571
1.4222873900293256
1.3949169110459434
1.3685239491691104
1.343108504398827
1.3235581622678396
1.3079178885630498
1.289345063538612
1.2688172043010753
1.249266862170088
1.23069403714565
1.2140762463343109
1.198435972629521
1.1837732160312806
1.1700879765395895
1.1583577712609971
1.147605083088954
1.1368523949169111
1.130987292277615
1.1280547409579669
1.1221896383186705
1.1143695014662756
1.104594330400782
1.0928641251221896
1.0791788856304985
1.067448680351906
1.064516129032258
1.0801564027370478
1.1202346041055715
1.2609970674486803
1.367546432062561
1.5034213098729228
1.8269794721407624
1.9951124144672527
2.156402737047898
2.377321603128055
2.5034213098729228
2.613880742913001
2.7067448680351904
2.78494623655914
2.838709677419355
2.87683284457478
2.913000977517106
2.9423264907135875
2.963831867057673
2.9775171065493646
2.9824046920821115
2.979472140762464
2.967741935483871
2.946236559139785
2.9159335288367547
2.874877810361681
2.8289345063538613
2.777126099706745
2.7155425219941347
2.64613880742913
2.572825024437928
2.4975562072336266
2.4222873900293256
2.3499511241446727
2.2825024437927666
2.219941348973607
2.1622678396871944
2.1094819159335287
2.06158357771261
2.021505376344086
1.9853372434017595
1.946236559139785
1.906158357771261
1.8670576735092863
1.827956989247312
1.7898338220918866
1.7526881720430108
1.7165200391006843
1.6813294232649072
1.6471163245356797
1.6129032258064515
1.58455522971652
1.5591397849462365
1.530791788856305
1.501466275659824
1.4711632453567938
1.4428152492668622
1.414467253176931
1.3870967741935485
1.3607038123167154
1.3343108504398826
1.3088954056695992
1.284457478005865
1.260019550342131
1.2424242424242424
1.227761485826002
1.2101661779081134
1.1925708699902249
1.1749755620723363
1.1573802541544478
1.141739980449658
1.1270772238514175
1.1143695014662756
1.1026392961876832
1.0928641251221896
1.0840664711632453
1.0801564027370478
1.0772238514173995
1.0713587487781036
1.0625610948191593
1.0518084066471165
1.040078201368524
1.0303030303030305
1.0254154447702837
1.0332355816226784
1.06158357771261
1.1163245356793745
1.2023460410557183
1.3176930596285434
1.436950146627566
1.563049853372434
1.715542521994135
1.8778103616813293
2.0391006842619745
2.1915933528836757
2.3313782991202348
2.455522971652004
2.563049853372434
2.654936461388074
2.7311827956989245
2.792766373411535
2.832844574780059
2.859237536656892
2.8826979472140764
2.9012707722385143
2.913000977517106
2.917888563049853
2.9149560117302054
2.903225806451613
2.881720430107527
2.8514173998044967
2.8103616813294234
2.7595307917888565
2.699902248289345
2.6392961876832843
2.5777126099706744
2.50733137829912
2.434017595307918
2.361681329423265
2.291300097751711
2.225806451612903
2.1652003910068425
2.1094819159335287
2.0576735092864125
2.0097751710654936
1.963831867057673
1.9257086999022484
1.8914956011730208
1.855327468230694
1.8191593352883677
1.782991202346041
1.7468230694037146
1.710654936461388
1.6744868035190617
1.6392961876832846
1.6050830889540566
1.5728250244379276
1.5405669599217986
1.509286412512219
1.482893450635386
1.4604105571847508
1.4349951124144673
1.4086021505376345
1.3812316715542523
1.3548387096774193
1.3284457478005864
1.303030303030303
1.2795698924731185
1.2570869990224829
1.2365591397849462
1.2160312805474096
1.2013685239491692
1.1896383186705768
1.1759530791788857
1.1612903225806452
1.1466275659824048
1.133919843597263
1.121212121212121
1.1094819159335287
1.0987292277614855
1.0899315738025417
1.0811339198435972
1.0733137829912025
1.0664711632453567
1.0635386119257086
1.0625610948191593
1.0576735092864125
1.0498533724340176
1.0410557184750733
1.0312805474095796
1.0273704789833822
1.0361681329423265
1.064516129032258
1.1192570869990224
1.2043010752688172
1.3196480938416422
1.439882697947214
1.565982404692082
1.7165200391006843
1.8778103616813293
2.038123167155425
2.189638318670577
2.3284457478005867
2.450635386119257
2.5562072336265884
2.64613880742913
2.720430107526881
2.780058651026393
2.8269794721407626
2.855327468230694
2.8719452590420333
2.886608015640274
2.8963831867057674
2.898338220918866
2.8914956011730206
2.875855327468231
2.850439882697948
2.814271749755621
2.76930596285435
2.7145650048875853
2.652003910068426
2.590420332355816
2.5288367546432062
2.4604105571847508
2.3900293255131966
2.320625610948192
2.254154447702835
2.1925708699902247
2.134897360703812
2.0821114369501466
2.0332355816226784
1.988269794721408
1.945259042033236
1.9090909090909087
1.8758553274682308
1.8406647116324533
1.804496578690127
1.76930596285435
1.7341153470185728
1.6989247311827955
1.664711632453568
1.6304985337243405
1.595307917888563
1.5581622678396871
1.5239491691104594
1.4916911045943304
1.4652981427174976
1.4428152492668622
1.4164222873900294
1.3890518084066472
1.3616813294232648
1.335288367546432
