ppg
2.782991202346041
2.8396871945259043
2.873900293255132
2.886608015640274
2.8807429130009776
2.8611925708699903
2.827956989247312
2.78494623655914
2.73802541544477
2.684261974584555
2.6158357771261
2.535679374389052
2.444770283479961
2.346041055718475
2.241446725317693
2.1358748778103616
2.0332355816226784
1.9374389051808407
1.8523949169110456
1.780058651026393
1.721407624633431
1.6823069403714566
1.6598240469208212
1.64613880742913
1.6412512218963833
1.6441837732160314
1.653958944281525
1.667644183773216
1.683284457478006
1.699902248289345
1.715542521994135
1.7272727272727273
1.7350928641251222
1.7409579667644184
1.7438905180840665
1.7438905180840665
1.7419354838709675
1.7390029325513197
1.7380254154447703
1.737047898338221
1.737047898338221
1.7380254154447703
1.7390029325513197
1.7390029325513197
1.7380254154447703
1.7331378299120237
1.726295210166178
1.718475073313783
1.7057673509286413
1.6901270772238517
1.6735092864125125
1.6578690127077225
1.6451612903225807
1.635386119257087
1.6285434995112416
1.6236559139784943
1.6207233626588464
1.6207233626588464
1.6236559139784943
1.6265884652981428
1.6265884652981428
1.6256109481915937
1.6236559139784943
1.6207233626588464
1.6148582600195502
1.6080156402737047
1.6011730205278591
1.598240469208211
1.606060606060606
1.632453567937439
1.6852394916911049
1.7517106549364614
1.839687194525904
1.9657869012707725
2.1192570869990224
2.2854349951124147
2.4516129032258065
2.6050830889540566
2.735092864125122
2.8377321603128056
2.911045943304008
2.9579667644183774
2.981427174975562
2.9853372434017595
2.9745845552297165
2.952101661779081
2.919843597262952
2.877810361681329
2.8269794721407626
2.768328445747801
2.7038123167155423
2.635386119257087
2.563049853372434
2.4887585532746823
2.4134897360703813
2.3391984359726297
2.274682306940372
2.217986314760508
2.1622678396871944
2.112414467253177
2.071358748778104
2.0410557184750733
2.021505376344086
2.010752688172043
2.007820136852395
2.0087976539589443
2.0117302052785924
2.0146627565982405
2.0175953079178885
2.018572825024438
2.018572825024438
2.016617790811339
2.0117302052785924
2.003910068426197
1.992179863147605
1.9765395894428155
1.9589442815249267
1.9403714565004888
1.9227761485826005
1.90811339198436
1.8973607038123168
1.8885630498533723
1.8778103616813293
1.8670576735092863
1.855327468230694
1.842619745845552
1.828934506353861
1.81524926686217
1.8005865102639296
1.7839687194525904
1.7663734115347018
1.750733137829912
1.7350928641251222
1.7243401759530792
1.7145650048875856
1.7018572825024438
1.6871945259042034
1.6705767350928642
1.6529814271749756
1.6344086021505375
1.6148582600195502
1.5962854349951123
1.5806451612903225
1.5679374389051808
1.5591397849462365
1.5542521994134897
1.5513196480938416
1.5464320625610948
1.542521994134897
1.543499511241447
1.5581622678396871
1.5933528836754642
1.653958944281525
1.7448680351906158
1.865102639296188
2.007820136852395
2.161290322580645
2.313782991202346
2.4389051808406648
2.539589442815249
2.631476050830889
2.7038123167155423
2.7536656891495603
2.7810361681329425
2.787878787878788
2.779081133919844
2.7565982404692084
2.7233626588465296
2.681329423264907
2.587487781036168
2.466275659824047
2.366568914956012
2.264907135874878
2.161290322580645
2.0547409579667644
1.9501466275659824
1.8504398826979471
1.758553274682307
1.6764418377321604
1.6050830889540566
1.5483870967741935
1.5063538611925709
1.47702834799609
1.4604105571847508
1.458455522971652
1.4623655913978495
1.4672531769305963
1.474095796676442
1.4809384164222874
1.482893450635386
1.478005865102639
1.4652981427174976
1.4428152492668622
1.4134897360703813
1.3812316715542523
1.35386119257087
1.3294232649071358
1.3040078201368523
1.2834799608993157
1.267839687194526
1.2561094819159335
1.24633431085044
1.2375366568914956
1.227761485826002
1.2130987292277615
1.1935483870967742
1.1730205278592376
1.152492668621701
1.1378299120234605
1.1251221896383188
1.1114369501466277
1.099706744868035
1.0918866080156402
1.0899315738025417
1.093841642228739
1.1026392961876832
1.1143695014662756
1.1270772238514175
1.1397849462365592
1.1505376344086022
1.1583577712609971
1.164222873900293
1.1671554252199414
1.1691104594330402
1.1700879765395895
1.1681329423264908
1.164222873900293
1.160312805474096
1.1593352883675463
1.1700879765395895
1.203323558162268
1.2717497556207231
1.3812316715542523
1.5063538611925709
1.651026392961877
1.8406647116324533
2.0527859237536656
2.2639296187683287
2.455522971652004
2.6129032258064515
2.729227761485826
2.8025415444770285
2.8367546432062563
2.841642228739003
2.823069403714565
2.791788856304985
2.7536656891495603
2.7067448680351904
2.6529814271749754
2.592375366568915
2.5239491691104594
2.447702834799609
2.364613880742913
2.2766373411534704
2.1847507331378297
2.090909090909091
1.997067448680352
1.9071358748778104
1.8318670576735088
1.7673509286412512
1.7057673509286413
1.6529814271749756
1.6109481915933528
1.581622678396872
1.5650048875855327
1.560117302052786
1.563049853372434
1.5708699902248289
1.5806451612903225
1.5894428152492668
1.5943304007820136
1.595307917888563
1.5894428152492668
1.5777126099706744
1.5610948191593352
1.5405669599217986
1.5190615835777126
1.498533724340176
1.478983382209189
1.4604105571847508
1.4437927663734116
1.4271749755620724
1.4115347018572826
1.4007820136852396
1.392961876832845
1.383186705767351
1.3724340175953078
1.3607038123167154
1.348973607038123
1.3372434017595307
1.3255131964809383
1.313782991202346
1.303030303030303
1.2942326490713587
1.2864125122189638
1.2825024437927663
1.2805474095796676
1.2766373411534702
1.270772238514174
1.262952101661779
1.252199413489736
1.238514173998045
1.2238514173998043
1.209188660801564
1.1925708699902249
1.176930596285435
1.164222873900293
1.1573802541544478
1.1612903225806452
1.1808406647116323
1.2287390029325511
1.3147605083088951
1.4965786901270772
1.689149560117302
1.844574780058651
2.038123167155425
2.241446725317693
2.432062561094819
2.595307917888563
2.7223851417399803
2.8025415444770285
2.84652981427175
2.8699902248289346
2.870967741935484
2.852394916911046
2.8181818181818183
2.7722385141739982
2.7155425219941347
2.650048875855328
2.5532746823069403
2.4604105571847508
2.386119257086999
2.304007820136853
2.212121212121212
2.1006842619745845
1.981427174975562
1.869012707722385
1.7771260997067448
1.7204301075268815
1.729227761485826
1.7702834799608993
1.8162267839687196
1.889540566959922
1.9824046920821117
2.060606060606061
2.099706744868035
2.118279569892473
2.10752688172043
2.0840664711632453
2.0576735092864125
2.0175953079178885
1.959921798631476
1.9071358748778104
1.8699902248289344
1.8240469208211143
1.7761485826001957
1.7409579667644184
1.710654936461388
1.686217008797654
1.656891495601173
1.6158357771260996
1.5786901270772238
1.552297165200391
1.52297165200391
1.4858260019550342
1.4545454545454546
1.4281524926686218
1.4086021505376345
1.392961876832845
1.3822091886608017
1.3763440860215057
1.370478983382209
1.3616813294232648
1.3499511241446724
1.3343108504398826
1.3147605083088951
1.29227761485826
1.2727272727272727
1.2551319648093842
1.238514173998045
1.2228739002932552
1.2121212121212122
1.203323558162268
1.1906158357771262
1.1779081133919844
1.1681329423264908
1.1691104594330402
1.1906158357771262
1.2434017595307918
1.3362658846529814
1.4721407624633431
1.6480938416422288
1.8523949169110456
2.067448680351906
2.2502443792766376
2.403714565004888
2.550342130987292
2.6715542521994133
2.758553274682307
2.812316715542522
2.835777126099707
2.835777126099707
1.5786901270772238
1.5757575757575757
1.5679374389051808
1.5542521994134897
1.5395894428152492
1.52297165200391
1.500488758553275
1.4760508308895406
1.4506353861192571
1.4252199413489737
1.3998044965786902
1.375366568914956
1.3519061583577712
1.327468230694037
1.2991202346041055
1.2697947214076246
1.2424242424242424
1.2228739002932552
1.206256109481916
1.187683284457478
1.1700879765395895
1.1534701857282503
1.1397849462365592
1.1290322580645162
1.1192570869990224
1.1094819159335287
1.1026392961876832
1.096774193548387
1.0909090909090908
1.0879765395894427
1.0869990224828934
1.0840664711632453
1.0801564027370478
1.075268817204301
1.067448680351906
1.0547409579667644
1.0381231671554252
1.0263929618768328
1.0273704789833822
1.053763440860215
1.118279569892473
1.23069403714565
1.364613880742913
1.5239491691104594
1.737047898338221
1.9804496578690127
2.2297165200391005
2.462365591397849
2.664711632453568
2.825024437927664
2.9393939393939394
3.0097751710654936
3.0410557184750733
3.042033235581622
3.0205278592375366
2.9824046920821115
2.930596285434995
2.8699902248289346
2.803519061583578
2.732160312805474
2.6608015640273703
2.5884652981427174
2.5131964809384164
2.4349951124144678
2.3519061583577714
2.264907135874878
2.175953079178885
2.096774193548387
2.0234604105571847
1.9472140762463344
1.873900293255132
1.8093841642228736
1.7556207233626588
1.7116324535679377
1.6793743890518085
1.653958944281525
1.6363636363636365
1.6256109481915937
1.6177908113391983
1.6129032258064515
1.6099706744868034
1.6050830889540566
1.5972629521016617
1.585532746823069
1.56891495601173
1.5454545454545454
1.5161290322580645
1.4838709677419355
1.4516129032258065
1.4213098729227762
1.392961876832845
1.3685239491691104
1.3519061583577712
1.3391984359726294
1.3225806451612905
1.3040078201368523
1.284457478005865
1.2668621700879763
1.252199413489736
1.238514173998045
1.227761485826002
1.2228739002932552
1.219941348973607
1.2189638318670577
1.2189638318670577
1.2189638318670577
1.2160312805474096
1.2082111436950147
1.1935483870967742
1.173998044965787
1.1544477028347997
1.1358748778103618
1.118279569892473
1.1026392961876832
1.0918866080156402
1.086021505376344
1.088954056695992
1.1006842619745845
1.130987292277615
1.1925708699902249
1.295210166177908
1.4418377321603129
1.629521016617791
1.8504398826979471
2.0879765395894427
2.324535679374389
2.5425219941348973
2.727272727272727
2.8719452590420333
2.964809384164223
3.01564027370479
3.042033235581622
3.042033235581622
3.018572825024438
2.975562072336266
2.9159335288367547
2.8406647116324537
2.7497556207233624
2.64613880742913
2.532746823069404
2.4086021505376345
2.29227761485826
2.1788856304985336
2.0518084066471163
1.920821114369501
1.7947214076246334
1.6823069403714566
1.5894428152492668
1.520039100684262
1.4760508308895406
1.458455522971652
1.4623655913978495
1.479960899315738
1.504398826979472
1.5268817204301075
1.5464320625610948
1.560117302052786
1.564027370478983
1.5581622678396871
1.547409579667644
1.5356793743890518
1.5249266862170088
1.5190615835777126
1.5151515151515151
1.509286412512219
1.501466275659824
1.4916911045943304
1.47702834799609
1.4506353861192571
1.412512218963832
1.3665689149560116
1.3128054740957966
1.2551319648093842
1.1994134897360704
1.1495601173020529
1.1124144672531768
1.0879765395894427
1.075268817204301
1.0713587487781036
1.072336265884653
1.0742913000977516
1.0733137829912025
1.0684261974584557
1.06158357771261
1.0557184750733135
1.0527859237536656
1.053763440860215
1.0557184750733135
1.0557184750733135
1.0527859237536656
1.0478983382209188
1.0449657869012707
1.040078201368524
1.0283479960899315
1.0087976539589445
0.9853372434017597
0.9618768328445748
0.9442815249266864
0.9442815249266864
0.975562072336266
1.050830889540567
1.176930596285435
1.3499511241446724
1.5620723362658846
1.7663734115347018
1.963831867057673
2.1808406647116323
2.3870967741935485
2.5650048875855327
2.7038123167155423
2.7996089931573804
2.855327468230694
2.874877810361681
2.865102639296188
2.834799608993157
2.7869012707722387
2.730205278592375
2.6666666666666665
2.591397849462365
2.506353861192571
2.4115347018572826
2.3098729227761488
2.203323558162268
2.089931573802541
1.9745845552297163
1.8641251221896384
1.7624633431085044
1.672531769305963
1.598240469208211
1.5454545454545454
1.5131964809384164
1.4926686217008798
1.4838709677419355
1.4868035190615836
1.4965786901270772
1.5112414467253177
1.525904203323558
1.5376344086021505
1.543499511241447
1.543499511241447
1.5366568914956011
1.5268817204301075
1.5141739980449658
1.4965786901270772
1.474095796676442
1.4496578690127078
1.423264907135875
1.396871945259042
1.3714565004887584
1.3450635386119256
1.3186705767350928
1.2913000977517106
1.2619745845552297
1.2482893450635386
1.2482893450635386
1.2424242424242424
1.2297165200391007
1.2160312805474096
1.2013685239491692
1.1857282502443791
1.1710654936461389
1.1593352883675463
1.1515151515151516
1.1456500488758554
1.1407624633431086
1.1358748778103618
1.1348973607038124
1.1348973607038124
1.1329423264907137
1.1300097751710656
1.1270772238514175
1.1231671554252198
1.1192570869990224
1.1133919843597262
1.104594330400782
1.093841642228739
1.0850439882697946
1.0879765395894427
1.1114369501466277
1.1534701857282503
1.224828934506354
1.3440860215053765
1.5112414467253177
1.718475073313783
1.9501466275659824
2.1867057673509285
2.409579667644184
2.6050830889540566
2.7614858260019552
2.87683284457478
2.9501466275659824
2.983382209188661
2.989247311827957
2.978494623655914
2.951124144672532
2.9100684261974585
2.857282502443793
2.793743890518084
2.721407624633431
2.6422287390029324
2.555229716520039
2.4604105571847508
2.360703812316716
2.257086999022483
2.163245356793744
2.0762463343108504
1.9872922776148585
1.902248289345064
1.827956989247312
1.7673509286412512
1.721407624633431
1.6901270772238517
1.672531769305963
1.6666666666666667
1.667644183773216
1.6715542521994136
1.6764418377321604
1.6774193548387095
1.672531769305963
1.6608015640273706
1.640273704789834
1.6129032258064515
1.5826001955034212
1.5532746823069403
1.5268817204301075
1.501466275659824
1.47702834799609
1.4545454545454546
1.43108504398827
1.412512218963832
1.3949169110459434
1.3714565004887584
1.346041055718475
1.3196480938416422
1.2932551319648091
1.267839687194526
1.2434017595307918
1.2209188660801564
1.1974584555229717
1.173998044965787
1.1534701857282503
1.1397849462365592
1.1300097751710656
1.118279569892473
1.1085043988269794
1.1026392961876832
1.1006842619745845
1.1036168132942326
1.1124144672531768
1.1251221896383188
1.1397849462365592
1.152492668621701
1.163245356793744
1.1720430107526882
1.1788856304985338
1.18475073313783
1.187683284457478
1.1925708699902249
1.209188660801564
1.2482893450635386
1.3186705767350928
1.4291300097751711
1.5835777126099706
1.7741935483870968
1.9902248289345064
2.2160312805474094
2.407624633431085
2.56891495601173
2.7262952101661777
2.860215053763441
2.959921798631476
3.024437927663734
3.056695992179863
3.059628543499511
3.037145650048876
2.9980449657869013
2.945259042033236
2.878787878787879
2.8084066471163247
2.7331378299120237
2.64613880742913
2.549364613880743
2.443792766373412
2.332355816226784
2.217986314760508
2.10752688172043
2.004887585532747
1.9130009775171064
1.835777126099707
1.7761485826001957
1.7331378299120237
1.7057673509286413
1.6920821114369502
1.689149560117302
1.6950146627565983
1.7057673509286413
1.7194525904203324
1.7331378299120237
1.7438905180840665
1.7497556207233629
1.747800586510264
1.739980449657869
1.726295210166178
1.710654936461388
1.6911045943304008
1.6666666666666667
1.640273704789834
1.6129032258064515
1.585532746823069
1.5591397849462365
1.533724340175953
1.5083088954056696
1.4858260019550342
1.466275659824047
1.4486803519061584
1.4330400782013686
1.4213098729227762
1.4115347018572826
1.3978494623655917
1.3812316715542523
1.3626588465298142
1.346041055718475
1.3313782991202343
1.3176930596285434
1.3020527859237536
1.278592375366569
1.2453567937438903
1.1994134897360704
1.1544477028347997
1.1065493646138806
1.04594330400782
0.978494623655914
0.9081133919843596
0.8357771260997068
0.7634408602150538
0.6930596285434996
0.6324535679374389
0.5982404692082112
0.6080156402737048
0.6774193548387096
0.8152492668621701
0.9843597262952102
1.18475073313783
1.4408602150537635
1.718475073313783
1.9872922776148585
2.220918866080156
2.4056695992179864
2.535679374389052
2.613880742913001
2.6480938416422286
2.6480938416422286
2.622678396871945
2.582600195503421
2.530791788856305
2.466275659824047
2.3900293255131966
2.304007820136853
2.209188660801564
2.1094819159335287
2.006842619745845
1.9012707722385145
1.793743890518084
1.686217008797654
1.5786901270772238
1.4750733137829912
1.3900293255131966
1.321603128054741
1.260019550342131
1.219941348973607
1.2121212121212122
1.241446725317693
1.3069403714565004
1.401759530791789
1.512218963831867
1.6236559139784943
1.721407624633431
1.796676441837732
1.844574780058651
1.869012707722385
1.878787878787879
1.8748778103616808
1.8631476050830889
1.8465298142717497
1.8240469208211143
1.793743890518084
1.75366568914956
1.7067448680351909
1.6549364613880744
1.6001955034213098
1.547409579667644
1.501466275659824
1.4594330400782014
1.412512218963832
1.3636363636363635
1.3176930596285434
1.281524926686217
1.2609970674486803
1.2561094819159335
1.2649071358748778
1.2825024437927663
1.3049853372434017
1.3255131964809383
1.343108504398827
1.3558162267839686
1.3626588465298142
1.3626588465298142
1.3577712609970674
1.3509286412512218
1.4173998044965788
1.5239491691104594
1.581622678396872
1.6158357771260996
1.6363636363636365
1.6480938416422288
1.6549364613880744
1.66177908113392
1.6764418377321604
1.710654936461388
1.7771260997067448
1.8866080156402736
2.040078201368524
2.231671554252199
2.447702834799609
2.670576735092864
2.8836754643206257
3.070381231671554
3.220918866080156
3.317693059628544
3.388074291300098
3.4056695992179864
3.3978494623655915
3.3519061583577714
3.304985337243402
3.251221896383187
3.1925708699902247
3.1300097751710654
3.0625610948191597
2.988269794721408
2.90811339198436
2.832844574780059
2.7595307917888565
2.6803519061583576
2.601173020527859
2.525904203323558
2.4565004887585533
2.393939393939394
2.3382209188660803
2.2883675464320627
2.2453567937438903
2.209188660801564
2.1808406647116323
2.160312805474096
2.145650048875855
2.133919843597263
2.1251221896383186
2.117302052785924
2.1094819159335287
2.099706744868035
2.0869990224828934
2.06158357771261
2.043010752688172
2.021505376344086
1.9853372434017595
1.962854349951124
1.9423264907135875
1.919843597262952
1.895405669599218
1.8699902248289344
1.8435972629521016
1.8162267839687196
1.7761485826001957
1.7517106549364614
1.729227761485826
1.6901270772238517
1.675464320625611
1.6627565982404693
1.643206256109482
1.6314760508308896
1.6217008797653958
1.611925708699902
1.6021505376344083
1.5923753665689149
1.5826001955034212
1.573802541544477
1.565982404692082
1.5610948191593352
1.555229716520039
1.5454545454545454
1.5356793743890518
1.5298142717497556
1.5317693059628543
1.5483870967741935
1.5884652981427174
1.6588465298142718
1.7634408602150538
1.900293255131965
2.060606060606061
2.23069403714565
2.375366568914956
2.4975562072336266
2.616813294232649
2.716520039100684
2.790811339198436
2.8377321603128056
2.8582600195503423
2.857282502443793
2.8406647116324537
2.8103616813294234
2.7673509286412514
2.713587487781036
2.6578690127077222
2.5992179863147604
2.530791788856305
2.4545454545454546
2.3734115347018574
2.289345063538612
2.204301075268817
2.121212121212121
2.043010752688172
1.9736070381231672
1.913978494623656
1.868035190615836
1.835777126099707
1.8162267839687196
1.8084066471163245
1.8084066471163245
1.8162267839687196
1.827956989247312
1.8406647116324533
1.8514173998044965
1.8592375366568916
1.8631476050830889
1.8631476050830889
1.8592375366568916
1.8514173998044965
1.842619745845552
1.8318670576735088
1.8162267839687196
1.796676441837732
1.7741935483870968
1.750733137829912
1.7253176930596286
1.6989247311827955
1.672531769305963
1.64613880742913
1.619745845552297
1.5943304007820136
1.56891495601173
1.5503421309872922
1.5356793743890518
1.5180840664711632
1.501466275659824
1.4868035190615836
1.474095796676442
1.4643206256109482
1.458455522971652
1.4535679374389052
1.4496578690127078
1.4457478005865103
1.439882697947214
1.436950146627566
1.436950146627566
1.4349951124144673
1.4320625610948192
1.426197458455523
1.418377321603128
1.409579667644184
1.3998044965786902
1.3900293255131966
1.383186705767351
1.3870967741935485
1.4115347018572826
1.4633431085043989
1.5327468230694037
1.6256109481915937
1.7595307917888563
1.9227761485826005
2.102639296187683
2.283479960899316
2.449657869012708
2.590420332355816
2.699902248289345
2.776148582600196
2.820136852394917
2.838709677419355
2.8377321603128056
2.823069403714565
2.7976539589442817
2.763440860215054
2.720430107526881
2.668621700879765
2.610948191593353
2.5464320625610948
2.474095796676442
2.3958944281524928
2.313782991202346
2.23069403714565
2.150537634408602
2.083088954056696
2.0254154447702835
1.9696969696969695
1.9227761485826005
1.8875855327468232
1.8641251221896384
1.8514173998044965
1.8484848484848484
1.8514173998044965
1.857282502443793
1.8631476050830889
1.868035190615836
1.871945259042033
1.871945259042033
1.868035190615836
1.86119257086999
1.8523949169110456
1.839687194525904
1.825024437927664
1.8084066471163245
1.7898338220918866
1.7712609970674489
1.7517106549364614
1.7331378299120237
1.7135874877810362
1.6979472140762464
1.6842619745845553
1.6666666666666667
1.6471163245356797
1.6265884652981428
1.607038123167155
1.5894428152492668
1.573802541544477
1.560117302052786
1.547409579667644
1.5366568914956011
1.525904203323558
1.5190615835777126
1.5151515151515151
1.5102639296187683
1.504398826979472
1.498533724340176
1.4926686217008798
1.4887585532746823
1.4848484848484849
1.4809384164222874
1.4750733137829912
1.4682306940371457
1.4604105571847508
1.4545454545454546
1.4545454545454546
1.4633431085043989
1.4858260019550342
1.5356793743890518
1.619745845552297
1.7390029325513197
1.8905180840664717
2.065493646138808
2.2482893450635384
2.423264907135875
2.5777126099706744
2.701857282502444
2.6803519061583576
2.572825024437928
2.525904203323558
2.498533724340176
2.474095796676442
2.4457478005865103
2.4115347018572826
2.3714565004887587
2.324535679374389
2.270772238514174
2.2111436950146626
2.1436950146627565
2.0684261974584555
1.9980449657869013
1.9296187683284456
1.855327468230694
1.7810361681329423
1.7096774193548387
1.6441837732160314
1.5884652981427174
1.543499511241447
1.5102639296187683
1.490713587487781
1.4819159335288368
1.4819159335288368
1.4868035190615836
1.4936461388074291
1.5024437927663734
1.5112414467253177
1.517106549364614
1.520039100684262
1.520039100684262
1.5151515151515151
1.5063538611925709
1.4946236559139785
1.479960899315738
1.4652981427174976
1.4486803519061584
1.4330400782013686
1.4173998044965788
1.3988269794721409
1.3782991202346042
1.3558162267839686
1.3313782991202343
1.3079178885630498
1.2864125122189638
1.2658846529814272
1.2473118279569892
1.23069403714565
1.2150537634408602
1.2023460410557183
1.1925708699902249
1.1837732160312806
1.176930596285435
1.1700879765395895
1.164222873900293
1.160312805474096
1.155425219941349
1.1505376344086022
1.1466275659824048
1.142717497556207
1.13880742913001
1.1368523949169111
1.1348973607038124
1.1300097751710656
1.1221896383186705
1.1124144672531768
1.1026392961876832
1.096774193548387
1.1006842619745845
1.1241446725317692
1.173998044965787
1.2551319648093842
1.3685239491691104
1.512218963831867
1.6520039100684265
1.7888563049853372
1.9393939393939397
2.083088954056696
2.207233626588465
2.304985337243402
2.372434017595308
2.4115347018572826
2.426197458455523
2.419354838709677
2.396871945259042
2.361681329423265
