ppg
2.4711632453567938
2.49266862170088
2.50733137829912
2.520039100684262
2.527859237536657
2.5317693059628543
2.529814271749756
2.52297165200391
2.5102639296187683
2.49266862170088
2.469208211143695
2.439882697947214
2.406647116324536
2.372434017595308
2.337243401759531
2.2961876832844577
2.2521994134897363
2.207233626588465
2.161290322580645
2.1163245356793743
2.0733137829912023
2.0332355816226784
1.9960899315738023
1.9618768328445748
1.9305962854349952
1.902248289345064
1.8797653958944285
1.8602150537634408
1.839687194525904
1.8201368523949168
1.8005865102639296
1.7820136852394917
1.7634408602150538
1.7448680351906158
1.726295210166178
1.70772238514174
1.6881720430107527
1.6686217008797657
1.6529814271749756
1.632453567937439
1.6041055718475072
1.5757575757575757
1.547409579667644
1.5190615835777126
1.4916911045943304
1.4652981427174976
1.4389051808406648
1.412512218963832
1.3870967741935485
1.3626588465298142
1.346041055718475
1.332355816226784
1.3176930596285434
1.305962854349951
1.3020527859237536
1.3118279569892473
1.33822091886608
1.3861192570869991
1.456500488758553
1.5493646138807429
1.6637341153470186
1.793743890518084
1.932551319648094
2.056695992179863
2.1710654936461387
2.2952101661779083
2.4173998044965788
2.529814271749756
2.63049853372434
2.716520039100684
2.788856304985337
2.8475073313782997
2.89247311827957
2.9257086999022484
2.9472140762463344
2.956011730205278
2.9550342130987293
2.9501466275659824
2.940371456500489
2.9227761485826003
2.897360703812317
2.863147605083089
2.8211143695014664
2.771260997067449
2.713587487781036
2.649071358748778
2.579667644183773
2.5083088954056696
2.442815249266862
2.380254154447703
2.313782991202346
2.24633431085044
2.1808406647116323
2.1192570869990224
2.0635386119257086
2.013685239491691
1.9696969696969695
1.9305962854349952
1.8944281524926687
1.8621700879765395
1.835777126099707
1.812316715542522
1.7859237536656891
1.758553274682307
1.7311827956989247
1.7038123167155426
1.6764418377321604
1.6490713587487782
1.6217008797653958
1.5943304007820136
1.565982404692082
1.5366568914956011
1.5063538611925709
1.4819159335288368
1.4604105571847508
1.434017595307918
1.4056695992179864
1.3773216031280548
1.348973607038123
1.321603128054741
1.2942326490713587
1.2658846529814272
1.2394916911045943
1.2150537634408602
1.195503421309873
1.1857282502443791
1.1867057673509287
1.1974584555229717
1.2228739002932552
1.2688172043010753
1.3372434017595307
1.4271749755620724
1.5376344086021505
1.6637341153470186
1.8005865102639296
1.9413489736070384
2.081133919843597
2.21505376344086
2.324535679374389
2.4164222873900294
2.5083088954056696
2.593352883675464
2.668621700879765
2.732160312805474
2.78494623655914
2.8269794721407626
2.859237536656892
2.8826979472140764
2.897360703812317
2.903225806451613
2.900293255131965
2.889540566959922
2.8729227761485827
2.850439882697948
2.820136852394917
2.7810361681329425
2.7341153470185726
2.6803519061583576
2.6207233626588464
2.558162267839687
2.4916911045943304
2.4242424242424243
2.356793743890518
2.297165200391007
2.244379276637341
2.188660801564027
2.134897360703812
2.0840664711632453
2.038123167155425
1.9960899315738023
1.956989247311828
1.919843597262952
1.8856304985337244
1.8533724340175952
1.822091886608016
1.796676441837732
1.7741935483870968
1.7487781036168133
1.7223851417399805
1.6959921798631477
1.6695992179863148
1.643206256109482
1.616813294232649
1.5923753665689149
1.5679374389051808
1.543499511241447
1.5190615835777126
1.4936461388074291
1.474095796676442
1.456500488758553
1.4330400782013686
1.4076246334310851
1.380254154447703
1.3519061583577712
1.3225806451612905
1.2932551319648091
1.2668621700879763
1.2473118279569892
1.238514173998045
1.2443792766373412
1.2639296187683284
1.300097751710655
1.3577712609970674
1.4379276637341154
1.5386119257087
1.6549364613880744
1.7820136852394917
1.913978494623656
2.0439882697947214
2.1681329423264906
2.2825024437927666
2.3851417399804498
2.4750733137829912
2.5425219941348973
2.593352883675464
2.641251221896383
2.6823069403714563
2.713587487781036
2.735092864125122
2.7468230694037143
2.7497556207233624
2.744868035190616
2.732160312805474
2.713587487781036
2.6881720430107525
2.658846529814272
2.625610948191593
2.5855327468230693
2.5386119257087
2.486803519061584
2.432062561094819
2.3743890518084068
2.3167155425219943
2.26197458455523
2.212121212121212
2.1681329423264906
2.131964809384164
2.104594330400782
2.0869990224828934
2.078201368523949
2.0762463343108504
2.081133919843597
2.090909090909091
2.1065493646138806
2.126099706744868
2.1495601173020527
2.175953079178885
2.206256109481916
2.2404692082111435
2.27761485826002
2.3098729227761488
2.340175953079179
2.375366568914956
2.4134897360703813
2.452590420332356
2.49266862170088
2.532746823069404
2.572825024437928
2.6158357771261
2.66177908113392
2.710654936461388
2.764418377321604
2.823069403714565
2.8729227761485827
2.919843597262952
2.975562072336266
3.034213098729228
3.0957966764418376
3.160312805474096
3.2297165200391005
3.3059628543499517
3.393939393939394
3.4946236559139785
3.610948191593353
3.741935483870968
3.859237536656892
3.930596285434995
3.9667644183773216
3.98435972629521
3.9931573802541545
3.998044965786901
4.0
4.000977517106549
4.001955034213099
4.001955034213099
4.001955034213099
4.001955034213099
4.001955034213099
4.001955034213099
4.001955034213099
4.001955034213099
4.001955034213099
4.001955034213099
4.001955034213099
4.001955034213099
3.752688172043011
3.377321603128055
3.185728250244379
3.081133919843597
3.01564027370479
2.9657869012707723
2.921798631476051
2.8807429130009776
2.8406647116324537
2.80058651026393
2.760508308895406
2.720430107526881
2.6803519061583576
2.641251221896383
2.603128054740958
2.5669599217986314
2.533724340175953
2.5024437927663734
2.474095796676442
2.4486803519061584
2.4242424242424243
2.40078201368524
2.377321603128055
2.3528836754643208
2.3274682306940373
2.302052785923754
2.275659824046921
2.2482893450635384
2.220918866080156
2.193548387096774
2.166177908113392
2.1407624633431084
2.1163245356793743
2.09188660801564
2.0684261974584555
2.0449657869012707
2.0205278592375366
1.9951124144672527
1.967741935483871
1.93841642228739
1.90811339198436
1.87683284457478
1.847507331378299
1.8191593352883677
1.7898338220918866
1.7605083088954057
1.7331378299120237
1.7086999022482894
1.689149560117302
1.6764418377321604
1.672531769305963
1.678396871945259
1.6930596285434996
1.7145650048875856
1.7409579667644184
1.7644183773216031
1.7859237536656891
1.8103616813294232
1.833822091886608
1.8543499511241448
1.870967741935484
1.8826979472140764
1.889540566959922
1.89247311827957
1.8905180840664717
1.884652981427175
1.8748778103616808
1.8602150537634408
1.8416422287390029
1.818181818181818
1.7888563049853372
1.75366568914956
1.7126099706744868
1.6656891495601174
1.6148582600195502
1.5581622678396871
1.4975562072336266
1.434017595307918
1.3665689149560116
1.2961876832844574
1.2336265884652982
1.173998044965787
1.1055718475073313
1.0332355816226784
0.9608993157380256
0.8895405669599218
0.820136852394917
0.7536656891495601
0.6911045943304008
0.6334310850439883
0.581622678396872
0.5366568914956011
0.5053763440860215
0.4819159335288367
0.4565004887585532
0.4310850439882698
0.4056695992179863
0.3812316715542522
0.3567937438905181
0.3333333333333333
0.313782991202346
0.2981427174975562
0.2903225806451613
0.2932551319648094
0.3088954056695992
0.335288367546432
0.3714565004887585
0.418377321603128
0.4701857282502444
0.5219941348973607
0.5679374389051809
0.6041055718475073
0.6295210166177908
0.6471163245356794
0.6578690127077224
0.6666666666666666
0.6754643206256109
0.6871945259042033
0.6999022482893451
0.7135874877810362
0.729227761485826
0.7487781036168133
0.7732160312805474
0.8035190615835777
0.8387096774193549
0.8787878787878788
0.9217986314760508
0.9648093841642228
1.0048875855327468
1.0420332355816226
1.072336265884653
1.096774193548387
1.118279569892473
1.1358748778103618
1.147605083088954
1.155425219941349
1.1583577712609971
1.1583577712609971
1.1544477028347997
1.1485826001955035
1.141739980449658
1.133919843597263
1.1270772238514175
1.1202346041055715
1.1114369501466277
1.1016617790811338
1.0909090909090908
1.078201368523949
1.064516129032258
1.0498533724340176
1.0332355816226784
1.0146627565982405
0.9960899315738024
0.9765395894428152
0.9579667644183774
0.9433040078201368
0.9315738025415444
0.9188660801564028
0.906158357771261
0.895405669599218
0.8856304985337243
0.8778103616813294
0.8709677419354839
0.8651026392961877
0.8611925708699902
0.8582600195503421
0.8563049853372434
0.8563049853372434
0.8572825024437928
0.8572825024437928
0.8563049853372434
0.855327468230694
0.8543499511241447
0.852394916911046
0.8504398826979472
0.8484848484848485
0.8455522971652004
0.841642228739003
0.8377321603128055
0.8328445747800587
0.83088954056696
0.8299120234604106
0.8269794721407625
0.823069403714565
0.8181818181818182
0.8132942326490714
0.8084066471163245
0.8025415444770283
0.7976539589442815
0.793743890518084
0.7917888563049853
0.793743890518084
0.8015640273704789
0.8142717497556208
0.833822091886608
0.8611925708699902
0.8973607038123167
0.9413489736070382
0.9921798631476052
1.0469208211143697
1.104594330400782
1.1612903225806452
1.217008797653959
1.2688172043010753
1.3118279569892473
1.3470185728250244
1.3812316715542523
1.4115347018572826
1.4379276637341154
1.4594330400782014
1.47702834799609
1.490713587487781
1.501466275659824
1.5083088954056696
1.5112414467253177
1.5102639296187683
1.5063538611925709
1.500488758553275
1.4936461388074291
1.482893450635386
1.4701857282502444
1.4545454545454546
1.435972629521017
1.41544477028348
1.393939393939394
1.3724340175953078
1.3509286412512218
1.3294232649071358
1.3088954056695992
1.2913000977517106
1.2766373411534702
1.2619745845552297
1.2482893450635386
1.2355816226783969
1.224828934506354
1.2150537634408602
1.206256109481916
1.1974584555229717
1.1896383186705768
1.181818181818182
1.1730205278592376
1.164222873900293
1.1573802541544478
1.1515151515151516
1.1436950146627567
1.1358748778103618
1.1270772238514175
1.118279569892473
1.1094819159335287
1.1016617790811338
1.093841642228739
1.0850439882697946
1.0772238514173995
1.0684261974584557
1.0625610948191593
1.0576735092864125
1.1808406647116323
1.3685239491691104
1.4594330400782014
1.5024437927663734
1.521994134897361
1.5298142717497556
1.533724340175953
1.5376344086021505
1.543499511241447
1.5542521994134897
1.5698924731182795
1.5884652981427174
1.6109481915933528
1.640273704789834
1.675464320625611
1.7145650048875856
1.7546432062561097
1.7947214076246334
1.8328445747800584
1.868035190615836
1.8993157380254155
1.9257086999022484
1.948191593352884
1.964809384164223
1.9765395894428155
1.9872922776148585
1.9951124144672527
2.0009775171065494
2.004887585532747
2.006842619745845
2.006842619745845
2.003910068426197
1.9990224828934504
1.991202346041056
1.9804496578690127
1.967741935483871
1.9550342130987293
1.9413489736070384
1.9257086999022484
1.90811339198436
1.889540566959922
1.870967741935484
1.8514173998044965
1.8328445747800584
1.81524926686217
1.7996089931573802
1.7859237536656891
1.7732160312805474
1.7624633431085044
1.75366568914956
1.7458455522971652
1.7380254154447703
1.7302052785923754
1.7223851417399805
1.7145650048875856
1.7067448680351909
1.699902248289345
1.6930596285434996
1.686217008797654
1.6793743890518085
1.672531769305963
1.667644183773216
1.6627565982404693
1.656891495601173
1.651026392961877
1.6451612903225807
1.6392961876832846
1.6334310850439884
1.6275659824046922
1.6217008797653958
1.6158357771260996
1.6099706744868034
1.6041055718475072
1.6001955034213098
1.5972629521016617
1.5923753665689149
1.587487781036168
1.5826001955034212
1.5796676441837731
1.5786901270772238
1.5806451612903225
1.5865102639296187
1.598240469208211
1.616813294232649
1.6412512218963833
1.6705767350928642
1.699902248289345
1.7302052785923754
1.7644183773216031
1.8005865102639296
1.836754643206256
1.870967741935484
1.902248289345064
1.9305962854349952
1.9550342130987293
1.975562072336266
1.9931573802541545
2.006842619745845
2.016617790811339
2.022482893450636
2.0283479960899315
2.032258064516129
2.035190615835777
2.035190615835777
2.0332355816226784
2.029325513196481
2.0234604105571847
2.01564027370479
2.005865102639296
1.9931573802541545
1.978494623655914
1.963831867057673
1.949169110459433
1.932551319648094
1.9149560117302051
1.8973607038123168
1.8807429130009776
1.865102639296188
1.8504398826979471
1.8377321603128052
1.8269794721407624
1.8172043010752688
1.8093841642228736
1.8035190615835777
1.7986314760508308
1.793743890518084
1.7898338220918866
1.7859237536656891
1.782991202346041
1.780058651026393
1.7771260997067448
1.7741935483870968
1.7702834799608993
1.7673509286412512
1.7634408602150538
1.7595307917888563
1.7565982404692082
1.75366568914956
1.7497556207233629
1.7448680351906158
1.739980449657869
1.7341153470185728
1.729227761485826
1.7233626588465298
1.718475073313783
1.7135874877810362
1.7086999022482894
1.7028347996089932
1.6979472140762464
1.6950146627565983
1.6911045943304008
1.689149560117302
1.6901270772238517
1.6950146627565983
1.7057673509286413
1.721407624633431
1.7429130009775171
1.7702834799608993
1.801564027370479
1.835777126099707
1.870967741935484
1.900293255131965
1.9266862170087975
1.95405669599218
1.9794721407624636
2.002932551319648
2.022482893450636
2.0391006842619745
2.0527859237536656
2.0635386119257086
2.071358748778104
2.0762463343108504
2.0791788856304985
2.0791788856304985
2.0772238514174
2.074291300097752
2.070381231671554
2.0635386119257086
2.0557184750733137
2.0449657869012707
2.0332355816226784
2.018572825024438
2.002932551319648
1.986314760508309
1.9687194525904204
1.9530791788856303
1.9374389051808407
1.921798631476051
1.906158357771261
1.8914956011730208
1.87683284457478
1.8641251221896384
1.8523949169110456
1.842619745845552
1.833822091886608
1.825024437927664
1.8172043010752688
1.8103616813294232
1.804496578690127
1.7986314760508308
1.7927663734115349
1.7869012707722385
1.780058651026393
1.7732160312805474
1.7663734115347018
1.7595307917888563
1.7526881720430108
1.7448680351906158
1.737047898338221
1.729227761485826
1.7223851417399805
1.7165200391006843
1.7096774193548387
1.7038123167155426
1.696969696969697
1.6901270772238517
1.683284457478006
1.6764418377321604
1.6695992179863148
1.6627565982404693
1.656891495601173
1.6529814271749756
1.651026392961877
1.651026392961877
1.6549364613880744
1.664711632453568
1.6793743890518085
1.699902248289345
1.726295210166178
1.7575757575757576
1.790811339198436
1.826001955034213
1.86119257086999
1.8944281524926687
1.924731182795699
1.948191593352884
1.9667644183773216
1.9853372434017595
2.0009775171065494
2.0146627565982405
2.0254154447702835
2.0332355816226784
2.038123167155425
2.040078201368524
2.040078201368524
2.038123167155425
2.034213098729228
2.029325513196481
2.022482893450636
2.0146627565982405
2.004887585532747
1.9931573802541545
1.9804496578690127
1.9657869012707725
1.949169110459433
1.9315738025415443
2.010752688172043
2.124144672531769
2.145650048875855
2.1221896383186705
2.0869990224828934
2.047898338220919
2.0019550342130987
1.9560117302052784
1.913978494623656
1.87683284457478
1.844574780058651
1.8162267839687196
1.790811339198436
1.7673509286412512
1.7438905180840665
1.718475073313783
1.6920821114369502
1.6705767350928642
1.651026392961877
1.6285434995112416
1.606060606060606
1.58455522971652
1.563049853372434
1.541544477028348
1.5190615835777126
1.4946236559139785
1.466275659824047
1.434017595307918
1.3998044965786902
1.3714565004887584
1.346041055718475
1.3157380254154447
1.2854349951124144
1.2590420332355816
1.238514173998045
1.224828934506354
1.2179863147605083
1.219941348973607
1.2336265884652982
1.262952101661779
1.3098729227761483
1.3763440860215057
1.4496578690127078
1.533724340175953
1.6422287390029326
1.7673509286412512
1.902248289345064
2.0391006842619745
2.1730205278592374
2.300097751710655
2.4164222873900294
2.5210166177908118
2.6129032258064515
2.6930596285435
2.752688172043011
2.7966764418377323
2.8396871945259043
2.877810361681329
2.90811339198436
2.9286412512218964
2.940371456500489
2.941348973607038
2.932551319648094
2.913000977517106
2.8826979472140764
2.8426197458455524
2.792766373411535
2.740957966764418
2.687194525904203
2.625610948191593
2.558162267839687
2.4887585532746823
2.418377321603128
2.3499511241446727
2.2844574780058653
2.222873900293255
2.166177908113392
2.115347018572825
2.069403714565005
2.03128054740958
1.9980449657869013
1.9657869012707725
1.9345063538611929
1.903225806451613
1.8729227761485825
1.8435972629521016
1.8132942326490715
1.782991202346041
1.7526881720430108
1.7223851417399805
1.6930596285434996
1.664711632453568
1.640273704789834
1.6177908113391983
1.5923753665689149
1.565982404692082
1.5386119257087
1.5102639296187683
1.4819159335288368
1.4535679374389052
1.426197458455523
1.3988269794721409
1.370478983382209
1.3421309872922775
1.3206256109481915
1.3020527859237536
1.281524926686217
1.262952101661779
1.252199413489736
1.2541544477028348
1.2727272727272727
1.3118279569892473
1.3724340175953078
1.455522971652004
1.5591397849462365
1.678396871945259
1.8074291300097751
1.9237536656891496
2.0303030303030303
2.144672531769306
2.2551319648093844
2.35386119257087
2.4389051808406648
2.50733137829912
2.5591397849462365
2.5943304007820136
2.6129032258064515
2.6158357771261
2.606060606060606
2.587487781036168
2.560117302052786
2.5219941348973607
2.474095796676442
2.4173998044965788
2.3519061583577714
2.2795698924731185
2.201368523949169
2.1163245356793743
2.0254154447702835
1.9305962854349952
1.83088954056696
1.7282502443792769
1.6392961876832846
1.5581622678396871
1.469208211143695
1.3782991202346042
1.289345063538612
1.206256109481916
1.1329423264907137
1.0694037145650048
1.0156402737047898
0.9706744868035192
0.9335288367546432
0.9042033235581622
0.8866080156402737
0.8768328445747801
0.8641251221896383
0.8514173998044966
0.8377321603128055
0.8240469208211144
0.8093841642228738
0.7956989247311828
0.782991202346041
0.772238514173998
0.761485826001955
0.7497556207233627
0.7429130009775171
0.7390029325513197
0.7302052785923754
0.718475073313783
0.7038123167155426
0.6862170087976539
0.6666666666666666
0.64613880742913
0.6236559139784946
0.6021505376344086
0.5806451612903226
0.5610948191593352
0.5454545454545454
0.5425219941348973
0.5513196480938416
0.5689149560117303
0.6021505376344086
0.6559139784946236
0.7331378299120235
0.833822091886608
0.9560117302052786
1.0948191593352885
1.2443792766373412
1.3988269794721409
1.552297165200391
1.6842619745845553
1.7996089931573802
1.9178885630498532
2.0303030303030303
2.1309872922776147
2.218963831867057
2.2952101661779083
2.358748778103617
2.410557184750733
2.450635386119257
2.4809384164222874
2.5024437927663734
2.515151515151515
2.5180840664711632
2.512218963831867
2.5004887585532747
2.479960899315738
2.450635386119257
2.412512218963832
2.3655913978494625
2.3118279569892475
2.251221896383187
2.185728250244379
2.117302052785924
2.047898338220919
1.988269794721408
1.935483870967742
1.878787878787879
1.822091886608016
1.76930596285435
1.7204301075268815
1.6764418377321604
1.6373411534701858
1.6021505376344083
1.5708699902248289
1.541544477028348
1.5131964809384164
1.4858260019550342
1.4652981427174976
1.4467253176930597
1.4252199413489737
1.401759530791789
1.3782991202346042
1.3548387096774193
1.3304007820136852
1.3069403714565004
1.2834799608993157
1.2590420332355816
1.2346041055718475
1.2101661779081134
1.1925708699902249
1.1779081133919844
1.1593352883675463
1.13880742913001
1.1173020527859236
1.0948191593352885
1.072336265884653
1.050830889540567
1.0312805474095796
1.0166177908113392
1.010752688172043
1.0175953079178883
1.040078201368524
1.0762463343108504
1.1300097751710656
1.2913000977517106
1.512218963831867
1.683284457478006
1.833822091886608
1.975562072336266
2.112414467253177
2.243401759530792
2.367546432062561
2.4809384164222874
2.582600195503421
2.6608015640273703
2.7233626588465296
2.782991202346041
2.8367546432062563
2.881720430107527
2.916911045943304
2.9442815249266863
2.961876832844575
2.972629521016618
2.9745845552297165
2.9687194525904204
2.956011730205278
2.935483870967742
2.909090909090909
2.877810361681329
2.8396871945259043
2.793743890518084
2.7419354838709675
2.6852394916911044
2.624633431085044
2.5610948191593352
2.4975562072336266
2.4359726295210167
2.376344086021505
2.321603128054741
2.2766373411534704
2.2385141739980448
2.19941348973607
2.163245356793744
2.129032258064516
2.0987292277614857
2.070381231671554
2.043010752688172
2.0175953079178885
1.992179863147605
1.9667644183773216
1.9423264907135875
1.9178885630498532
1.8973607038123168
1.878787878787879
1.8563049853372435
1.8328445747800584
1.8084066471163245
1.7839687194525904
1.7595307917888563
1.7350928641251222
1.7096774193548387
1.683284457478006
1.656891495601173
1.6314760508308896
1.6109481915933528
1.5933528836754642
1.5708699902248289
1.547409579667644
1.5239491691104594
1.5024437927663734
1.4848484848484849
1.474095796676442
1.474095796676442
1.4887585532746823
1.521994134897361
1.5757575757575757
1.6520039100684265
1.7341153470185728
1.8240469208211143
1.9364613880742916
2.06158357771261
2.1915933528836757
2.3196480938416424
2.441837732160313
2.5532746823069403
2.652003910068426
2.7370478983382207
2.809384164222874
2.8690127077223853
2.9100684261974585
2.9374389051808407
2.961876832844575
2.979472140762464
2.9902248289345064
2.992179863147605
2.9872922776148583
2.9745845552297165
2.95405669599218
2.9257086999022484
2.889540566959922
2.8455522971652005
2.7947214076246336
2.7438905180840663
2.69208211143695
2.632453567937439
2.567937438905181
2.5024437927663734
2.4379276637341154
2.375366568914956
2.315738025415445
2.260997067448681
2.210166177908113
2.164222873900293
2.12316715542522
2.090909090909091
2.0635386119257086
2.035190615835777
2.006842619745845
1.9804496578690127
1.9550342130987293
1.9305962854349952
1.906158357771261
1.881720430107527
1.858260019550342
1.8347996089931573
1.8103616813294232
1.790811339198436
1.7741935483870968
1.7546432062561097
1.7331378299120237
1.710654936461388
1.6871945259042034
1.6637341153470186
1.640273704789834
1.6177908113391983
1.5943304007820136
1.5708699902248289
1.547409579667644
1.5249266862170088
1.5083088954056696
1.495601173020528
1.4819159335288368
1.4721407624633431
1.4711632453567938
1.4838709677419355
1.5131964809384164
1.563049853372434
1.6344086021505375
1.7272727272727273
1.8387096774193548
1.963831867057673
2.078201368523949
2.185728250244379
2.304985337243402
2.4242424242424243
2.535679374389052
2.636363636363636
2.7233626588465296
2.795698924731183
2.854349951124145
2.900293255131965
2.936461388074292
2.962854349951124
2.979472140762464
2.98435972629521
2.981427174975562
2.973607038123167
2.9589442815249267
2.9374389051808407
2.90811339198436
2.8729227761485827
2.8299120234604107
2.780058651026393
2.724340175953079
2.6637341153470184
2.598240469208211
2.5386119257087
2.4819159335288368
2.419354838709677
2.355816226783969
2.294232649071359
2.236559139784946
2.1837732160312804
2.136852394916911
2.0948191593352883
2.056695992179863
2.022482893450636
1.992179863147605
1.963831867057673
1.9423264907135875
1.9237536656891496
