ppg
1.3919843597262953
1.3890518084066472
1.3890518084066472
1.391006842619746
1.3919843597262953
1.392961876832845
1.392961876832845
1.392961876832845
1.392961876832845
1.392961876832845
1.393939393939394
1.3949169110459434
1.396871945259042
1.3988269794721409
1.401759530791789
1.404692082111437
1.4066471163245358
1.4066471163245358
1.404692082111437
1.4027370478983383
1.3998044965786902
1.3949169110459434
1.3890518084066472
1.3890518084066472
1.4027370478983383
1.4389051808406648
1.5053763440860215
1.587487781036168
1.6881720430107527
1.827956989247312
1.9951124144672527
2.1739980449657867
2.350928641251222
2.515151515151515
2.659824046920821
2.779081133919844
2.8729227761485827
2.941348973607038
2.986314760508309
3.0087976539589443
3.016617790811339
3.0195503421309877
3.016617790811339
3.007820136852395
2.9931573802541545
2.973607038123167
2.949169110459433
2.919843597262952
2.884652981427175
2.843597262952102
2.7947214076246336
2.7370478983382207
2.678396871945259
2.616813294232649
2.5454545454545454
2.463343108504399
2.3734115347018574
2.281524926686217
2.189638318670577
2.101661779081134
2.021505376344086
1.9521016617790807
1.8963831867057677
1.8514173998044965
1.818181818181818
1.793743890518084
1.7732160312805474
1.7575757575757576
1.7429130009775171
1.7272727272727273
1.710654936461388
1.6930596285434996
1.6744868035190617
1.6549364613880744
1.6334310850439884
1.611925708699902
1.5894428152492668
1.56891495601173
1.5493646138807429
1.5298142717497556
1.5102639296187683
1.4926686217008798
1.47702834799609
1.4633431085043989
1.4516129032258065
1.4379276637341154
1.4222873900293256
1.4076246334310851
1.392961876832845
1.3822091886608017
1.3724340175953078
1.359726295210166
1.346041055718475
1.332355816226784
1.3176930596285434
1.3049853372434017
1.2961876832844574
1.289345063538612
1.284457478005865
1.2795698924731185
1.2756598240469208
1.2717497556207231
1.270772238514174
1.270772238514174
1.2688172043010753
1.2668621700879763
1.2639296187683284
1.260019550342131
1.2561094819159335
1.252199413489736
1.249266862170088
1.2453567937438903
1.241446725317693
1.238514173998045
1.2394916911045943
1.2404692082111437
1.238514173998045
1.2326490713587488
1.2228739002932552
1.2111436950146628
1.2043010752688172
1.2101661779081134
1.238514173998045
1.300097751710655
1.3998044965786902
1.5366568914956011
1.704789833822092
1.8670576735092863
2.022482893450636
2.193548387096774
2.3597262952101663
2.509286412512219
2.635386119257087
2.7331378299120237
2.8054740957966766
2.855327468230694
2.886608015640274
2.903225806451613
2.90811339198436
2.902248289345064
2.8914956011730206
2.877810361681329
2.86217008797654
2.8426197458455524
2.819159335288368
2.790811339198436
2.757575757575758
2.718475073313783
2.6715542521994133
2.6158357771261
2.552297165200391
2.487781036168133
2.420332355816227
2.340175953079179
2.2482893450635384
2.150537634408602
2.0498533724340176
1.951124144672532
1.858260019550342
1.7732160312805474
1.6979472140762464
1.6344086021505375
1.5826001955034212
1.542521994134897
1.5151515151515151
1.495601173020528
1.47702834799609
1.4594330400782014
1.4428152492668622
1.426197458455523
1.409579667644184
1.393939393939394
1.3763440860215057
1.356793743890518
1.335288367546432
1.3147605083088951
1.300097751710655
1.2873900293255132
1.2697947214076246
1.2482893450635386
1.2258064516129032
1.203323558162268
1.1808406647116323
1.160312805474096
1.141739980449658
1.1251221896383188
1.1094819159335287
1.093841642228739
1.0791788856304985
1.0684261974584557
1.06158357771261
1.0527859237536656
1.043010752688172
1.032258064516129
1.0224828934506354
1.0127077223851415
1.0048875855327468
1.0
0.9951124144672532
0.9912023460410556
0.9872922776148584
0.9872922776148584
0.9902248289345064
0.9921798631476052
0.9951124144672532
0.9990224828934506
1.0039100684261977
1.0117302052785924
1.0224828934506354
1.035190615835777
1.0488758553274682
1.06158357771261
1.0733137829912025
1.0821114369501466
1.0918866080156402
1.1026392961876832
1.1114369501466277
1.1192570869990224
1.1319648093841643
1.1564027370478984
1.2023460410557183
1.2766373411534702
1.3861192570869991
1.5317693059628543
1.70772238514174
1.902248289345064
2.0762463343108504
2.233626588465298
2.398826979472141
2.552297165200391
2.686217008797654
2.7947214076246336
2.8797653958944283
2.9423264907135875
2.986314760508309
3.016617790811339
3.035190615835777
3.0449657869012707
3.046920821114369
3.040078201368524
3.0254154447702835
3.0087976539589443
2.989247311827957
2.964809384164223
2.9335288367546437
2.895405669599218
2.849462365591398
2.7947214076246336
2.7311827956989245
2.659824046920821
2.5777126099706744
2.498533724340176
2.420332355816227
2.333333333333333
2.243401759530792
2.156402737047898
2.0762463343108504
2.004887585532747
1.945259042033236
1.8973607038123168
1.8602150537634408
1.8318670576735088
1.812316715542522
1.7996089931573802
1.7888563049853372
1.780058651026393
1.7702834799608993
1.7575757575757576
1.7458455522971652
1.732160312805474
1.7165200391006843
1.699902248289345
1.6823069403714566
1.6637341153470186
1.64613880742913
1.6304985337243405
1.6177908113391983
1.607038123167155
1.5943304007820136
1.5806451612903225
1.5669599217986314
1.552297165200391
1.5376344086021505
1.5239491691104594
1.512218963831867
1.500488758553275
1.4887585532746823
1.478005865102639
1.4672531769305963
1.458455522971652
1.4516129032258065
1.4437927663734116
1.436950146627566
1.4320625610948192
1.4271749755620724
1.423264907135875
1.4193548387096775
1.41544477028348
1.4115347018572826
1.4086021505376345
1.404692082111437
1.4027370478983383
1.401759530791789
1.3998044965786902
1.3978494623655917
1.396871945259042
1.3958944281524928
1.3958944281524928
1.3958944281524928
1.3949169110459434
1.3919843597262953
1.3861192570869991
1.380254154447703
1.3743890518084063
1.3734115347018572
1.3822091886608017
1.4076246334310851
1.4594330400782014
1.5454545454545454
1.667644183773216
1.822091886608016
2.0
2.187683284457478
2.3714565004887587
2.5386119257087
2.6832844574780057
2.787878787878788
2.863147605083089
2.927663734115347
2.975562072336266
3.007820136852395
3.026392961876833
3.0332355816226784
3.0303030303030303
3.0205278592375366
3.005865102639296
2.989247311827957
2.967741935483871
2.941348973607038
2.9120234604105573
2.8797653958944283
2.843597262952102
2.80058651026393
2.747800586510264
2.686217008797654
2.6158357771261
2.535679374389052
2.44672531769306
2.3528836754643208
2.2580645161290325
2.166177908113392
2.0879765395894427
2.0205278592375366
1.9550342130987293
1.8973607038123168
1.8504398826979471
1.812316715542522
1.7810361681329423
1.7575757575757576
1.7390029325513197
1.7223851417399805
1.7057673509286413
1.689149560117302
1.6744868035190617
1.6598240469208212
1.6412512218963833
1.6207233626588464
1.5992179863147604
1.5777126099706744
1.5562072336265884
1.5356793743890518
1.5180840664711632
1.499511241446725
1.4809384164222874
1.4633431085043989
1.444770283479961
1.4301075268817205
1.4173998044965788
1.4027370478983383
1.3870967741935485
1.3714565004887584
1.3558162267839686
1.3411534701857282
1.3264907135874875
1.3118279569892473
1.2981427174975562
1.2854349951124144
1.273704789833822
1.2658846529814272
1.260019550342131
1.2551319648093842
1.2561094819159335
1.2688172043010753
1.303030303030303
1.367546432062561
1.4652981427174976
1.5962854349951123
1.7565982404692082
1.932551319648094
2.1114369501466275
2.281524926686217
2.41544477028348
2.520039100684262
2.6158357771261
2.6930596285435
2.747800586510264
2.78494623655914
2.807429130009776
2.8152492668621703
2.8132942326490715
2.803519061583578
2.787878787878788
2.7673509286412514
2.7438905180840663
2.716520039100684
2.6852394916911044
2.6480938416422286
2.6041055718475072
2.5532746823069403
2.493646138807429
2.4252199413489737
2.3489736070381237
2.264907135874878
2.1739980449657867
2.078201368523949
1.981427174975562
1.8973607038123168
1.8240469208211143
1.7487781036168133
1.6793743890518085
1.619745845552297
1.5718475073313782
1.5356793743890518
1.5083088954056696
1.487781036168133
1.4701857282502444
1.4516129032258065
1.434017595307918
1.4193548387096775
1.4066471163245358
1.3900293255131966
1.370478983382209
1.3499511241446724
1.3284457478005864
1.305962854349951
1.2825024437927663
1.2580645161290325
1.2326490713587488
1.2082111436950147
1.1867057673509287
1.1681329423264908
1.1564027370478984
1.1515151515151516
1.144672531769306
1.1348973607038124
1.1221896383186705
1.1094819159335287
1.0957966764418376
1.0821114369501466
1.0713587487781036
1.0625610948191593
1.053763440860215
1.04594330400782
1.0439882697947214
1.0439882697947214
1.043010752688172
1.040078201368524
1.0371456500488758
1.0342130987292275
1.0303030303030305
1.0273704789833822
1.0234604105571847
1.0205278592375366
1.0166177908113392
1.0127077223851415
1.0097751710654936
1.0097751710654936
1.0117302052785924
1.010752688172043
1.0087976539589445
1.0058651026392962
1.0019550342130987
1.0
0.9990224828934506
0.9990224828934506
1.0009775171065494
1.0039100684261977
1.0068426197458455
1.0127077223851415
1.0263929618768328
1.0361681329423265
1.04594330400782
1.06158357771261
1.0684261974584557
1.0713587487781036
1.075268817204301
1.0840664711632453
1.1055718475073313
1.1515151515151516
1.23069403714565
1.327468230694037
1.4496578690127078
1.619745845552297
1.822091886608016
2.0439882697947214
2.2668621700879767
2.4760508308895406
2.662756598240469
2.8211143695014664
2.9472140762463344
3.0439882697947214
3.114369501466276
3.155425219941349
3.176930596285435
3.193548387096774
3.203323558162268
3.206256109481916
3.2023460410557183
3.1925708699902247
3.176930596285435
3.157380254154448
3.133919843597263
3.1055718475073317
3.071358748778104
3.029325513196481
2.981427174975562
2.9286412512218964
2.866080156402737
2.793743890518084
2.710654936461388
2.619745845552297
2.5239491691104594
2.4242424242424243
2.324535679374389
2.228739002932551
2.1417399804496577
2.064516129032258
2.003910068426197
1.956989247311828
1.9149560117302051
1.878787878787879
1.8484848484848484
1.8240469208211143
1.8035190615835777
1.7869012707722385
1.7702834799608993
1.75366568914956
1.7360703812316716
1.718475073313783
1.7008797653958945
1.6852394916911049
1.6695992179863148
1.651026392961877
1.6314760508308896
1.6109481915933528
1.5913978494623655
1.5728250244379276
1.5542521994134897
1.5366568914956011
1.520039100684262
1.5053763440860215
1.4916911045943304
1.482893450635386
1.4750733137829912
1.4643206256109482
1.4535679374389052
1.4408602150537635
1.4271749755620724
1.41544477028348
1.4056695992179864
1.396871945259042
1.3890518084066472
1.3822091886608017
1.3773216031280548
1.3743890518084063
1.3743890518084063
1.3763440860215057
1.3773216031280548
1.3792766373411536
1.3822091886608017
1.3870967741935485
1.3919843597262953
1.393939393939394
1.3949169110459434
1.3958944281524928
1.3958944281524928
1.396871945259042
1.3998044965786902
1.401759530791789
1.4007820136852396
1.4007820136852396
1.3988269794721409
1.3949169110459434
1.392961876832845
1.396871945259042
1.41544477028348
1.4594330400782014
1.5356793743890518
1.624633431085044
1.7331378299120237
1.881720430107527
2.0557184750733137
2.239491691104594
2.4995112414467253
2.6529814271749754
2.782013685239492
2.9286412512218964
2.991202346041056
3.0332355816226784
3.0576735092864125
3.060606060606061
3.0518084066471163
3.038123167155425
3.007820136852395
2.9804496578690127
2.949169110459433
2.913978494623656
2.873900293255132
2.827956989247312
2.776148582600196
2.716520039100684
2.654936461388074
2.589442815249267
2.512218963831867
2.4242424242424243
2.3284457478005867
2.2297165200391005
2.133919843597263
2.042033235581622
1.9589442815249267
1.8866080156402736
1.826001955034213
1.7790811339198436
1.7419354838709675
1.715542521994135
1.6959921798631477
1.6774193548387095
1.6598240469208212
1.643206256109482
1.6275659824046922
1.6129032258064515
1.5972629521016617
1.5796676441837731
1.560117302052786
1.5395894428152492
1.5180840664711632
1.499511241446725
1.4819159335288368
1.4613880742913
1.4379276637341154
1.4134897360703813
1.3870967741935485
1.359726295210166
1.3333333333333333
1.3079178885630498
1.2864125122189638
1.2658846529814272
1.2473118279569892
1.2287390029325511
1.2150537634408602
1.2052785923753666
1.1945259042033236
1.1837732160312806
1.1730205278592376
1.163245356793744
1.1515151515151516
1.1407624633431086
1.1290322580645162
1.1173020527859236
1.1065493646138806
1.0957966764418376
1.0909090909090908
1.0879765395894427
1.0821114369501466
1.075268817204301
1.067448680351906
1.0596285434995112
1.053763440860215
1.0488758553274682
1.0449657869012707
1.0420332355816226
1.0420332355816226
1.043010752688172
1.04594330400782
1.050830889540567
1.0547409579667644
1.0527859237536656
1.0478983382209188
1.0439882697947214
1.04594330400782
1.064516129032258
1.110459433040078
1.1906158357771262
1.3088954056695992
1.4643206256109482
1.6490713587487782
1.822091886608016
1.9853372434017595
2.160312805474096
2.3274682306940373
2.4760508308895406
2.598240469208211
2.695014662756598
2.768328445747801
2.7751710654936463
2.7438905180840663
2.7341153470185726
2.7311827956989245
2.727272727272727
2.718475073313783
2.705767350928641
2.6911045943304006
2.673509286412512
2.652003910068426
2.625610948191593
2.593352883675464
2.5562072336265884
2.5131964809384164
2.463343108504399
2.406647116324536
2.343108504398827
2.280547409579668
2.2160312805474094
2.139784946236559
2.0547409579667644
1.9667644183773216
1.8797653958944285
1.7976539589442817
1.7243401759530792
1.66177908113392
1.6129032258064515
1.5757575757575757
1.5483870967741935
1.5288367546432062
1.517106549364614
1.509286412512219
1.5024437927663734
1.495601173020528
1.487781036168133
1.478005865102639
1.4682306940371457
1.458455522971652
1.447702834799609
1.435972629521017
1.4242424242424243
1.4105571847507332
1.3988269794721409
1.3890518084066472
1.3763440860215057
1.3636363636363635
2.748778103616813
2.697947214076246
2.638318670576735
2.570869990224829
2.493646138807429
2.4086021505376345
2.329423264907136
2.254154447702835
2.172043010752688
2.089931573802541
2.013685239491691
1.945259042033236
1.8856304985337244
1.836754643206256
1.7976539589442817
1.7683284457478006
1.7458455522971652
1.729227761485826
1.7174975562072337
1.7086999022482894
1.7018572825024438
1.6950146627565983
1.686217008797654
1.6744868035190617
1.6598240469208212
1.6441837732160314
1.6275659824046922
1.6109481915933528
1.5933528836754642
1.576735092864125
1.5620723362658846
1.5493646138807429
1.5376344086021505
1.52297165200391
1.5073313782991202
1.4916911045943304
1.4760508308895406
1.4623655913978495
1.4496578690127078
1.4379276637341154
1.4271749755620724
1.41544477028348
1.4037145650048877
1.3919843597262953
1.3822091886608017
1.3743890518084063
1.3665689149560116
1.3587487781036167
1.3519061583577712
1.3440860215053765
1.335288367546432
1.3264907135874875
1.3147605083088951
1.3020527859237536
1.2883675464320623
1.2756598240469208
1.267839687194526
1.262952101661779
1.2580645161290325
1.2531769305962854
1.2502443792766371
1.249266862170088
1.2512218963831867
1.2531769305962854
1.2541544477028348
1.2531769305962854
1.2512218963831867
1.249266862170088
1.252199413489736
1.2639296187683284
1.2913000977517106
1.3421309872922775
1.423264907135875
1.5366568914956011
1.678396871945259
1.8416422287390029
2.0146627565982405
2.1867057673509285
2.347018572825025
2.486803519061584
2.6041055718475072
2.687194525904203
2.744868035190616
2.7947214076246336
2.833822091886608
2.860215053763441
2.873900293255132
2.877810361681329
2.874877810361681
2.866080156402737
2.84652981427175
2.825024437927664
2.806451612903226
2.779081133919844
2.7468230694037143
2.710654936461388
2.667644183773216
2.616813294232649
2.5562072336265884
2.484848484848485
2.403714565004888
2.313782991202346
2.219941348973607
2.1251221896383186
2.034213098729228
1.949169110459433
1.8807429130009776
1.825024437927664
1.7732160312805474
1.7282502443792769
1.6911045943304008
1.6578690127077225
1.629521016617791
1.6050830889540566
1.58455522971652
1.5669599217986314
1.5493646138807429
1.530791788856305
1.5112414467253177
1.4946236559139785
1.4819159335288368
1.466275659824047
1.4496578690127078
1.4330400782013686
1.414467253176931
1.3949169110459434
1.375366568914956
1.356793743890518
1.3401759530791788
1.3255131964809383
1.310850439882698
1.300097751710655
1.289345063538612
1.2756598240469208
1.2639296187683284
1.2531769305962854
1.2424242424242424
1.2316715542521994
1.2209188660801564
1.2101661779081134
1.2003910068426198
1.1906158357771262
1.1827956989247312
1.1779081133919844
1.1759530791788857
1.1759530791788857
1.173998044965787
1.1710654936461389
1.1691104594330402
1.1671554252199414
1.166177908113392
1.1671554252199414
1.1671554252199414
1.166177908113392
1.166177908113392
1.166177908113392
1.1671554252199414
1.1710654936461389
1.1749755620723363
1.1788856304985338
1.1827956989247312
1.18475073313783
1.1837732160312806
1.1798631476050832
1.173998044965787
1.1720430107526882
1.181818181818182
1.2121212121212122
1.2717497556207231
1.3479960899315735
1.4467253176930597
1.5826001955034212
1.7458455522971652
1.924731182795699
2.104594330400782
2.274682306940372
2.4252199413489737
2.5542521994134897
2.658846529814272
2.7390029325513194
2.7976539589442817
2.8377321603128056
2.860215053763441
2.8729227761485827
2.881720430107527
2.8807429130009776
2.874877810361681
2.8670576735092865
2.8533724340175954
2.8240469208211145
2.793743890518084
2.7702834799608995
2.7390029325513194
2.6911045943304006
2.64613880742913
2.608993157380254
2.5591397849462365
2.47702834799609
2.3958944281524928
2.3088954056695994
2.1925708699902247
2.085043988269794
1.9843597262952104
1.8914956011730208
1.8074291300097751
1.7409579667644184
1.6852394916911049
1.6334310850439884
1.5933528836754642
1.563049853372434
1.5356793743890518
1.512218963831867
1.4946236559139785
1.479960899315738
1.4652981427174976
1.4496578690127078
1.436950146627566
1.4252199413489737
1.409579667644184
1.392961876832845
1.3763440860215057
1.359726295210166
1.3421309872922775
1.3235581622678396
1.3040078201368523
1.2854349951124144
1.2668621700879763
1.2482893450635386
1.23069403714565
1.2121212121212122
1.198435972629521
1.1886608015640274
1.1788856304985338
1.1691104594330402
1.160312805474096
1.1534701857282503
1.1495601173020529
1.147605083088954
1.1466275659824048
1.144672531769306
1.142717497556207
1.1407624633431086
1.1407624633431086
1.1407624633431086
1.1397849462365592
1.13880742913001
1.13880742913001
1.13880742913001
1.1397849462365592
1.144672531769306
1.1495601173020529
1.1544477028347997
1.1612903225806452
1.1700879765395895
1.181818181818182
1.1974584555229717
1.2130987292277615
1.2267839687194526
1.238514173998045
1.2473118279569892
1.252199413489736
1.2570869990224829
1.2668621700879763
1.2903225806451613
1.3372434017595307
1.41544477028348
1.5268817204301075
1.6471163245356797
1.780058651026393
1.946236559139785
2.1251221896383186
2.303030303030303
2.469208211143695
2.616813294232649
2.739980449657869
2.838709677419355
2.9149560117302054
2.970674486803519
3.0117302052785924
3.0391006842619745
3.0498533724340176
3.050830889540567
3.050830889540567
3.046920821114369
3.038123167155425
3.026392961876833
3.0097751710654936
2.986314760508309
2.956989247311828
2.920821114369501
2.877810361681329
2.8269794721407626
2.774193548387097
2.716520039100684
2.6480938416422286
2.570869990224829
2.4858260019550342
2.3958944281524928
2.304007820136853
2.2130987292277613
2.1270772238514173
2.048875855327468
1.9824046920821117
1.9266862170087975
1.8836754643206255
1.8543499511241448
1.8347996089931573
1.8211143695014664
1.8103616813294232
1.8025415444770283
1.7956989247311828
1.7898338220918866
1.7839687194525904
1.7771260997067448
1.7702834799608993
1.7634408602150538
1.7565982404692082
1.7497556207233629
1.7419354838709675
1.732160312805474
1.7223851417399805
1.7145650048875856
1.7057673509286413
1.6959921798631477
1.6852394916911049
1.6744868035190617
1.66177908113392
1.6480938416422288
1.6344086021505375
1.6217008797653958
1.611925708699902
1.6050830889540566
1.598240469208211
1.590420332355816
1.5835777126099706
1.5757575757575757
1.5669599217986314
1.5571847507331378
1.5483870967741935
1.5395894428152492
1.5298142717497556
1.520039100684262
1.5141739980449658
1.509286412512219
1.5024437927663734
1.4965786901270772
1.4916911045943304
1.487781036168133
1.4838709677419355
1.479960899315738
1.474095796676442
1.466275659824047
1.456500488758553
1.4467253176930597
1.435972629521017
1.4271749755620724
1.4173998044965788
1.4037145650048877
1.388074291300098
1.3763440860215057
1.3743890518084063
1.391006842619746
1.435972629521017
1.5141739980449658
1.6285434995112416
1.772238514173998
1.9345063538611929
2.081133919843597
2.2160312805474094
2.358748778103617
2.4916911045943304
2.6050830889540566
2.6959921798631474
2.764418377321604
2.811339198435973
2.8406647116324537
2.854349951124145
2.855327468230694
2.8475073313782997
2.833822091886608
2.814271749755621
2.790811339198436
2.7653958944281527
2.73802541544477
2.7067448680351904
2.6715542521994133
2.6295210166177907
2.578690127077224
2.5190615835777126
2.450635386119257
2.375366568914956
2.294232649071359
2.218963831867057
2.146627565982405
2.067448680351906
1.9872922776148585
1.911045943304008
1.8435972629521016
1.7859237536656891
1.7380254154447703
1.6979472140762464
1.6637341153470186
1.6344086021505375
1.608993157380254
1.5884652981427174
1.5718475073313782
1.5503421309872922
1.5268817204301075
1.5053763440860215
1.4848484848484849
1.4623655913978495
1.4389051808406648
1.41544477028348
1.3919843597262953
1.3665689149560116
1.3391984359726294
1.310850439882698
1.2873900293255132
1.2668621700879763
1.2434017595307918
1.2179863147605083
1.1915933528836755
1.1671554252199414
1.1436950146627567
1.121212121212121
1.0987292277614855
1.0772238514173995
1.056695992179863
1.0381231671554252
1.0254154447702837
1.0166177908113392
1.0048875855327468
0.9921798631476052
0.9804496578690128
0.9696969696969696
0.9589442815249268
0.9481915933528836
0.93841642228739
0.9296187683284456
0.9217986314760508
0.9149560117302052
0.9100684261974584
0.9090909090909092
0.9100684261974584
0.9100684261974584
0.9100684261974584
0.9110459433040078
0.913978494623656
0.9188660801564028
0.9247311827956988
0.9286412512218964
0.9305962854349952
0.9305962854349952
0.927663734115347
0.9257086999022482
0.9237536656891496
0.919843597262952
0.9208211143695014
0.9393939393939394
0.9833822091886608
1.06158357771261
1.1779081133919844
1.3294232649071358
1.5073313782991202
1.7028347996089932
1.8983382209188664
2.0762463343108504
2.2160312805474094
2.3274682306940373
2.43108504398827
2.5190615835777126
2.589442815249267
2.641251221896383
2.679374389051808
2.705767350928641
2.7223851417399803
2.7311827956989245
2.732160312805474
2.729227761485826
2.719452590420332
2.7038123167155423
2.686217008797654
2.6637341153470184
2.636363636363636
2.6021505376344085
2.5620723362658846
2.515151515151515
2.4604105571847508
2.3978494623655915
2.3274682306940373
2.249266862170088
2.164222873900293
2.085043988269794
2.007820136852395
1.921798631476051
1.8347996089931573
1.7517106549364614
1.675464320625611
1.607038123167155
1.5483870967741935
