ppg
1.0224828934506354
1.010752688172043
0.9951124144672532
0.9775171065493646
0.9589442815249268
0.93841642228739
0.9188660801564028
0.9012707722385142
0.884652981427175
0.8690127077223851
0.8543499511241447
0.841642228739003
0.8347996089931574
0.8289345063538612
0.8191593352883676
0.8093841642228738
0.7986314760508308
0.7888563049853372
0.782991202346041
0.7781036168132942
0.7741935483870968
0.772238514173998
0.7712609970674487
0.7712609970674487
0.7712609970674487
0.7732160312805474
0.7761485826001955
0.7781036168132942
0.7800586510263929
0.7820136852394917
0.7849462365591398
0.7869012707722385
0.7888563049853372
0.7927663734115347
0.7966764418377321
0.7996089931573802
0.8025415444770283
0.8064516129032258
0.8123167155425219
0.8162267839687195
0.8191593352883676
0.823069403714565
0.8289345063538612
0.833822091886608
0.8377321603128055
0.8426197458455523
0.8475073313782991
0.852394916911046
0.8582600195503421
0.8651026392961877
0.873900293255132
0.8856304985337243
0.8963831867057673
0.9051808406647116
0.9120234604105572
0.9178885630498532
0.9227761485826002
0.9266862170087976
0.9315738025415444
0.935483870967742
0.93841642228739
0.9403714565004888
0.9423264907135877
0.9452590420332356
0.9481915933528836
0.9589442815249268
0.9882697947214076
1.0449657869012707
1.1368523949169111
1.2668621700879763
1.4320625610948192
1.6236559139784943
1.828934506353861
2.034213098729228
2.242424242424242
2.403714565004888
2.5141739980449658
2.621700879765396
2.7262952101661777
2.807429130009776
2.8563049853372435
2.89345063538612
2.919843597262952
2.936461388074292
2.9423264907135875
2.940371456500489
2.932551319648094
2.9159335288367547
2.8885630498533725
2.8641251221896384
2.843597262952102
2.8181818181818183
2.7869012707722387
2.7497556207233624
2.705767350928641
2.6559139784946235
2.598240469208211
2.533724340175953
2.462365591397849
2.3841642228739004
2.3088954056695994
2.233626588465298
2.1495601173020527
2.042033235581622
1.945259042033236
1.8778103616813293
1.8093841642228736
1.7458455522971652
1.689149560117302
1.6412512218963833
1.595307917888563
1.5591397849462365
1.5386119257087
1.521016617790811
1.5034213098729228
1.4868035190615836
1.469208211143695
1.4506353861192571
1.4252199413489737
1.3958944281524928
1.375366568914956
1.359726295210166
1.3401759530791788
1.3186705767350928
1.2981427174975562
1.2825024437927663
1.2688172043010753
1.252199413489736
1.2346041055718475
1.2160312805474096
1.1915933528836755
1.1681329423264908
1.1515151515151516
1.133919843597263
1.1143695014662756
1.096774193548387
1.0840664711632453
1.0742913000977516
1.06158357771261
1.0449657869012707
1.0342130987292275
1.0263929618768328
1.0205278592375366
1.0156402737047898
1.0117302052785924
1.007820136852395
1.0048875855327468
1.0048875855327468
1.0048875855327468
1.0068426197458455
1.0087976539589445
1.0087976539589445
1.0068426197458455
1.0039100684261977
1.0019550342130987
1.0009775171065494
1.0019550342130987
1.0039100684261977
1.0048875855327468
1.0048875855327468
1.0039100684261977
1.0039100684261977
1.0048875855327468
1.0039100684261977
1.0009775171065494
0.9980449657869012
0.9941348973607038
0.9912023460410556
0.9882697947214076
0.9872922776148584
0.9843597262952102
0.9804496578690128
0.975562072336266
0.967741935483871
0.9628543499511242
0.959921798631476
0.956989247311828
0.9560117302052786
0.9638318670576737
0.989247311827957
1.0410557184750733
1.1231671554252198
1.238514173998045
1.4222873900293256
1.6451612903225807
1.844574780058651
2.005865102639296
2.1407624633431084
2.274682306940372
2.3958944281524928
2.498533724340176
2.582600195503421
2.6471163245356792
2.695014662756598
2.729227761485826
2.752688172043011
2.7653958944281527
2.76930596285435
2.763440860215054
2.750733137829912
2.7370478983382207
2.720430107526881
2.7008797653958942
2.678396871945259
2.6529814271749754
2.624633431085044
2.591397849462365
2.5532746823069403
2.5102639296187683
2.4613880742913
2.407624633431085
2.3548387096774195
2.3010752688172045
2.2375366568914954
2.167155425219941
2.0928641251221896
2.016617790811339
1.9403714565004888
1.866080156402737
1.7956989247311828
1.732160312805474
1.675464320625611
1.6256109481915937
1.5884652981427174
1.560117302052786
1.533724340175953
1.5102639296187683
1.490713587487781
1.474095796676442
1.4594330400782014
1.4467253176930597
1.434017595307918
1.4213098729227762
1.4066471163245358
1.391006842619746
1.3743890518084063
1.3616813294232648
1.3528836754643203
1.3421309872922775
1.3313782991202343
1.3225806451612905
1.313782991202346
1.3049853372434017
1.295210166177908
1.2854349951124144
1.2746823069403714
1.2639296187683284
1.2531769305962854
1.2453567937438903
1.2404692082111437
1.2355816226783969
1.23069403714565
1.2267839687194526
1.2228739002932552
1.219941348973607
1.2160312805474096
1.2130987292277615
1.209188660801564
1.206256109481916
1.2023460410557183
1.1994134897360704
1.198435972629521
1.198435972629521
1.1974584555229717
1.1945259042033236
1.1915933528836755
1.1886608015640274
1.1857282502443791
1.18475073313783
1.1837732160312806
1.1837732160312806
1.1827956989247312
1.181818181818182
1.1837732160312806
1.1867057673509287
1.1886608015640274
1.1896383186705768
1.1906158357771262
1.1915933528836755
1.1915933528836755
1.1935483870967742
1.1964809384164223
1.198435972629521
1.1994134897360704
1.2003910068426198
1.2003910068426198
1.2023460410557183
1.2052785923753666
1.2052785923753666
1.2043010752688172
1.2013685239491692
1.1964809384164223
1.1906158357771262
1.1886608015640274
1.195503421309873
1.2179863147605083
1.262952101661779
1.3362658846529814
1.4222873900293256
1.5249266862170088
1.6608015640273706
1.8162267839687196
1.9804496578690127
2.1407624633431084
2.290322580645161
2.4222873900293256
2.5317693059628543
2.619745845552297
2.687194525904203
2.736070381231672
2.76930596285435
2.7839687194525906
2.7859237536656893
2.782991202346041
2.7722385141739982
2.7565982404692084
2.73802541544477
2.716520039100684
2.69208211143695
2.664711632453568
2.6373411534701856
2.6070381231671558
2.572825024437928
2.536656891495601
2.495601173020528
2.4457478005865103
2.389051808406647
2.326490713587488
2.2580645161290325
2.1847507331378297
2.1094819159335287
2.0361681329423265
1.9667644183773216
1.903225806451613
1.8465298142717497
1.7976539589442817
1.7605083088954057
1.7311827956989247
1.7028347996089932
1.6774193548387095
1.6559139784946235
1.6363636363636365
1.6177908113391983
1.6011730205278591
1.585532746823069
1.5698924731182795
1.5542521994134897
1.5366568914956011
1.521016617790811
1.5063538611925709
1.4887585532746823
1.4701857282502444
1.452590420332356
1.4349951124144673
1.4173998044965788
1.3998044965786902
1.3822091886608017
1.364613880742913
1.3479960899315735
1.3333333333333333
1.3186705767350928
1.3079178885630498
1.2991202346041055
1.2883675464320623
1.2746823069403714
1.260019550342131
1.24633431085044
1.2346041055718475
1.2238514173998043
1.2130987292277615
1.2023460410557183
1.1915933528836755
1.181818181818182
1.1759530791788857
1.1720430107526882
1.1652003910068427
1.1573802541544478
1.1495601173020529
1.141739980449658
1.133919843597263
1.1280547409579669
1.1251221896383188
1.1221896383186705
1.1192570869990224
1.1173020527859236
1.1163245356793745
1.118279569892473
1.121212121212121
1.1231671554252198
1.1241446725317692
1.1241446725317692
1.1241446725317692
1.1241446725317692
1.1241446725317692
1.1241446725317692
1.1241446725317692
1.1241446725317692
1.1241446725317692
1.126099706744868
1.1280547409579669
1.1270772238514175
1.126099706744868
1.1231671554252198
1.118279569892473
1.1124144672531768
1.10752688172043
1.10752688172043
1.1202346041055715
1.1534701857282503
1.2140762463343109
1.3049853372434017
1.404692082111437
1.5180840664711632
1.6608015640273706
1.8191593352883677
1.9794721407624636
2.1309872922776147
2.2668621700879767
2.383186705767351
2.4789833822091887
2.555229716520039
2.613880742913001
2.6578690127077222
2.684261974584555
2.6989247311827955
2.7116324535679373
2.719452590420332
2.7223851417399803
2.720430107526881
2.7145650048875853
2.704789833822092
2.6911045943304006
2.674486803519061
2.654936461388074
2.632453567937439
2.6070381231671558
2.576735092864125
2.541544477028348
2.501466275659824
2.486803519061584
2.479960899315738
2.4408602150537635
2.3822091886608017
2.3118279569892475
2.233626588465298
2.15347018572825
2.072336265884653
1.994134897360704
1.927663734115347
1.8699902248289344
1.8142717497556209
1.7653958944281525
1.7223851417399805
1.686217008797654
1.6559139784946235
1.6304985337243405
1.6080156402737047
1.5865102639296187
1.565982404692082
1.5464320625610948
1.5317693059628543
1.520039100684262
1.5083088954056696
1.4965786901270772
1.4838709677419355
1.4701857282502444
1.455522971652004
1.4408602150537635
1.4252199413489737
1.409579667644184
1.392961876832845
1.375366568914956
1.356793743890518
1.3421309872922775
1.3284457478005864
1.3118279569892473
1.2971652003910068
1.2834799608993157
1.270772238514174
1.2590420332355816
1.2482893450635386
1.2375366568914956
1.2287390029325511
1.219941348973607
1.2111436950146628
1.206256109481916
1.2023460410557183
1.198435972629521
1.1964809384164223
1.195503421309873
1.1935483870967742
1.187683284457478
1.1808406647116323
1.173998044965787
1.1681329423264908
1.1652003910068427
1.164222873900293
1.163245356793744
1.166177908113392
1.1700879765395895
1.1720430107526882
1.1730205278592376
1.173998044965787
1.173998044965787
1.173998044965787
1.173998044965787
1.173998044965787
1.1730205278592376
1.1720430107526882
1.1691104594330402
1.1671554252199414
1.1652003910068427
1.160312805474096
1.1564027370478984
1.1544477028347997
1.1544477028347997
1.1544477028347997
1.1534701857282503
1.152492668621701
1.1534701857282503
1.1544477028347997
1.1622678396871946
1.1857282502443791
1.2218963831867058
1.2776148582600195
1.3665689149560116
1.4897360703812317
1.6441837732160314
1.823069403714565
2.013685239491691
2.204301075268817
2.3851417399804498
2.547409579667644
2.684261974584555
2.791788856304985
2.863147605083089
2.906158357771261
2.9393939393939394
2.960899315738025
2.970674486803519
2.9696969696969697
2.959921798631476
2.9442815249266863
2.9237536656891496
2.900293255131965
2.873900293255132
2.843597262952102
2.8103616813294234
2.777126099706745
2.739980449657869
2.697947214076246
2.652003910068426
2.60019550342131
2.541544477028348
2.474095796676442
2.40078201368524
2.3225806451612905
2.241446725317693
2.1593352883675463
2.080156402737048
2.0117302052785924
1.9501466275659824
1.8885630498533723
1.8318670576735088
1.782991202346041
1.7419354838709675
1.7067448680351909
1.678396871945259
1.653958944281525
1.6314760508308896
1.6109481915933528
1.590420332355816
1.5698924731182795
1.552297165200391
1.5366568914956011
1.5190615835777126
1.498533724340176
1.4760508308895406
1.452590420332356
1.4301075268817205
1.4066471163245358
1.380254154447703
1.3528836754643203
1.3264907135874875
1.303030303030303
1.2873900293255132
1.2756598240469208
1.2619745845552297
1.24633431085044
1.23069403714565
1.2150537634408602
1.198435972629521
1.1837732160312806
1.1710654936461389
1.160312805474096
1.1515151515151516
1.141739980449658
1.130987292277615
1.1231671554252198
1.1173020527859236
1.1094819159335287
1.1016617790811338
1.0948191593352885
1.0879765395894427
1.0821114369501466
1.0762463343108504
1.0703812316715542
1.064516129032258
1.0586510263929618
1.0527859237536656
1.050830889540567
1.0498533724340176
1.04594330400782
1.0420332355816226
1.0381231671554252
1.0342130987292275
1.0312805474095796
1.0303030303030305
1.029325513196481
1.029325513196481
1.029325513196481
1.029325513196481
1.029325513196481
1.0312805474095796
1.035190615835777
1.0371456500488758
1.0371456500488758
1.0361681329423265
1.0332355816226784
1.029325513196481
1.0224828934506354
1.0166177908113392
1.0156402737047898
1.0254154447702837
1.053763440860215
1.0977517106549364
1.164222873900293
1.2688172043010753
1.4086021505376345
1.576735092864125
1.7624633431085044
1.9530791788856303
2.1388074291300097
2.3088954056695994
2.455522971652004
2.576735092864125
2.675464320625611
2.742913000977517
2.788856304985337
2.8299120234604107
2.8641251221896384
2.8885630498533725
2.9042033235581624
2.911045943304008
2.913000977517106
2.909090909090909
2.9012707722385143
2.8905180840664717
2.875855327468231
2.8563049853372435
2.83088954056696
2.803519061583578
2.773216031280548
2.7390029325513194
2.7008797653958942
2.656891495601173
2.6050830889540566
2.5454545454545454
2.4780058651026398
2.4027370478983383
2.320625610948192
2.236559139784946
2.161290322580645
2.090909090909091
2.0175953079178885
1.946236559139785
1.878787878787879
1.8191593352883677
1.7673509286412512
1.7233626588465298
1.6871945259042034
1.656891495601173
1.6314760508308896
1.608993157380254
1.587487781036168
1.5708699902248289
1.5562072336265884
1.5405669599217986
1.525904203323558
1.5102639296187683
1.4946236559139785
1.47702834799609
1.457478005865103
1.435972629521017
1.41544477028348
1.396871945259042
1.3792766373411536
1.3665689149560116
1.3558162267839686
1.3421309872922775
1.3284457478005864
1.313782991202346
1.2981427174975562
1.2834799608993157
1.270772238514174
1.260019550342131
1.249266862170088
1.2394916911045943
1.23069403714565
1.2218963831867058
1.217008797653959
1.2130987292277615
1.2072336265884651
1.2003910068426198
1.1935483870967742
1.187683284457478
1.1827956989247312
1.1798631476050832
1.1788856304985338
1.1779081133919844
1.1779081133919844
1.1779081133919844
1.1798631476050832
1.1827956989247312
1.1837732160312806
1.1837732160312806
1.1798631476050832
1.1749755620723363
1.1710654936461389
1.1671554252199414
1.164222873900293
1.1622678396871946
1.163245356793744
1.1681329423264908
1.1749755620723363
1.1827956989247312
1.1915933528836755
1.2003910068426198
1.2072336265884651
1.2101661779081134
1.2121212121212122
1.2130987292277615
1.2121212121212122
1.209188660801564
1.2052785923753666
1.2043010752688172
1.2101661779081134
1.224828934506354
1.2551319648093842
1.310850439882698
1.3998044965786902
1.521994134897361
1.6735092864125125
1.8484848484848484
2.034213098729228
2.218963831867057
2.393939393939394
2.550342130987292
2.6823069403714563
2.789833822091887
2.86217008797654
2.90811339198436
2.945259042033236
2.972629521016618
2.989247311827957
2.9960899315738025
2.995112414467253
2.988269794721408
2.9745845552297165
2.956011730205278
2.935483870967742
2.9120234604105573
2.884652981427175
2.854349951124145
2.823069403714565
2.788856304985337
2.7497556207233624
2.702834799608993
2.649071358748778
2.587487781036168
2.5180840664711632
2.441837732160313
2.358748778103617
2.271749755620724
2.182795698924731
2.104594330400782
2.034213098729228
1.9608993157380252
1.8914956011730208
1.828934506353861
1.775171065493646
1.7302052785923754
1.6920821114369502
1.6588465298142718
1.6285434995112416
1.6001955034213098
1.573802541544477
1.5532746823069403
1.5347018572825024
1.5131964809384164
1.490713587487781
1.469208211143695
1.447702834799609
1.426197458455523
1.404692082111437
1.383186705767351
1.359726295210166
1.3362658846529814
1.3118279569892473
1.289345063538612
1.273704789833822
1.260019550342131
1.2424242424242424
1.2258064516129032
1.209188660801564
1.1925708699902249
1.1759530791788857
1.1612903225806452
1.147605083088954
1.1348973607038124
1.1221896383186705
1.1094819159335287
1.1016617790811338
1.0977517106549364
1.0928641251221896
1.0879765395894427
1.0821114369501466
1.075268817204301
1.067448680351906
1.0606060606060606
1.0527859237536656
1.04594330400782
1.0391006842619743
1.032258064516129
1.0263929618768328
1.024437927663734
1.0224828934506354
1.018572825024438
1.0146627565982405
1.010752688172043
1.007820136852395
1.0058651026392962
1.0048875855327468
1.0048875855327468
1.0048875855327468
1.0048875855327468
1.0048875855327468
1.007820136852395
1.0127077223851415
1.0156402737047898
1.0195503421309873
1.021505376344086
1.021505376344086
1.0195503421309873
1.013685239491691
1.0068426197458455
1.002932551319648
1.0068426197458455
1.0263929618768328
1.0694037145650048
1.1300097751710656
1.2150537634408602
1.3401759530791788
1.499511241446725
1.6813294232649072
1.873900293255132
2.064516129032258
2.243401759530792
2.403714565004888
2.541544477028348
2.6559139784946235
2.7468230694037143
2.8084066471163247
2.8514173998044967
2.8885630498533725
2.9159335288367547
2.935483870967742
2.946236559139785
2.9501466275659824
2.949169110459433
2.9423264907135875
2.9315738025415445
2.918866080156403
2.903225806451613
2.8826979472140764
2.8563049853372435
2.827956989247312
2.795698924731183
2.7565982404692084
2.710654936461388
2.656891495601173
2.595307917888563
2.5268817204301075
2.4516129032258065
2.3704789833822093
2.2873900293255134
2.2023460410557183
2.1270772238514173
2.0576735092864125
1.9824046920821117
1.90811339198436
1.839687194525904
1.7781036168132942
1.726295210166178
1.6842619745845553
1.6490713587487782
1.6177908113391983
1.5913978494623655
1.5679374389051808
1.5493646138807429
1.5356793743890518
1.520039100684262
1.5053763440860215
1.490713587487781
1.4750733137829912
1.4594330400782014
1.4418377321603129
1.4252199413489737
1.409579667644184
1.393939393939394
1.3782991202346042
1.364613880742913
1.35386119257087
1.3440860215053765
1.3313782991202343
1.3157380254154447
1.2991202346041055
1.2854349951124144
1.273704789833822
1.2639296187683284
1.2551319648093842
1.24633431085044
1.238514173998045
1.2297165200391007
1.2258064516129032
1.2238514173998043
1.219941348973607
1.2160312805474096
1.2130987292277615
1.2111436950146628
1.209188660801564
1.206256109481916
1.2043010752688172
1.203323558162268
1.2023460410557183
1.2023460410557183
1.2023460410557183
1.2043010752688172
1.2082111436950147
1.2111436950146628
1.2121212121212122
1.2130987292277615
1.2150537634408602
1.2150537634408602
1.2140762463343109
1.2140762463343109
1.2209188660801564
1.2424242424242424
1.2854349951124144
1.343108504398827
1.4193548387096775
1.5317693059628543
1.675464320625611
1.8406647116324533
2.0175953079178885
2.193548387096774
2.357771260997068
2.5024437927663734
2.624633431085044
2.7223851417399803
2.7966764418377323
2.849462365591398
2.8797653958944283
2.895405669599218
2.9042033235581624
2.9042033235581624
2.898338220918866
2.887585532746823
2.870967741935484
2.849462365591398
2.8240469208211145
2.795698924731183
2.763440860215054
2.727272727272727
2.689149560117302
2.650048875855328
2.606060606060606
2.555229716520039
2.496578690127077
2.43108504398827
2.358748778103617
2.280547409579668
2.198435972629521
2.115347018572825
2.035190615835777
1.9589442815249267
1.8885630498533723
1.8318670576735088
1.7859237536656891
1.7419354838709675
1.7028347996089932
1.6705767350928642
1.6441837732160314
1.6207233626588464
1.5992179863147604
1.5786901270772238
1.5591397849462365
1.5386119257087
1.5161290322580645
1.4965786901270772
1.478983382209189
1.457478005865103
1.4349951124144673
1.412512218963832
1.3890518084066472
1.364613880742913
1.3421309872922775
1.3206256109481915
1.3010752688172045
1.2834799608993157
1.2658846529814272
1.249266862170088
1.2365591397849462
1.2267839687194526
1.2140762463343109
1.2013685239491692
1.1867057673509287
1.1730205278592376
1.1612903225806452
1.1485826001955035
1.1378299120234605
1.1280547409579669
1.1202346041055715
1.1124144672531768
1.10752688172043
1.104594330400782
1.099706744868035
1.0928641251221896
1.086021505376344
1.0811339198435972
1.0762463343108504
1.0713587487781036
1.0664711632453567
1.0596285434995112
1.053763440860215
1.0469208211143697
1.040078201368524
1.0361681329423265
1.035190615835777
1.0332355816226784
1.0303030303030305
1.0273704789833822
1.0254154447702837
1.0234604105571847
1.0205278592375366
1.018572825024438
1.0175953079178883
1.0166177908113392
1.0166177908113392
1.018572825024438
1.021505376344086
1.0234604105571847
1.024437927663734
1.024437927663734
1.024437927663734
1.024437927663734
1.024437927663734
1.024437927663734
1.024437927663734
1.024437927663734
1.024437927663734
1.024437927663734
1.0263929618768328
1.0273704789833822
1.0263929618768328
1.0273704789833822
1.0371456500488758
1.064516129032258
1.1202346041055715
1.2121212121212122
1.343108504398827
1.509286412512219
1.7028347996089932
1.911045943304008
2.0948191593352883
2.259042033235582
2.4301075268817205
2.589442815249267
2.729227761485826
2.84652981427175
2.940371456500489
3.0117302052785924
3.064516129032258
3.102639296187683
3.1300097751710654
3.1485826001955037
3.158357771260997
3.157380254154448
3.1495601173020527
3.1417399804496577
3.1300097751710654
3.115347018572825
3.0957966764418376
3.070381231671554
3.0410557184750733
3.006842619745845
2.9667644183773216
2.920821114369501
2.868035190615836
2.8132942326490715
2.7536656891495603
2.684261974584555
2.606060606060606
2.5210166177908118
2.4301075268817205
2.335288367546432
2.242424242424242
2.15347018572825
2.070381231671554
1.9951124144672527
1.9286412512218964
1.8758553274682308
1.8347996089931573
1.796676441837732
1.761485826001955
1.729227761485826
1.7008797653958945
1.6764418377321604
1.653958944281525
1.632453567937439
1.6109481915933528
1.590420332355816
1.5698924731182795
1.5503421309872922
1.5356793743890518
1.52297165200391
1.5083088954056696
1.4926686217008798
1.47702834799609
1.4613880742913
1.444770283479961
1.4271749755620724
1.4086021505376345
1.3890518084066472
1.370478983382209
1.3528836754643203
1.3391984359726294
1.327468230694037
1.313782991202346
1.2991202346041055
1.2864125122189638
1.2756598240469208
1.2668621700879763
1.260019550342131
1.2570869990224829
1.2551319648093842
1.2541544477028348
1.2541544477028348
1.2541544477028348
1.2561094819159335
1.2590420332355816
1.260019550342131
1.2609970674486803
1.2609970674486803
1.2609970674486803
1.2609970674486803
1.2609970674486803
1.2609970674486803
1.2609970674486803
1.2609970674486803
1.2609970674486803
1.262952101661779
1.2658846529814272
1.267839687194526
1.2688172043010753
1.2688172043010753
1.2688172043010753
1.2688172043010753
1.2688172043010753
1.2668621700879763
1.2639296187683284
1.262952101661779
1.2619745845552297
1.2619745845552297
1.2639296187683284
1.2668621700879763
1.2658846529814272
1.2619745845552297
1.2580645161290325
1.2590420332355816
1.270772238514174
1.3020527859237536
1.3607038123167154
1.4506353861192571
1.5747800586510263
1.7282502443792769
1.8778103616813293
2.026392961876833
2.20039100684262
2.378299120234604
2.5454545454545454
2.6930596285435
2.8181818181818183
2.918866080156403
2.9960899315738025
3.0527859237536656
3.09188660801564
3.075268817204301
3.026392961876833
2.994134897360704
2.9687194525904204
2.948191593352884
2.9286412512218964
2.90811339198436
2.886608015640274
2.86217008797654
2.833822091886608
2.8025415444770285
2.768328445747801
2.7282502443792764
2.6823069403714563
2.634408602150537
2.5835777126099706
2.5239491691104594
2.4565004887585533
2.3812316715542523
2.302052785923754
2.218963831867057
2.132942326490713
2.046920821114369
1.962854349951124
1.8836754643206255
1.8132942326490715
1.750733137829912
1.7018572825024438
1.66177908113392
1.6256109481915937
1.5933528836754642
1.5650048875855327
1.5386119257087
1.5131964809384164
1.490713587487781
1.4682306940371457
1.444770283479961
1.4222873900293256
1.3998044965786902
1.3812316715542523
1.3665689149560116
1.348973607038123
1.3284457478005864
