ppg
1.3264907135874875
1.3176930596285434
1.313782991202346
1.3225806451612905
1.356793743890518
1.4086021505376345
1.487781036168133
1.6158357771260996
1.7849462365591398
1.9794721407624636
2.1788856304985336
2.3626588465298144
2.5102639296187683
2.611925708699902
2.662756598240469
2.6666666666666665
2.6295210166177907
2.572825024437928
2.501466275659824
2.386119257086999
2.275659824046921
2.1945259042033234
2.103616813294233
2.0117302052785924
1.9227761485826005
1.839687194525904
1.7644183773216031
1.6911045943304008
1.6334310850439884
1.5972629521016617
1.56891495601173
1.541544477028348
1.517106549364614
1.501466275659824
1.487781036168133
1.4750733137829912
1.4652981427174976
1.4613880742913
1.4633431085043989
1.474095796676442
1.5053763440860215
1.5464320625610948
1.58455522971652
1.6285434995112416
1.6744868035190617
1.7194525904203324
1.7526881720430108
1.7820136852394917
1.8113391984359728
1.8269794721407624
1.8328445747800584
1.827956989247312
1.8132942326490715
1.7888563049853372
1.7634408602150538
1.7360703812316716
1.7018572825024438
1.6637341153470186
1.6236559139784943
1.5835777126099706
1.543499511241447
1.5053763440860215
1.469208211143695
1.4349951124144673
1.4027370478983383
1.3734115347018572
1.3499511241446724
1.3304007820136852
1.3098729227761483
1.2903225806451613
1.2717497556207231
1.2561094819159335
1.2424242424242424
1.2326490713587488
1.2258064516129032
1.2209188660801564
1.2179863147605083
1.2179863147605083
1.2189638318670577
1.2218963831867058
1.2267839687194526
1.2316715542521994
1.2375366568914956
1.2453567937438903
1.2551319648093842
1.2668621700879763
1.2795698924731185
1.2932551319648091
1.3069403714565004
1.3196480938416422
1.3313782991202343
1.343108504398827
1.3528836754643203
1.3616813294232648
1.367546432062561
1.3685239491691104
1.3626588465298142
1.3528836754643203
1.3440860215053765
1.3440860215053765
1.364613880742913
1.41544477028348
1.5083088954056696
1.6451612903225807
1.7917888563049853
1.9501466275659824
2.139784946236559
2.329423264907136
2.495601173020528
2.6207233626588464
2.695014662756598
2.719452590420332
2.6989247311827955
2.643206256109482
2.563049853372434
2.4672531769305963
2.3743890518084068
2.2844574780058653
2.1867057673509285
2.0869990224828934
1.989247311827957
1.8973607038123168
1.8142717497556209
1.7419354838709675
1.6793743890518085
1.6265884652981428
1.5835777126099706
1.5493646138807429
1.52297165200391
1.504398826979472
1.4916911045943304
1.4809384164222874
1.4731182795698925
1.4682306940371457
1.4701857282502444
1.479960899315738
1.499511241446725
1.5278592375366569
1.565982404692082
1.611925708699902
1.6637341153470186
1.710654936461388
1.75366568914956
1.7996089931573802
1.842619745845552
1.8797653958944285
1.9071358748778104
1.9227761485826005
1.9266862170087975
1.919843597262952
1.902248289345064
1.8748778103616808
1.839687194525904
1.8035190615835777
1.7663734115347018
1.7243401759530792
1.6803519061583578
1.6373411534701858
1.5943304007820136
1.552297165200391
1.512218963831867
1.4750733137829912
1.4408602150537635
1.4105571847507332
1.383186705767351
1.3577712609970674
1.33822091886608
1.3225806451612905
1.3079178885630498
1.295210166177908
1.2834799608993157
1.2746823069403714
1.2688172043010753
1.2658846529814272
1.2639296187683284
1.2639296187683284
1.2658846529814272
1.2697947214076246
1.2756598240469208
1.2834799608993157
1.2932551319648091
1.303030303030303
1.3118279569892473
1.321603128054741
1.332355816226784
1.3421309872922775
1.3528836754643203
1.3636363636363635
1.3734115347018572
1.3822091886608017
1.3900293255131966
1.3949169110459434
1.3958944281524928
1.3900293255131966
1.380254154447703
1.3734115347018572
1.3782991202346042
1.4076246334310851
1.4731182795698925
1.5806451612903225
1.729227761485826
1.9100684261974583
2.104594330400782
2.270772238514174
2.406647116324536
2.5288367546432062
2.6148582600195502
2.6559139784946235
2.653958944281525
2.613880742913001
2.5454545454545454
2.458455522971652
2.360703812316716
2.2580645161290325
2.1544477028347995
2.053763440860215
1.967741935483871
1.8914956011730208
1.8162267839687196
1.7458455522971652
1.683284457478006
1.6304985337243405
1.5865102639296187
1.5503421309872922
1.521994134897361
1.498533724340176
1.478983382209189
1.4633431085043989
1.452590420332356
1.4467253176930597
1.4437927663734116
1.4467253176930597
1.457478005865103
1.478005865102639
1.5083088954056696
1.5464320625610948
1.590420332355816
1.6373411534701858
1.6842619745845553
1.7282502443792769
1.7663734115347018
1.7947214076246334
1.81524926686217
1.828934506353861
1.8328445747800584
1.8269794721407624
1.8113391984359728
1.7859237536656891
1.75366568914956
1.7135874877810362
1.6686217008797657
1.6236559139784943
1.5786901270772238
1.5405669599217986
1.5053763440860215
1.4682306940371457
1.43108504398827
1.396871945259042
1.3626588465298142
1.3304007820136852
1.3010752688172045
1.2746823069403714
1.2512218963831867
1.2297165200391007
1.2121212121212122
1.1974584555229717
1.1886608015640274
1.1837732160312806
1.1788856304985338
1.1749755620723363
1.1720430107526882
1.1700879765395895
1.1691104594330402
1.1710654936461389
1.1759530791788857
1.1827956989247312
1.1915933528836755
1.2013685239491692
1.2130987292277615
1.224828934506354
1.2375366568914956
1.2512218963831867
1.2658846529814272
1.278592375366569
1.289345063538612
1.2991202346041055
1.3079178885630498
1.313782991202346
1.3147605083088951
1.310850439882698
1.303030303030303
1.2961876832844574
1.2932551319648091
1.2971652003910068
1.321603128054741
1.3782991202346042
1.47702834799609
1.6217008797653958
1.8054740957966764
2.0117302052785924
2.219941348973607
2.4086021505376345
2.558162267839687
2.6529814271749754
2.6989247311827955
2.70772238514174
2.679374389051808
2.619745845552297
2.536656891495601
2.4389051808406648
2.333333333333333
2.2267839687194524
2.1221896383186705
2.021505376344086
1.9266862170087975
1.8406647116324533
1.7712609970674489
1.7135874877810362
1.6588465298142718
1.6129032258064515
1.5757575757575757
1.5464320625610948
1.52297165200391
1.5034213098729228
1.4868035190615836
1.4731182795698925
1.4633431085043989
1.458455522971652
1.4594330400782014
1.466275659824047
1.4819159335288368
1.5073313782991202
1.542521994134897
1.5865102639296187
1.6344086021505375
1.6823069403714566
1.729227761485826
1.772238514173998
1.8084066471163245
1.835777126099707
1.8523949169110456
1.858260019550342
1.855327468230694
1.8435972629521016
1.8240469208211143
1.796676441837732
1.7644183773216031
1.7282502443792769
1.6881720430107527
1.64613880742913
1.6050830889540566
1.5650048875855327
1.5268817204301075
1.4946236559139785
1.4672531769305963
1.4379276637341154
1.4086021505376345
1.3812316715542523
1.35386119257087
1.3284457478005864
1.305962854349951
1.2864125122189638
1.2697947214076246
1.2561094819159335
1.2443792766373412
1.2355816226783969
1.23069403714565
1.2287390029325511
1.227761485826002
1.227761485826002
1.227761485826002
1.2287390029325511
1.2326490713587488
1.2375366568914956
1.2453567937438903
1.2551319648093842
1.2668621700879763
1.2805474095796676
1.2932551319648091
1.3049853372434017
1.316715542521994
1.327468230694037
1.3372434017595307
1.3470185728250244
1.3558162267839686
1.3616813294232648
1.3626588465298142
1.359726295210166
1.35386119257087
1.3519061583577712
1.3587487781036167
1.383186705767351
1.4418377321603129
1.542521994134897
1.689149560117302
1.8758553274682308
2.0879765395894427
2.303030303030303
2.498533724340176
2.654936461388074
2.758553274682307
2.806451612903226
2.803519061583578
2.766373411534702
2.701857282502444
2.611925708699902
2.506353861192571
2.3929618768328447
2.27761485826002
2.1652003910068425
2.056695992179863
1.9550342130987293
1.8621700879765395
1.7781036168132942
1.704789833822092
1.6480938416422288
1.6041055718475072
1.5650048875855327
1.530791788856305
1.5024437927663734
1.478983382209189
1.4604105571847508
1.4467253176930597
1.4379276637341154
1.436950146627566
1.4457478005865103
1.4652981427174976
1.4965786901270772
1.5298142717497556
1.5679374389051808
1.6177908113391983
1.672531769305963
1.7282502443792769
1.7810361681329423
1.8269794721407624
1.8631476050830889
1.8875855327468232
1.900293255131965
1.900293255131965
1.8885630498533723
1.8699902248289344
1.8455522971652003
1.8103616813294232
1.7683284457478006
1.7223851417399805
1.6735092864125125
1.6226783968719452
1.573802541544477
1.5268817204301075
1.4819159335288368
1.439882697947214
1.3998044965786902
1.3616813294232648
1.3313782991202343
1.3069403714565004
1.281524926686217
1.2580645161290325
1.2365591397849462
1.2179863147605083
1.203323558162268
1.1915933528836755
1.181818181818182
1.173998044965787
1.1681329423264908
1.1652003910068427
1.1671554252199414
1.1710654936461389
1.1759530791788857
1.1827956989247312
1.1906158357771262
1.198435972629521
1.2082111436950147
1.2189638318670577
1.23069403714565
1.2424242424242424
1.2541544477028348
1.2658846529814272
1.2766373411534702
1.2864125122189638
1.2961876832844574
1.3049853372434017
1.3128054740957966
1.316715542521994
1.3147605083088951
1.3069403714565004
1.2961876832844574
1.2883675464320623
1.2913000977517106
1.3196480938416422
1.383186705767351
1.4672531769305963
1.5796676441837731
1.7448680351906158
1.9442815249266865
2.155425219941349
2.35386119257087
2.517106549364614
2.632453567937439
2.695014662756598
2.705767350928641
2.6725317693059627
2.6070381231671558
2.5210166177908118
2.432062561094819
2.3421309872922778
2.2355816226783967
2.1251221896383186
2.022482893450636
1.927663734115347
1.8406647116324533
1.7644183773216031
1.6989247311827955
1.6451612903225807
1.6011730205278591
1.565982404692082
1.5395894428152492
1.520039100684262
1.5024437927663734
1.487781036168133
1.4750733137829912
1.4643206256109482
1.457478005865103
1.458455522971652
1.4672531769305963
1.4838709677419355
1.509286412512219
1.542521994134897
1.5826001955034212
1.6207233626588464
1.656891495601173
1.6959921798631477
1.7331378299120237
1.7673509286412512
1.7947214076246334
1.8142717497556209
1.823069403714565
1.822091886608016
1.8113391984359728
1.790811339198436
1.761485826001955
1.7311827956989247
1.699902248289345
1.6637341153470186
1.6236559139784943
1.5826001955034212
1.541544477028348
1.5024437927663734
1.4652981427174976
1.4301075268817205
1.3978494623655917
1.3685239491691104
1.3411534701857282
1.3176930596285434
1.3010752688172045
1.2883675464320623
1.273704789833822
1.2590420332355816
1.24633431085044
1.2355816226783969
1.227761485826002
1.2228739002932552
1.2189638318670577
1.217008797653959
1.217008797653959
1.2189638318670577
1.2238514173998043
1.23069403714565
1.238514173998045
1.2482893450635386
1.2590420332355816
1.270772238514174
1.2834799608993157
1.2961876832844574
1.3079178885630498
1.3186705767350928
1.3284457478005864
1.33822091886608
1.3470185728250244
1.3558162267839686
1.3626588465298142
1.3665689149560116
1.364613880742913
1.3577712609970674
1.348973607038123
1.3470185728250244
1.3607038123167154
1.4037145650048877
1.4868035190615836
1.6138807429130009
1.7810361681329423
1.9472140762463344
2.110459433040078
2.290322580645161
2.4565004887585533
2.587487781036168
2.6715542521994133
2.704789833822092
2.69208211143695
2.643206256109482
2.5669599217986314
2.474095796676442
2.3704789833822093
2.2737047898338223
2.1818181818181817
2.0840664711632453
1.988269794721408
1.8973607038123168
1.8142717497556209
1.7419354838709675
1.6793743890518085
1.6285434995112416
1.587487781036168
1.5542521994134897
1.5278592375366569
1.5073313782991202
1.4936461388074291
1.4838709677419355
1.4760508308895406
1.4711632453567938
1.4731182795698925
1.4819159335288368
1.499511241446725
1.5268817204301075
1.563049853372434
1.6080156402737047
1.6588465298142718
1.7135874877810362
1.7605083088954057
1.801564027370479
1.842619745845552
1.878787878787879
1.905180840664712
1.9188660801564028
1.9227761485826005
1.9159335288367547
1.8983382209188664
1.871945259042033
1.8387096774193548
1.7986314760508308
1.7546432062561097
1.7145650048875856
1.675464320625611
1.6344086021505375
1.5923753665689149
1.5503421309872922
1.5102639296187683
1.4731182795698925
1.4389051808406648
1.4056695992179864
1.3743890518084063
1.346041055718475
1.321603128054741
1.303030303030303
1.2903225806451613
1.2776148582600195
1.2658846529814272
1.2561094819159335
1.249266862170088
1.2443792766373412
1.241446725317693
1.2404692082111437
1.241446725317693
1.2443792766373412
1.249266862170088
1.2570869990224829
1.2658846529814272
1.2766373411534702
1.2883675464320623
1.2991202346041055
1.310850439882698
1.321603128054741
1.3313782991202343
1.3411534701857282
1.3499511241446724
1.356793743890518
1.3616813294232648
1.3626588465298142
1.3616813294232648
1.3577712609970674
1.3479960899315735
1.3391984359726294
1.3391984359726294
1.3587487781036167
1.4105571847507332
1.5024437927663734
1.6392961876832846
1.8142717497556209
2.0097751710654936
2.2052785923753664
2.380254154447703
2.50733137829912
2.5865102639296187
2.632453567937439
2.638318670576735
2.606060606060606
2.5434995112414467
2.4594330400782014
2.3626588465298144
2.260019550342131
2.157380254154448
2.056695992179863
1.9618768328445748
1.881720430107527
1.812316715542522
1.7438905180840665
1.6803519061583578
1.6256109481915937
1.5786901270772238
1.5395894428152492
1.5073313782991202
1.4819159335288368
1.4613880742913
1.444770283479961
1.4320625610948192
1.4242424242424243
1.4222873900293256
1.426197458455523
1.4379276637341154
1.458455522971652
1.487781036168133
1.5249266862170088
1.5679374389051808
1.6138807429130009
1.6608015640273706
1.7057673509286413
1.7458455522971652
1.7790811339198436
1.801564027370479
1.8132942326490715
1.8162267839687196
1.8103616813294232
1.7947214076246334
1.76930596285435
1.737047898338221
1.7008797653958945
1.6608015640273706
1.619745845552297
1.5786901270772238
1.5395894428152492
1.500488758553275
1.4672531769305963
1.4389051808406648
1.4086021505376345
1.3782991202346042
1.3479960899315735
1.3196480938416422
1.2942326490713587
1.2717497556207231
1.252199413489736
1.2355816226783969
1.2218963831867058
1.2111436950146628
1.2043010752688172
1.2003910068426198
1.1974584555229717
1.195503421309873
1.195503421309873
1.1964809384164223
1.1994134897360704
1.2052785923753666
1.2130987292277615
1.219941348973607
1.2267839687194526
1.2355816226783969
1.2453567937438903
1.2561094819159335
1.267839687194526
1.2795698924731185
1.2913000977517106
1.3020527859237536
1.3118279569892473
1.3206256109481915
1.3284457478005864
1.332355816226784
1.3313782991202343
1.324535679374389
1.3147605083088951
1.3079178885630498
1.3069403714565004
1.3196480938416422
1.3577712609970674
1.4349951124144673
1.5571847507331378
1.7233626588465298
1.9227761485826005
2.1358748778103616
2.3391984359726297
2.512218963831867
2.638318670576735
2.710654936461388
2.735092864125122
2.720430107526881
2.6715542521994133
2.5972629521016617
2.505376344086021
2.401759530791789
2.294232649071359
2.185728250244379
2.081133919843597
1.9833822091886608
1.8934506353861196
1.8113391984359728
1.7468230694037146
1.694037145650049
1.6471163245356797
1.6080156402737047
1.5757575757575757
1.5503421309872922
1.5298142717497556
1.5131964809384164
1.499511241446725
1.4887585532746823
1.482893450635386
1.4838709677419355
1.4916911045943304
1.5034213098729228
1.521994134897361
1.5513196480938416
1.590420332355816
1.6363636363636365
1.6871945259042034
1.737047898338221
1.7839687194525904
1.825024437927664
1.857282502443793
1.8797653958944285
1.8905180840664717
1.8914956011730208
1.8836754643206255
1.8670576735092863
1.8435972629521016
1.8132942326490715
1.7781036168132942
1.7390029325513197
1.696969696969697
1.6529814271749756
1.6080156402737047
1.564027370478983
1.52297165200391
1.4897360703812317
1.4604105571847508
1.4301075268817205
1.401759530791789
1.375366568914956
1.3509286412512218
1.3294232649071358
1.310850439882698
1.295210166177908
1.281524926686217
1.2688172043010753
1.2590420332355816
1.2512218963831867
1.2473118279569892
1.2473118279569892
1.2473118279569892
1.2482893450635386
1.252199413489736
1.2570869990224829
1.2649071358748778
1.2746823069403714
1.2864125122189638
1.2991202346041055
1.3128054740957966
1.327468230694037
1.3411534701857282
1.3548387096774193
1.3685239491691104
1.3822091886608017
1.3949169110459434
1.4066471163245358
1.41544477028348
1.4193548387096775
1.418377321603128
1.412512218963832
1.4066471163245358
1.4066471163245358
1.4252199413489737
1.4604105571847508
1.521994134897361
1.6304985337243405
1.7839687194525904
1.9716520039100685
2.175953079178885
2.375366568914956
2.547409579667644
2.67644183773216
2.752688172043011
2.7751710654936463
2.750733137829912
2.6989247311827955
2.627565982404692
2.5347018572825024
2.4281524926686218
2.3167155425219943
2.2052785923753664
2.096774193548387
1.994134897360704
1.8993157380254155
1.812316715542522
1.7341153470185728
1.667644183773216
1.6099706744868034
1.565982404692082
1.5327468230694037
1.5024437927663734
1.4760508308895406
1.455522971652004
1.439882697947214
1.4301075268817205
1.4271749755620724
1.4330400782013686
1.4486803519061584
1.4750733137829912
1.5102639296187683
1.5454545454545454
1.58455522971652
1.6344086021505375
1.6871945259042034
1.7390029325513197
1.7869012707722385
1.8269794721407624
1.855327468230694
1.871945259042033
1.8758553274682308
1.868035190615836
1.8504398826979471
1.8240469208211143
1.7956989247311828
1.7653958944281525
1.7282502443792769
1.686217008797654
1.6412512218963833
1.595307917888563
1.5503421309872922
1.5053763440860215
1.4633431085043989
1.4242424242424243
1.3890518084066472
1.356793743890518
1.332355816226784
1.3128054740957966
1.2913000977517106
1.2697947214076246
1.249266862170088
1.2326490713587488
1.219941348973607
1.2101661779081134
1.2023460410557183
1.1974584555229717
1.1935483870967742
1.1915933528836755
1.1915933528836755
1.1945259042033236
1.2003910068426198
1.206256109481916
1.2130987292277615
1.219941348973607
1.227761485826002
1.2375366568914956
1.2482893450635386
1.2590420332355816
1.270772238514174
1.2825024437927663
1.2942326490713587
1.3049853372434017
1.3147605083088951
1.3235581622678396
1.3294232649071358
1.332355816226784
1.3313782991202343
1.324535679374389
1.3157380254154447
1.3088954056695992
1.3128054740957966
1.3401759530791788
1.401759530791789
1.5063538611925709
1.6265884652981428
1.7702834799608993
1.9560117302052784
2.157380254154448
2.3489736070381237
2.5083088954056696
2.621700879765396
2.684261974584555
2.695014662756598
2.662756598240469
2.598240469208211
2.5131964809384164
2.426197458455523
2.3382209188660803
2.239491691104594
2.136852394916911
2.0361681329423265
1.9403714565004888
1.8523949169110456
1.7732160312805474
1.7057673509286413
1.651026392961877
1.607038123167155
1.5728250244379276
1.5464320625610948
1.5288367546432062
1.5141739980449658
1.501466275659824
1.4916911045943304
1.4838709677419355
1.478983382209189
1.479960899315738
1.4887585532746823
1.5053763440860215
1.5317693059628543
1.565982404692082
1.607038123167155
1.64613880742913
1.683284457478006
1.7223851417399805
1.758553274682307
1.7878787878787878
1.8103616813294232
1.8240469208211143
1.8269794721407624
1.8211143695014664
1.804496578690127
1.7790811339198436
1.7468230694037146
1.710654936461388
1.6774193548387095
1.6451612903225807
1.6099706744868034
1.5728250244379276
1.5347018572825024
1.4975562072336266
1.4613880742913
1.4271749755620724
1.3949169110459434
1.3665689149560116
1.3401759530791788
1.3157380254154447
1.2971652003910068
1.2834799608993157
1.267839687194526
1.252199413489736
1.238514173998045
1.2287390029325511
1.2228739002932552
1.2209188660801564
1.2209188660801564
1.2209188660801564
1.2209188660801564
1.2238514173998043
1.227761485826002
1.2336265884652982
1.2404692082111437
1.249266862170088
1.2590420332355816
1.2697947214076246
1.281524926686217
1.2932551319648091
1.3040078201368523
1.313782991202346
1.3255131964809383
1.3372434017595307
1.3470185728250244
1.356793743890518
1.364613880742913
1.367546432062561
1.364613880742913
1.356793743890518
1.346041055718475
1.3401759530791788
1.348973607038123
1.3841642228739004
1.456500488758553
1.5728250244379276
1.7341153470185728
1.8983382209188664
2.065493646138808
2.2561094819159337
2.4379276637341154
2.5855327468230693
2.686217008797654
2.7341153470185726
2.732160312805474
2.689149560117302
2.6158357771261
2.5219941348973607
2.4164222873900294
2.3059628543499517
2.207233626588465
2.1163245356793743
2.021505376344086
1.9296187683284456
1.844574780058651
1.76930596285435
1.7038123167155426
1.6490713587487782
1.603128054740958
1.5669599217986314
1.5376344086021505
1.5151515151515151
1.501466275659824
1.4926686217008798
1.4868035190615836
1.4848484848484849
1.4868035190615836
1.495601173020528
1.512218963831867
1.5386119257087
1.573802541544477
1.6177908113391983
1.6686217008797657
1.7233626588465298
1.7781036168132942
1.822091886608016
1.858260019550342
1.8934506353861196
1.920821114369501
1.9374389051808407
1.9413489736070384
1.9335288367546437
1.9159335288367547
1.8885630498533723
1.8533724340175952
1.8132942326490715
1.76930596285435
1.7282502443792769
1.689149560117302
1.6471163245356797
1.603128054740958
1.560117302052786
1.5190615835777126
1.4809384164222874
1.4457478005865103
1.414467253176931
1.3861192570869991
1.359726295210166
1.3362658846529814
1.316715542521994
1.303030303030303
1.2932551319648091
1.2834799608993157
1.2746823069403714
1.267839687194526
1.2619745845552297
1.2580645161290325
1.2561094819159335
1.2570869990224829
1.260019550342131
1.2649071358748778
1.2727272727272727
1.2825024437927663
1.2932551319648091
1.3049853372434017
1.3157380254154447
1.324535679374389
1.3343108504398826
1.3450635386119256
1.3558162267839686
1.3655913978494625
1.3743890518084063
1.380254154447703
1.3812316715542523
1.3773216031280548
1.3714565004887584
1.3636363636363635
1.35386119257087
1.3519061583577712
1.3685239491691104
1.41544477028348
1.5034213098729228
1.635386119257087
1.8074291300097751
2.003910068426197
2.203323558162268
2.3851417399804498
2.5180840664711632
2.6041055718475072
2.656891495601173
2.668621700879765
2.6392961876832843
2.5777126099706744
2.493646138807429
2.3958944281524928
2.291300097751711
2.185728250244379
2.083088954056696
1.9853372434017595
1.8944281524926687
1.8201368523949168
1.7575757575757576
1.6959921798631477
1.6422287390029326
1.5962854349951123
1.5571847507331378
1.525904203323558
1.500488758553275
1.479960899315738
1.4633431085043989
1.4506353861192571
1.4418377321603129
1.4379276637341154
1.439882697947214
1.447702834799609
1.4643206256109482
1.4897360703812317
1.5239491691104594
1.565982404692082
1.611925708699902
1.6588465298142718
1.7038123167155426
1.7429130009775171
1.7741935483870968
1.7976539589442817
1.8103616813294232
1.8142717497556209
1.8093841642228736
1.7956989247311828
1.7741935483870968
1.7448680351906158
1.7096774193548387
1.6705767350928642
1.629521016617791
1.587487781036168
1.5454545454545454
1.504398826979472
1.4701857282502444
1.4418377321603129
1.4115347018572826
1.380254154447703
1.3509286412512218
1.324535679374389
1.300097751710655
1.278592375366569
1.2590420332355816
1.241446725317693
1.2267839687194526
1.2140762463343109
1.2043010752688172
1.1994134897360704
1.1974584555229717
1.195503421309873
1.195503421309873
1.1964809384164223
1.198435972629521
1.2023460410557183
1.209188660801564
1.217008797653959
1.2258064516129032
1.2355816226783969
