ppg
1.029325513196481
1.0488758553274682
1.0850439882697946
1.141739980449658
1.2189638318670577
1.3147605083088951
1.4281524926686218
1.5532746823069403
1.683284457478006
1.7976539589442817
1.9012707722385145
2.010752688172043
2.117302052785924
2.2170087976539588
2.3069403714565007
2.3851417399804498
2.4516129032258065
2.5083088954056696
2.557184750733138
2.60019550342131
2.6373411534701856
2.662756598240469
2.6823069403714563
2.705767350928641
2.7282502443792764
2.7497556207233624
2.76930596285435
2.7859237536656893
2.7996089931573804
2.809384164222874
2.814271749755621
2.8132942326490715
2.8054740957966766
2.789833822091887
2.7673509286412514
2.7390029325513194
2.7038123167155423
2.6608015640273703
2.608993157380254
2.549364613880743
2.482893450635386
2.4134897360703813
2.3411534701857284
2.2688172043010755
2.20039100684262
2.134897360703812
2.0791788856304985
2.03128054740958
1.9853372434017595
1.9423264907135875
1.902248289345064
1.865102639296188
1.83088954056696
1.7986314760508308
1.7663734115347018
1.7350928641251222
1.7057673509286413
1.6764418377321604
1.64613880742913
1.6207233626588464
1.5972629521016617
1.5698924731182795
1.5405669599217986
1.5102639296187683
1.478983382209189
1.447702834799609
1.4164222873900294
1.3861192570869991
1.356793743890518
1.327468230694037
1.300097751710655
1.2795698924731185
1.2649071358748778
1.2482893450635386
1.23069403714565
1.2130987292277615
1.1964809384164223
1.181818181818182
1.1671554252199414
1.1515151515151516
1.1368523949169111
1.1231671554252198
1.1085043988269794
1.0957966764418376
1.0899315738025417
1.0869990224828934
1.0801564027370478
1.0713587487781036
1.0606060606060606
1.0488758553274682
1.0391006842619743
1.0303030303030305
1.0224828934506354
1.0205278592375366
1.0273704789833822
1.056695992179863
1.0918866080156402
1.1280547409579669
1.1896383186705768
1.273704789833822
1.375366568914956
1.490713587487781
1.6148582600195502
1.7429130009775171
1.869012707722385
1.9902248289345064
2.102639296187683
2.203323558162268
2.290322580645161
2.355816226783969
2.406647116324536
2.4565004887585533
2.501466275659824
2.541544477028348
2.575757575757576
2.606060606060606
2.631476050830889
2.6529814271749754
2.6715542521994133
2.689149560117302
2.705767350928641
2.7155425219941347
2.720430107526881
2.724340175953079
2.7233626588465296
2.717497556207233
2.704789833822092
2.6852394916911044
2.658846529814272
2.624633431085044
2.582600195503421
2.532746823069404
2.4750733137829912
2.418377321603128
2.3626588465298144
2.300097751710655
2.2355816226783967
2.172043010752688
2.112414467253177
2.0576735092864125
2.006842619745845
1.9608993157380252
1.919843597262952
1.8826979472140764
1.8465298142717497
1.8132942326490715
1.7869012707722385
1.7624633431085044
1.7350928641251222
1.7067448680351909
1.6774193548387095
1.6471163245356797
1.6158357771260996
1.58455522971652
1.5542521994134897
1.5249266862170088
1.495601173020528
1.466275659824047
1.4428152492668622
1.4222873900293256
1.396871945259042
1.3714565004887584
1.346041055718475
1.3225806451612905
1.2991202346041055
1.2776148582600195
1.2570869990224829
1.2365591397849462
1.2160312805474096
1.198435972629521
1.1837732160312806
1.1749755620723363
1.1691104594330402
1.160312805474096
1.1505376344086022
1.1397849462365592
1.1290322580645162
1.118279569892473
1.10752688172043
1.0977517106549364
1.088954056695992
1.0801564027370478
1.0713587487781036
1.067448680351906
1.0654936461388074
1.0606060606060606
1.056695992179863
1.0547409579667644
1.0586510263929618
1.0733137829912025
1.1026392961876832
1.1505376344086022
1.2189638318670577
1.3079178885630498
1.4164222873900294
1.5395894428152492
1.6549364613880744
1.7663734115347018
1.8914956011730208
2.018572825024438
2.1407624633431084
2.251221896383187
2.3499511241446727
2.4359726295210167
2.5102639296187683
2.572825024437928
2.6265884652981426
2.6725317693059627
2.705767350928641
2.7311827956989245
2.7595307917888565
2.788856304985337
2.8181818181818183
2.844574780058651
2.868035190615836
2.889540566959922
2.906158357771261
2.917888563049853
2.9237536656891496
2.924731182795699
2.920821114369501
2.909090909090909
2.8914956011730206
2.860215053763441
2.827956989247312
2.7996089931573804
2.7595307917888565
2.710654936461388
2.653958944281525
2.589442815249267
2.520039100684262
2.447702834799609
2.375366568914956
2.310850439882698
2.251221896383187
2.189638318670577
2.131964809384164
2.0791788856304985
2.0303030303030303
1.986314760508309
1.946236559139785
1.9100684261974583
1.87683284457478
1.8435972629521016
1.8113391984359728
1.780058651026393
1.7575757575757576
1.7390029325513197
1.7126099706744868
1.6823069403714566
1.6500488758553276
1.6177908113391983
1.58455522971652
1.5503421309872922
1.517106549364614
1.482893450635386
1.4506353861192571
1.4203323558162269
1.3949169110459434
1.3734115347018572
1.3509286412512218
1.327468230694037
1.3040078201368523
1.281524926686217
1.2619745845552297
1.2434017595307918
1.2258064516129032
1.209188660801564
1.1935483870967742
1.1798631476050832
1.1681329423264908
1.163245356793744
1.160312805474096
1.152492668621701
1.142717497556207
1.1319648093841643
1.121212121212121
1.1094819159335287
1.0977517106549364
1.0869990224828934
1.0772238514173995
1.067448680351906
1.0586510263929618
1.056695992179863
1.06158357771261
1.0703812316715542
1.0899315738025417
1.1251221896383188
1.1798631476050832
1.2561094819159335
1.35386119257087
1.469208211143695
1.598240469208211
1.7360703812316716
1.87683284457478
2.013685239491691
2.1280547409579667
2.225806451612903
2.3255131964809386
2.418377321603128
2.5034213098729228
2.579667644183773
2.64613880742913
2.704789833822092
2.755620723362659
2.7996089931573804
2.8406647116324537
2.87683284457478
2.9012707722385143
2.920821114369501
2.943304007820137
2.9657869012707723
2.986314760508309
3.003910068426197
3.0175953079178885
3.026392961876833
3.0303030303030303
3.0283479960899315
3.0205278592375366
3.005865102639296
2.983382209188661
2.9550342130987293
2.919843597262952
2.87683284457478
2.8260019550342133
2.768328445747801
2.704789833822092
2.635386119257087
2.5610948191593352
2.484848484848485
2.406647116324536
2.3304007820136854
2.257086999022483
2.1955034213098727
2.1417399804496577
2.0879765395894427
2.038123167155425
1.9931573802541545
1.9530791788856303
1.9159335288367547
1.8807429130009776
1.8455522971652003
1.812316715542522
1.7790811339198436
1.7468230694037146
1.7135874877810362
1.6842619745845553
1.6578690127077225
1.6285434995112416
1.595307917888563
1.560117302052786
1.5161290322580645
1.478005865102639
1.4506353861192571
1.4203323558162269
1.3861192570869991
1.356793743890518
1.3362658846529814
1.3186705767350928
1.3020527859237536
1.2825024437927663
1.262952101661779
1.2424242424242424
1.2218963831867058
1.203323558162268
1.187683284457478
1.173998044965787
1.1612903225806452
1.147605083088954
1.133919843597263
1.1251221896383188
1.1192570869990224
1.110459433040078
1.0987292277614855
1.0850439882697946
1.072336265884653
1.0606060606060606
1.0498533724340176
1.043010752688172
1.0420332355816226
1.0518084066471165
1.0772238514173995
1.1202346041055715
1.173998044965787
1.241446725317693
1.3313782991202343
1.4428152492668622
1.56891495601173
1.7018572825024438
1.836754643206256
1.9696969696969695
2.0957966764418376
2.2111436950146626
2.313782991202346
2.4027370478983383
2.4701857282502444
2.5239491691104594
2.5777126099706744
2.6285434995112413
2.675464320625611
2.717497556207233
2.755620723362659
2.790811339198436
2.823069403714565
2.852394916911046
2.878787878787879
2.902248289345064
2.921798631476051
2.932551319648094
2.936461388074292
2.93841642228739
2.936461388074292
2.929618768328446
2.9159335288367547
2.895405669599218
2.868035190615836
2.832844574780059
2.789833822091887
2.7390029325513194
2.681329423264907
2.622678396871945
2.5610948191593352
2.490713587487781
2.41544477028348
2.3391984359726297
2.2639296187683287
2.1915933528836757
2.124144672531769
2.0625610948191597
2.005865102639296
1.95405669599218
1.9071358748778104
1.8631476050830889
1.827956989247312
1.796676441837732
1.7644183773216031
1.732160312805474
1.6989247311827955
1.6656891495601174
1.6314760508308896
1.595307917888563
1.5581622678396871
1.521016617790811
1.4838709677419355
1.4467253176930597
1.4164222873900294
1.3900293255131966
1.3607038123167154
1.3304007820136852
1.3010752688172045
1.273704789833822
1.2473118279569892
1.2228739002932552
1.2003910068426198
1.1798631476050832
1.1612903225806452
1.142717497556207
1.1251221896383188
1.1124144672531768
1.1026392961876832
1.088954056695992
1.0762463343108504
1.064516129032258
1.053763440860215
1.0439882697947214
1.0342130987292275
1.0254154447702837
1.0166177908113392
1.007820136852395
0.9990224828934506
0.9941348973607038
0.9921798631476052
0.989247311827957
0.989247311827957
0.9951124144672532
1.0283479960899315
1.0694037145650048
1.1094819159335287
1.1759530791788857
1.300097751710655
1.4271749755620724
1.5268817204301075
1.6480938416422288
1.793743890518084
1.9178885630498532
2.010752688172043
2.114369501466276
2.2160312805474094
2.3088954056695994
2.3919843597262958
2.4652981427174976
2.539589442815249
2.60019550342131
2.6392961876832843
2.67644183773216
2.7038123167155423
2.724340175953079
2.7497556207233624
2.7751710654936463
2.80058651026393
2.8240469208211145
2.8455522971652005
2.855327468230694
2.855327468230694
2.8563049853372435
2.854349951124145
2.8475073313782997
2.831867057673509
2.8103616813294234
2.782991202346041
2.747800586510264
2.705767350928641
2.656891495601173
2.601173020527859
2.5386119257087
2.4545454545454546
2.377321603128055
2.321603128054741
2.259042033235582
2.1867057673509285
2.126099706744868
2.081133919843597
2.021505376344086
1.9579667644183771
1.916911045943304
1.8875855327468232
1.847507331378299
1.8113391984359728
1.7859237536656891
1.7565982404692082
1.7174975562072337
1.6715542521994136
1.640273704789834
1.611925708699902
1.58455522971652
1.5503421309872922
1.5131964809384164
1.47702834799609
1.4320625610948192
1.3919843597262953
1.356793743890518
1.332355816226784
1.305962854349951
1.2727272727272727
1.249266862170088
1.2365591397849462
1.2179863147605083
1.1915933528836755
1.1671554252199414
1.1456500488758554
1.1251221896383188
1.1065493646138806
1.093841642228739
1.0801564027370478
1.0625610948191593
1.04594330400782
1.0312805474095796
1.021505376344086
1.0146627565982405
1.0058651026392962
0.997067448680352
0.9872922776148584
0.9775171065493646
0.967741935483871
0.956989247311828
0.9452590420332356
0.935483870967742
0.9296187683284456
0.9305962854349952
0.9413489736070382
0.9628543499511242
0.9990224828934506
1.053763440860215
1.1290322580645162
1.2238514173998043
1.335288367546432
1.4604105571847508
1.595307917888563
1.7331378299120237
1.869012707722385
1.997067448680352
2.101661779081134
2.189638318670577
2.2766373411534704
2.357771260997068
2.429130009775171
2.490713587487781
2.5454545454545454
2.593352883675464
2.636363636363636
2.674486803519061
2.7096774193548385
2.740957966764418
2.768328445747801
2.7859237536656893
2.7966764418377323
2.809384164222874
2.820136852394917
2.8269794721407626
2.8289345063538613
2.8260019550342133
2.81622678396872
2.80058651026393
2.7781036168132944
2.748778103616813
2.7126099706744866
2.6725317693059627
2.6285434995112413
2.576735092864125
2.517106549364614
2.449657869012708
2.377321603128055
2.303030303030303
2.228739002932551
2.156402737047898
2.0879765395894427
2.0254154447702835
1.9687194525904204
1.9188660801564028
1.878787878787879
1.8465298142717497
1.8142717497556209
1.782991202346041
1.7517106549364614
1.7223851417399805
1.6920821114369502
1.66177908113392
1.6304985337243405
1.5972629521016617
1.563049853372434
1.5288367546432062
1.499511241446725
1.474095796676442
1.4457478005865103
1.41544477028348
1.3841642228739004
1.35386119257087
1.324535679374389
1.2961876832844574
1.2697947214076246
1.2434017595307918
1.217008797653959
1.1915933528836755
1.1671554252199414
1.1505376344086022
1.1378299120234605
1.121212121212121
1.104594330400782
1.0879765395894427
1.072336265884653
1.056695992179863
1.0420332355816226
1.0283479960899315
1.0166177908113392
1.0058651026392962
0.9960899315738024
0.9912023460410556
0.989247311827957
0.9833822091886608
0.975562072336266
0.9667644183773216
0.9579667644183774
0.9472140762463344
0.9364613880742912
0.9257086999022482
0.9159335288367546
0.9071358748778104
0.9002932551319648
0.9002932551319648
0.9081133919843596
0.9266862170087976
0.9579667644183774
1.007820136852395
1.078201368523949
1.1681329423264908
1.2776148582600195
1.401759530791789
1.5366568914956011
1.6764418377321604
1.81524926686217
1.948191593352884
2.0576735092864125
2.150537634408602
2.242424242424242
2.3284457478005867
2.404692082111437
2.4711632453567938
2.5288367546432062
2.5777126099706744
2.621700879765396
2.66177908113392
2.697947214076246
2.730205278592375
2.7595307917888565
2.7781036168132944
2.790811339198436
2.806451612903226
2.819159335288368
2.8299120234604107
2.835777126099707
2.834799608993157
2.8269794721407626
2.812316715542522
2.789833822091887
2.7595307917888565
2.720430107526881
2.677419354838709
2.63049853372434
2.5747800586510263
2.5112414467253177
2.442815249266862
2.3704789833822093
2.297165200391007
2.225806451612903
2.158357771260997
2.093841642228739
2.035190615835777
1.9833822091886608
1.9374389051808407
1.900293255131965
1.869012707722385
1.836754643206256
1.8054740957966764
1.7741935483870968
1.7429130009775171
1.7135874877810362
1.6823069403714566
1.6500488758553276
1.6158357771260996
1.5806451612903225
1.5454545454545454
1.517106549364614
1.490713587487781
1.4613880742913
1.43108504398827
1.4007820136852396
1.3714565004887584
1.3421309872922775
1.313782991202346
1.2873900293255132
1.2619745845552297
1.2375366568914956
1.2150537634408602
1.1935483870967742
1.1788856304985338
1.1681329423264908
1.1544477028347997
1.13880742913001
1.1241446725317692
1.1114369501466277
1.099706744868035
1.088954056695992
1.0791788856304985
1.0703812316715542
1.0606060606060606
1.050830889540567
1.0439882697947214
1.0664711632453567
1.0977517106549364
1.10752688172043
1.1094819159335287
1.10752688172043
1.1026392961876832
1.0957966764418376
1.0869990224828934
1.0772238514173995
1.067448680351906
1.0586510263929618
1.0518084066471165
1.0527859237536656
1.0606060606060606
1.0762463343108504
1.104594330400782
1.1505376344086022
1.2160312805474096
1.303030303030303
1.4105571847507332
1.533724340175953
1.6695992179863148
1.8113391984359728
1.9521016617790807
2.071358748778104
2.1739980449657867
2.2795698924731185
2.3792766373411536
2.4701857282502444
2.549364613880743
2.6177908113391983
2.675464320625611
2.7253176930596283
2.76930596285435
2.809384164222874
2.8455522971652005
2.878787878787879
2.9012707722385143
2.917888563049853
2.936461388074292
2.956011730205278
2.973607038123167
2.988269794721408
2.9980449657869013
3.002932551319648
3.0009775171065494
2.991202346041056
2.972629521016618
2.946236559139785
2.913978494623656
2.875855327468231
2.8269794721407626
2.76930596285435
2.7038123167155423
2.633431085043988
2.5610948191593352
2.487781036168133
2.41544477028348
2.346041055718475
2.280547409579668
2.219941348973607
2.1700879765395893
2.1270772238514173
2.085043988269794
2.04594330400782
2.0087976539589443
1.9736070381231672
1.9403714565004888
1.90811339198436
1.87683284457478
1.844574780058651
1.8113391984359728
1.7771260997067448
1.7429130009775171
1.7126099706744868
1.6852394916911049
1.653958944281525
1.6207233626588464
1.587487781036168
1.5542521994134897
1.521994134897361
1.4916911045943304
1.4643206256109482
1.4379276637341154
1.4134897360703813
1.3900293255131966
1.3734115347018572
1.3587487781036167
1.3411534701857282
1.321603128054741
1.3010752688172045
1.2825024437927663
1.2639296187683284
1.24633431085044
1.2316715542521994
1.2179863147605083
1.206256109481916
1.195503421309873
1.1857282502443791
1.1808406647116323
1.1779081133919844
1.1710654936461389
1.160312805474096
1.1485826001955035
1.1368523949169111
1.1251221896383188
1.1143695014662756
1.1036168132942326
1.0928641251221896
1.083088954056696
1.075268817204301
1.072336265884653
1.0742913000977516
1.0801564027370478
1.0948191593352885
1.1231671554252198
1.1700879765395895
1.2365591397849462
1.324535679374389
1.4330400782013686
1.5562072336265884
1.6911045943304008
1.83088954056696
1.970674486803519
2.089931573802541
2.193548387096774
2.2991202346041058
2.3978494623655915
2.486803519061584
2.5650048875855327
2.631476050830889
2.6881720430107525
2.7370478983382207
2.780058651026393
2.817204301075269
2.850439882697948
2.874877810361681
2.89345063538612
2.913978494623656
2.9345063538611926
2.95405669599218
2.9696969696969697
2.981427174975562
2.988269794721408
2.989247311827957
2.983382209188661
2.970674486803519
2.951124144672532
2.9237536656891496
2.8914956011730206
2.8533724340175954
2.807429130009776
2.752688172043011
2.6901270772238512
2.621700879765396
2.549364613880743
2.4760508308895406
2.403714565004888
2.334310850439883
2.269794721407625
2.2111436950146626
2.163245356793744
2.12316715542522
2.083088954056696
2.0449657869012707
2.0097751710654936
1.9765395894428155
1.945259042033236
1.9149560117302051
1.8836754643206255
1.8523949169110456
1.8211143695014664
1.7898338220918866
1.7575757575757576
1.7311827956989247
1.7067448680351909
1.678396871945259
1.6490713587487782
1.6187683284457477
1.5865102639296187
1.555229716520039
1.5249266862170088
1.495601173020528
1.4682306940371457
1.4428152492668622
1.418377321603128
1.3998044965786902
1.3841642228739004
1.3665689149560116
1.3479960899315735
1.3294232649071358
1.3118279569892473
1.2961876832844574
1.2825024437927663
1.2697947214076246
1.2580645161290325
1.24633431085044
1.2346041055718475
1.2228739002932552
1.2150537634408602
1.2101661779081134
1.2023460410557183
1.1935483870967742
1.18475073313783
1.176930596285435
1.1691104594330402
1.1612903225806452
1.152492668621701
1.1436950146627567
1.1348973607038124
1.1270772238514175
1.1251221896383188
1.1270772238514175
1.130987292277615
1.142717497556207
1.1681329423264908
1.2101661779081134
1.2727272727272727
1.3558162267839686
1.4604105571847508
1.581622678396872
1.715542521994135
1.8563049853372435
1.9990224828934504
2.121212121212121
2.2297165200391005
2.3411534701857284
2.447702834799609
2.5434995112414467
2.627565982404692
2.699902248289345
2.7614858260019552
2.814271749755621
2.8611925708699903
2.9042033235581624
2.943304007820137
2.970674486803519
2.992179863147605
3.0175953079178885
3.0439882697947214
3.0684261974584555
3.088954056695992
3.1055718475073317
3.1163245356793743
3.1221896383186705
3.1221896383186705
3.1163245356793743
3.104594330400782
3.0869990224828934
3.0635386119257086
3.032258064516129
2.994134897360704
2.948191593352884
2.895405669599218
2.834799608993157
2.766373411534702
2.6666666666666665
2.5513196480938416
2.4545454545454546
2.3704789833822093
2.2952101661779083
2.233626588465298
2.179863147605083
2.1270772238514173
2.0772238514174
2.032258064516129
1.992179863147605
1.9560117302052784
1.9237536656891496
1.89247311827957
1.8602150537634408
1.828934506353861
1.7956989247311828
1.7624633431085044
1.7331378299120237
1.704789833822092
1.672531769305963
1.6383186705767352
1.6041055718475072
1.5698924731182795
1.5366568914956011
1.504398826979472
1.4731182795698925
1.4428152492668622
1.4134897360703813
1.3851417399804498
1.3626588465298142
1.3450635386119256
1.3255131964809383
1.3049853372434017
1.2854349951124144
1.2658846529814272
1.24633431085044
1.2297165200391007
1.2150537634408602
1.2013685239491692
1.1886608015640274
1.1749755620723363
1.166177908113392
1.1593352883675463
1.1505376344086022
1.141739980449658
1.133919843597263
1.1251221896383188
1.1163245356793745
1.10752688172043
1.0977517106549364
1.0879765395894427
1.078201368523949
1.0684261974584557
1.0596285434995112
1.0557184750733135
1.0547409579667644
1.0518084066471165
1.0488758553274682
1.0498533724340176
1.0596285434995112
1.0821114369501466
1.1221896383186705
1.181818181818182
1.2619745845552297
1.3626588465298142
1.479960899315738
1.5923753665689149
1.7038123167155426
1.827956989247312
1.9560117302052784
2.081133919843597
2.1974584555229715
2.304007820136853
2.398826979472141
2.4819159335288368
2.5532746823069403
2.6158357771261
2.6715542521994133
2.720430107526881
2.755620723362659
2.7839687194525906
2.8152492668621703
2.8455522971652005
2.873900293255132
2.9012707722385143
2.9257086999022484
2.946236559139785
2.960899315738025
2.970674486803519
2.975562072336266
2.975562072336266
2.967741935483871
2.95405669599218
2.936461388074292
2.913978494623656
2.886608015640274
2.850439882697948
2.807429130009776
2.7565982404692084
2.699902248289345
2.6373411534701856
2.56891495601173
2.496578690127077
2.421309872922776
2.3548387096774195
2.2952101661779083
2.233626588465298
2.1739980449657867
2.118279569892473
2.0684261974584555
2.0234604105571847
1.9824046920821117
1.946236559139785
1.9120234604105573
1.878787878787879
1.8465298142717497
1.8191593352883677
1.7927663734115349
1.7624633431085044
1.729227761485826
1.6930596285434996
1.6588465298142718
1.6256109481915937
1.5923753665689149
1.5581622678396871
1.5249266862170088
1.4936461388074291
1.4633431085043989
1.4349951124144673
1.412512218963832
1.393939393939394
1.3714565004887584
1.3479960899315735
1.324535679374389
1.303030303030303
1.281524926686217
1.2609970674486803
1.2424242424242424
1.224828934506354
1.2082111436950147
1.1925708699902249
1.181818181818182
1.1749755620723363
1.1652003910068427
1.155425219941349
1.1456500488758554
1.1368523949169111
1.1280547409579669
1.118279569892473
1.1065493646138806
1.093841642228739
1.0811339198435972
1.0684261974584557
1.0586510263929618
1.0547409579667644
1.0547409579667644
1.056695992179863
1.0635386119257086
1.0791788856304985
1.10752688172043
1.152492668621701
1.2150537634408602
1.2971652003910068
1.3988269794721409
1.5151515151515151
1.6412512218963833
1.7556207233626588
1.86119257086999
1.9765395894428155
2.09188660801564
2.20039100684262
2.2991202346041058
2.3870967741935485
2.464320625610948
2.5317693059628543
2.590420332355816
2.641251221896383
2.6852394916911044
2.7233626588465296
2.750733137829912
2.7702834799608995
2.792766373411535
2.81622678396872
2.8396871945259043
2.859237536656892
2.874877810361681
2.8856304985337244
2.8905180840664717
2.8905180840664717
2.8856304985337244
2.875855327468231
2.8582600195503423
2.834799608993157
2.806451612903226
2.771260997067449
2.7282502443792764
2.67644183773216
2.616813294232649
2.552297165200391
2.482893450635386
2.409579667644184
2.335288367546432
2.2629521016617797
2.1955034213098727
2.139784946236559
2.090909090909091
2.043010752688172
1.9980449657869013
1.956989247311828
1.919843597262952
1.8856304985337244
1.8533724340175952
1.8211143695014664
1.790811339198436
1.7605083088954057
1.729227761485826
1.7028347996089932
1.6793743890518085
1.6520039100684265
1.6217008797653958
1.590420332355816
1.5571847507331378
1.5249266862170088
1.4936461388074291
1.4623655913978495
1.43108504398827
1.4007820136852396
1.3714565004887584
1.3440860215053765
1.3225806451612905
1.305962854349951
1.2864125122189638
1.2658846529814272
1.24633431085044
1.2287390029325511
1.2111436950146628
