ppg
2.3167155425219943
2.2385141739980448
2.160312805474096
2.0821114369501466
2.0127077223851417
1.949169110459433
1.881720430107527
1.8142717497556209
1.747800586510264
1.683284457478006
1.619745845552297
1.5591397849462365
1.5024437927663734
1.4496578690127078
1.401759530791789
1.3587487781036167
1.3255131964809383
1.2991202346041055
1.2727272727272727
1.249266862170088
1.2297165200391007
1.2140762463343109
1.203323558162268
1.1974584555229717
1.1945259042033236
1.1945259042033236
1.1974584555229717
1.2013685239491692
1.206256109481916
1.2130987292277615
1.2209188660801564
1.2267839687194526
1.23069403714565
1.2336265884652982
1.2346041055718475
1.2336265884652982
1.2316715542521994
1.2297165200391007
1.2267839687194526
1.2228739002932552
1.217008797653959
1.2130987292277615
1.209188660801564
1.2013685239491692
1.1906158357771262
1.1788856304985338
1.1691104594330402
1.1671554252199414
1.1808406647116323
1.2179863147605083
1.2864125122189638
1.3890518084066472
1.5249266862170088
1.6901270772238517
1.847507331378299
2.0
2.16911045943304
2.334310850439883
2.4809384164222874
2.598240469208211
2.6823069403714563
2.7331378299120237
2.755620723362659
2.752688172043011
2.729227761485826
2.6901270772238512
2.644183773216031
2.593352883675464
2.5347018572825024
2.4711632453567938
2.4056695992179864
2.3382209188660803
2.271749755620724
2.204301075268817
2.131964809384164
2.0576735092864125
1.9804496578690127
1.902248289345064
1.825024437927664
1.7575757575757576
1.696969696969697
1.632453567937439
1.5679374389051808
1.5053763440860215
1.4467253176930597
1.3919843597262953
1.3411534701857282
1.295210166177908
1.2531769305962854
1.217008797653959
1.18475073313783
1.1612903225806452
1.144672531769306
1.1290322580645162
1.1163245356793745
1.1065493646138806
1.1006842619745845
1.0977517106549364
1.096774193548387
1.0987292277614855
1.1036168132942326
1.110459433040078
1.118279569892473
1.1280547409579669
1.1397849462365592
1.152492668621701
1.166177908113392
1.1788856304985338
1.1915933528836755
1.203323558162268
1.2130987292277615
1.2218963831867058
1.2297165200391007
1.2355816226783969
1.238514173998045
1.2375366568914956
1.2375366568914956
1.2404692082111437
1.24633431085044
1.262952101661779
1.2971652003910068
1.3558162267839686
1.4428152492668622
1.5591397849462365
1.7028347996089932
1.866080156402737
2.0391006842619745
2.2111436950146626
2.372434017595308
2.496578690127077
2.591397849462365
2.675464320625611
2.7370478983382207
2.774193548387097
2.787878787878788
2.780058651026393
2.7536656891495603
2.713587487781036
2.66177908113392
2.601173020527859
2.5347018572825024
2.4701857282502444
2.4056695992179864
2.333333333333333
2.2561094819159337
2.175953079178885
2.0948191593352883
2.013685239491691
1.9335288367546437
1.855327468230694
1.780058651026393
1.7086999022482894
1.6412512218963833
1.576735092864125
1.5239491691104594
1.478983382209189
1.43108504398827
1.383186705767351
1.33822091886608
1.2961876832844574
1.2580645161290325
1.2258064516129032
1.2003910068426198
1.1808406647116323
1.1681329423264908
1.1612903225806452
1.1612903225806452
1.166177908113392
1.1730205278592376
1.181818181818182
1.1925708699902249
1.206256109481916
1.2209188660801564
1.2365591397849462
1.2531769305962854
1.2688172043010753
1.2834799608993157
1.2961876832844574
1.3069403714565004
1.316715542521994
1.3235581622678396
1.3284457478005864
1.3294232649071358
1.327468230694037
1.321603128054741
1.3128054740957966
1.3010752688172045
1.2883675464320623
1.2795698924731185
1.281524926686217
1.303030303030303
1.3411534701857282
1.4037145650048877
1.5063538611925709
1.6480938416422288
1.822091886608016
2.0175953079178885
2.220918866080156
2.41544477028348
2.5884652981427174
2.7311827956989245
2.8396871945259043
2.913000977517106
2.949169110459433
2.9579667644183774
2.9501466275659824
2.924731182795699
2.884652981427175
2.832844574780059
2.7722385141739982
2.704789833822092
2.633431085043988
2.5591397849462365
2.482893450635386
2.407624633431085
2.3313782991202348
2.2629521016617797
2.198435972629521
2.1280547409579667
2.0547409579667644
1.9794721407624636
1.902248289345064
1.825024437927664
1.747800586510264
1.6715542521994136
1.595307917888563
1.521016617790811
1.4486803519061584
1.3890518084066472
1.3372434017595307
1.284457478005865
1.2346041055718475
1.1925708699902249
1.1583577712609971
1.133919843597263
1.118279569892473
1.1094819159335287
1.10752688172043
1.110459433040078
1.1173020527859236
1.1251221896383188
1.133919843597263
1.1436950146627567
1.152492668621701
1.1593352883675463
1.164222873900293
1.1681329423264908
1.1720430107526882
1.1759530791788857
1.1808406647116323
1.1867057673509287
1.1925708699902249
1.1974584555229717
1.203323558162268
1.2082111436950147
1.2101661779081134
1.2121212121212122
1.2209188660801564
1.2434017595307918
1.2883675464320623
1.3636363636363635
1.4731182795698925
1.6148582600195502
1.7839687194525904
1.9696969696969695
2.158357771260997
2.314760508308896
2.443792766373412
2.5669599217986314
2.668621700879765
2.7419354838709675
2.7869012707722387
2.8054740957966766
2.80058651026393
2.776148582600196
2.735092864125122
2.681329423264907
2.6177908113391983
2.5542521994134897
2.489736070381232
2.4164222873900294
2.337243401759531
2.254154447702835
2.16911045943304
2.0840664711632453
2.0
1.9178885630498532
1.8387096774193548
1.7634408602150538
1.6920821114369502
1.624633431085044
1.56891495601173
1.520039100684262
1.4672531769305963
1.4134897360703813
1.3587487781036167
1.3040078201368523
1.2502443792766371
1.198435972629521
1.1495601173020529
1.104594330400782
1.064516129032258
1.0312805474095796
1.0312805474095796
1.0312805474095796
1.0312805474095796
1.0312805474095796
1.0312805474095796
1.1251221896383188
1.133919843597263
1.164222873900293
1.2267839687194526
1.3264907135874875
1.4633431085043989
1.632453567937439
1.8240469208211143
1.9960899315738023
2.15347018572825
2.318670576735093
2.4711632453567938
2.5992179863147604
2.696969696969697
2.764418377321604
2.8025415444770285
2.8152492668621703
2.806451612903226
2.780058651026393
2.740957966764418
2.695014662756598
2.644183773216031
2.5855327468230693
2.520039100684262
2.450635386119257
2.377321603128055
2.3010752688172045
2.2218963831867056
2.1407624633431084
2.0576735092864125
1.9745845552297163
1.8934506353861196
1.8142717497556209
1.7468230694037146
1.6871945259042034
1.624633431085044
1.563049853372434
1.5053763440860215
1.4516129032258065
1.401759530791789
1.356793743890518
1.316715542521994
1.2805474095796676
1.249266862170088
1.2238514173998043
1.2082111436950147
1.2003910068426198
1.195503421309873
1.195503421309873
1.198435972629521
1.2052785923753666
1.2160312805474096
1.2287390029325511
1.2424242424242424
1.2561094819159335
1.2688172043010753
1.2805474095796676
1.2913000977517106
1.300097751710655
1.3088954056695992
1.3157380254154447
1.3206256109481915
1.324535679374389
1.327468230694037
1.3294232649071358
1.3294232649071358
1.3255131964809383
1.3176930596285434
1.3069403714565004
1.295210166177908
1.2883675464320623
1.2903225806451613
1.3069403714565004
1.3479960899315735
1.4222873900293256
1.5327468230694037
1.6793743890518085
1.855327468230694
2.048875855327468
2.24633431085044
2.4349951124144678
2.603128054740958
2.740957966764418
2.834799608993157
2.89345063538612
2.932551319648094
2.949169110459433
2.943304007820137
2.917888563049853
2.875855327468231
2.8211143695014664
2.755620723362659
2.6832844574780057
2.606060606060606
2.525904203323558
2.4516129032258065
2.380254154447703
2.304007820136853
2.225806451612903
2.145650048875855
2.0664711632453567
1.9872922776148585
1.9090909090909087
1.8328445747800584
1.7595307917888563
1.689149560117302
1.6217008797653958
1.5650048875855327
1.5161290322580645
1.4643206256109482
1.4134897360703813
1.3655913978494625
1.3206256109481915
1.2805474095796676
1.24633431085044
1.2179863147605083
1.1945259042033236
1.176930596285435
1.1652003910068427
1.160312805474096
1.160312805474096
1.164222873900293
1.1691104594330402
1.1749755620723363
1.181818181818182
1.1886608015640274
1.195503421309873
1.2013685239491692
1.206256109481916
1.2111436950146628
1.2150537634408602
1.219941348973607
1.2267839687194526
1.2346041055718475
1.241446725317693
1.2473118279569892
1.252199413489736
1.2551319648093842
1.2551319648093842
1.2512218963831867
1.2434017595307918
1.2346041055718475
1.2287390029325511
1.2346041055718475
1.262952101661779
1.3079178885630498
1.3782991202346042
1.490713587487781
1.6422287390029326
1.8240469208211143
2.0234604105571847
2.225806451612903
2.4173998044965788
2.5865102639296187
2.724340175953079
2.827956989247312
2.8963831867057674
2.929618768328446
2.935483870967742
2.9227761485826003
2.89247311827957
2.8475073313782997
2.790811339198436
2.7253176930596283
2.632453567937439
2.5454545454545454
2.4809384164222874
2.407624633431085
2.329423264907136
2.249266862170088
2.175953079178885
2.10752688172043
2.034213098729228
1.9579667644183771
1.8807429130009776
1.8054740957966764
1.732160312805474
1.6608015640273706
1.5923753665689149
1.5278592375366569
1.4682306940371457
1.4134897360703813
1.370478983382209
1.335288367546432
1.2981427174975562
1.2619745845552297
1.227761485826002
1.1964809384164223
1.1691104594330402
1.144672531769306
1.1251221896383188
1.110459433040078
2.544477028347996
2.4682306940371457
2.386119257086999
2.302052785923754
2.218963831867057
2.1358748778103616
2.0547409579667644
1.9765395894428155
1.900293255131965
1.8269794721407624
1.7565982404692082
1.6901270772238517
1.635386119257087
1.5884652981427174
1.5395894428152492
1.4916911045943304
1.4467253176930597
1.4056695992179864
1.3685239491691104
1.3362658846529814
1.3098729227761483
1.2883675464320623
1.2727272727272727
1.2619745845552297
1.2561094819159335
1.2570869990224829
1.2619745845552297
1.267839687194526
1.2746823069403714
1.2825024437927663
1.2913000977517106
1.2991202346041055
1.3049853372434017
1.3088954056695992
1.3098729227761483
1.3079178885630498
1.3040078201368523
1.3020527859237536
1.2991202346041055
1.2932551319648091
1.284457478005865
1.2746823069403714
1.262952101661779
1.2502443792766371
1.2355816226783969
1.2189638318670577
1.2003910068426198
1.181818181818182
1.166177908113392
1.1593352883675463
1.164222873900293
1.1867057673509287
1.2355816226783969
1.3157380254154447
1.4281524926686218
1.5698924731182795
1.7350928641251222
1.911045943304008
2.0869990224828934
2.2521994134897363
2.396871945259042
2.5131964809384164
2.591397849462365
2.6392961876832843
2.670576735092864
2.6823069403714563
2.674486803519061
2.650048875855328
2.6129032258064515
2.565982404692082
2.5112414467253177
2.450635386119257
2.386119257086999
2.317693059628544
2.2551319648093844
2.1945259042033234
2.1270772238514173
2.056695992179863
1.9843597262952104
1.9120234604105573
1.839687194525904
1.7683284457478006
1.6598240469208212
1.533724340175953
1.439882697947214
1.3626588465298142
1.295210166177908
1.241446725317693
1.1974584555229717
1.1505376344086022
1.104594330400782
1.06158357771261
1.0234604105571847
0.989247311827957
0.9589442815249268
0.9325513196480938
0.9110459433040078
0.8934506353861192
0.8787878787878788
0.8709677419354839
0.8680351906158358
0.8651026392961877
0.863147605083089
0.863147605083089
0.8651026392961877
0.8699902248289345
0.8768328445747801
0.8856304985337243
0.895405669599218
0.9051808406647116
0.9149560117302052
0.9247311827956988
0.9364613880742912
0.9511241446725318
0.9716520039100685
1.002932551319648
1.0498533724340176
1.115347018572825
1.2013685239491692
1.3069403714565004
1.4291300097751711
1.5610948191593352
1.6959921798631477
1.826001955034213
1.9315738025415443
2.0175953079178885
2.096774193548387
2.1593352883675463
2.2023460410557183
2.2248289345063537
2.2277614858260018
2.2130987292277613
2.1837732160312804
2.1436950146627565
2.0948191593352883
2.0391006842619745
1.9794721407624636
1.9237536656891496
1.8699902248289344
1.8103616813294232
1.747800586510264
1.6852394916911049
1.6236559139784943
1.5650048875855327
1.5083088954056696
1.4545454545454546
1.4027370478983383
1.3528836754643203
1.3069403714565004
1.2688172043010753
1.2375366568914956
1.2043010752688172
1.1710654936461389
1.13880742913001
1.1085043988269794
1.0811339198435972
1.056695992179863
1.035190615835777
1.0166177908113392
1.0009775171065494
0.9882697947214076
0.978494623655914
0.9745845552297164
0.9745845552297164
0.9745845552297164
0.9775171065493646
0.981427174975562
0.9863147605083088
0.9941348973607038
1.002932551319648
1.0127077223851415
1.0234604105571847
1.0342130987292275
1.0449657869012707
1.0557184750733135
1.0654936461388074
1.0742913000977516
1.0821114369501466
1.088954056695992
1.0957966764418376
1.1016617790811338
1.1065493646138806
1.110459433040078
1.1143695014662756
1.1173020527859236
1.1202346041055715
1.121212121212121
1.1221896383186705
1.1221896383186705
1.1202346041055715
1.1192570869990224
1.1270772238514175
1.1505376344086022
1.198435972629521
1.278592375366569
1.3949169110459434
1.5454545454545454
1.7253176930596286
1.9257086999022484
2.104594330400782
2.2658846529814274
2.4359726295210167
2.592375366568915
2.7223851417399803
2.8211143695014664
2.886608015640274
2.920821114369501
2.9266862170087977
2.9100684261974585
2.874877810361681
2.8260019550342133
2.7653958944281527
2.701857282502444
2.636363636363636
2.563049853372434
2.484848484848485
2.403714565004888
2.321603128054741
2.2385141739980448
2.157380254154448
2.0772238514174
1.9980449657869013
1.920821114369501
1.844574780058651
1.7790811339198436
1.718475073313783
1.6549364613880744
1.5913978494623655
1.5298142717497556
1.4721407624633431
1.418377321603128
1.367546432062561
1.321603128054741
1.2805474095796676
1.2443792766373412
1.2130987292277615
1.1867057673509287
1.1691104594330402
1.1573802541544478
1.1485826001955035
1.142717497556207
1.141739980449658
1.1436950146627567
1.1495601173020529
1.1583577712609971
1.1691104594330402
1.1827956989247312
1.1974584555229717
1.2121212121212122
1.2258064516129032
1.2375366568914956
1.249266862170088
1.2590420332355816
1.267839687194526
1.2746823069403714
1.2795698924731185
1.2825024437927663
1.2834799608993157
1.281524926686217
1.2766373411534702
1.2697947214076246
1.2639296187683284
1.2590420332355816
1.2580645161290325
1.2688172043010753
1.2991202346041055
1.3558162267839686
1.444770283479961
1.565982404692082
1.7174975562072337
1.8914956011730208
2.0762463343108504
2.2580645161290325
2.426197458455523
2.555229716520039
2.6510263929618767
2.7341153470185726
2.795698924731183
2.832844574780059
2.8455522971652005
2.8377321603128056
2.8132942326490715
2.774193548387097
2.724340175953079
2.665689149560117
2.60019550342131
2.536656891495601
2.4731182795698925
2.4027370478983383
2.3284457478005867
2.2531769305962857
2.176930596285435
2.1006842619745845
2.0254154447702835
1.9501466275659824
1.8758553274682308
1.8025415444770283
1.7311827956989247
1.66177908113392
1.6041055718475072
1.552297165200391
1.4965786901270772
1.4418377321603129
1.3900293255131966
1.3401759530791788
1.295210166177908
1.2541544477028348
1.2179863147605083
1.1867057673509287
1.160312805474096
1.13880742913001
1.1251221896383188
1.1163245356793745
1.110459433040078
1.1065493646138806
1.1055718475073313
1.10752688172043
1.1114369501466277
1.118279569892473
1.1270772238514175
1.1368523949169111
1.1466275659824048
1.1564027370478984
1.164222873900293
1.1710654936461389
1.176930596285435
1.1808406647116323
1.1837732160312806
1.1886608015640274
1.2023460410557183
1.2297165200391007
1.2776148582600195
1.3509286412512218
1.4496578690127078
1.5728250244379276
1.7135874877810362
1.842619745845552
1.963831867057673
2.113391984359726
2.2639296187683287
2.3812316715542523
2.4682306940371457
2.5249266862170088
2.555229716520039
2.5620723362658846
2.549364613880743
2.520039100684262
2.4780058651026398
2.426197458455523
2.3734115347018574
2.317693059628544
2.2551319648093844
2.1867057673509285
2.115347018572825
2.042033235581622
1.967741935483871
1.8944281524926687
1.822091886608016
1.750733137829912
1.6823069403714566
1.6158357771260996
1.560117302052786
1.5102639296187683
1.456500488758553
1.401759530791789
1.3479960899315735
1.2971652003910068
1.2502443792766371
1.2072336265884651
1.1681329423264908
1.1319648093841643
1.099706744868035
1.072336265884653
1.0478983382209188
1.0303030303030305
1.0175953079178883
1.0048875855327468
0.9931573802541545
0.9833822091886608
0.9765395894428152
0.9726295210166178
0.9716520039100685
0.9736070381231672
0.9775171065493646
0.9843597262952102
0.9921798631476052
1.002932551319648
1.0146627565982405
1.0263929618768328
1.0371456500488758
1.0478983382209188
1.0586510263929618
1.0694037145650048
1.0791788856304985
1.088954056695992
1.0987292277614855
1.1065493646138806
1.1143695014662756
1.121212121212121
1.1290322580645162
1.1378299120234605
1.144672531769306
1.1495601173020529
1.152492668621701
1.152492668621701
1.1505376344086022
1.1515151515151516
1.1583577712609971
1.1788856304985338
1.2179863147605083
1.2834799608993157
1.3607038123167154
1.4545454545454546
1.5806451612903225
1.7311827956989247
1.8944281524926687
2.059628543499511
2.21505376344086
2.3528836754643208
2.466275659824047
2.552297165200391
2.610948191593353
2.6422287390029324
2.6510263929618767
2.641251221896383
2.6177908113391983
2.581622678396872
2.5347018572825024
2.4789833822091887
2.4164222873900294
2.3499511241446727
2.280547409579668
2.209188660801564
2.136852394916911
2.064516129032258
1.9931573802541545
1.9305962854349952
1.8729227761485825
1.8113391984359728
1.7487781036168133
1.6871945259042034
1.6265884652981428
1.56891495601173
1.5141739980449658
1.4623655913978495
1.414467253176931
1.3695014662756595
1.3294232649071358
1.29227761485826
1.2639296187683284
1.2404692082111437
1.2160312805474096
1.1935483870967742
1.1730205278592376
1.1564027370478984
1.1436950146627567
1.133919843597263
1.1280547409579669
1.1251221896383188
1.126099706744868
1.1300097751710656
1.1368523949169111
1.1456500488758554
1.1564027370478984
1.1681329423264908
1.1808406647116323
1.1925708699902249
1.2043010752688172
1.2160312805474096
1.227761485826002
1.238514173998045
1.2473118279569892
1.2541544477028348
1.260019550342131
1.2649071358748778
1.2688172043010753
1.2688172043010753
1.2688172043010753
1.2717497556207231
1.2834799608993157
1.3118279569892473
1.3616813294232648
1.4379276637341154
1.542521994134897
1.6735092864125125
1.8240469208211143
1.9618768328445748
2.09188660801564
2.2355816226783967
2.375366568914956
2.5004887585532747
2.603128054740958
2.681329423264907
2.7331378299120237
2.7614858260019552
2.768328445747801
2.755620723362659
2.7282502443792764
2.6911045943304006
2.6471163245356792
2.5943304007820136
2.5347018572825024
2.4701857282502444
2.401759530791789
2.3313782991202348
2.260019550342131
2.187683284457478
2.1163245356793743
2.0449657869012707
1.9745845552297163
1.906158357771261
1.8465298142717497
1.7927663734115349
1.7360703812316716
1.6803519061583578
1.6275659824046922
1.576735092864125
1.5298142717497556
1.4848484848484849
1.4437927663734116
1.4076246334310851
1.375366568914956
1.3479960899315735
1.3284457478005864
1.3147605083088951
1.303030303030303
1.2942326490713587
1.289345063538612
1.2903225806451613
1.2961876832844574
1.305962854349951
1.3196480938416422
1.3362658846529814
1.35386119257087
1.3724340175953078
1.3900293255131966
1.4056695992179864
1.4203323558162269
1.434017595307918
1.4457478005865103
1.455522971652004
1.4633431085043989
1.4682306940371457
1.469208211143695
1.466275659824047
1.4594330400782014
1.4516129032258065
1.447702834799609
1.4506353861192571
1.466275659824047
1.5034213098729228
1.5669599217986314
1.66177908113392
1.7859237536656891
1.9345063538611929
2.0987292277614857
2.2668621700879767
2.429130009775171
2.5747800586510263
2.696969696969697
2.790811339198436
2.849462365591398
2.8797653958944283
2.895405669599218
2.89247311827957
2.8729227761485827
2.8396871945259043
2.795698924731183
2.7438905180840663
2.6852394916911044
2.6207233626588464
2.552297165200391
2.4809384164222874
2.4144672531769307
2.3499511241446727
2.280547409579668
2.2082111436950145
2.134897360703812
2.0625610948191597
1.9902248289345064
1.919843597262952
1.8514173998044965
1.7849462365591398
1.721407624633431
1.6608015640273706
1.603128054740958
1.5562072336265884
1.5161290322580645
1.474095796676442
1.4320625610948192
1.392961876832845
1.3587487781036167
1.3284457478005864
1.3020527859237536
1.2903225806451613
1.2883675464320623
1.2834799608993157
1.278592375366569
1.2776148582600195
1.2795698924731185
1.281524926686217
1.2854349951124144
1.2913000977517106
1.2981427174975562
1.3069403714565004
1.316715542521994
1.3255131964809383
1.335288367546432
1.3450635386119256
1.3528836754643203
1.359726295210166
1.3665689149560116
1.3714565004887584
1.3743890518084063
1.3734115347018572
1.3695014662756595
1.3626588465298142
1.3548387096774193
1.3499511241446724
1.3519061583577712
1.3695014662756595
1.4105571847507332
1.4809384164222874
1.564027370478983
1.6656891495601174
1.804496578690127
1.9696969696969695
2.147605083088954
2.3255131964809386
2.489736070381232
2.632453567937439
2.747800586510264
2.831867057673509
2.8856304985337244
2.911045943304008
2.913000977517106
2.897360703812317
2.8670576735092865
2.825024437927664
2.773216031280548
2.713587487781036
2.6471163245356792
2.5777126099706744
2.505376344086021
2.43108504398827
2.3548387096774195
2.278592375366569
2.2023460410557183
2.133919843597263
2.070381231671554
2.0009775171065494
1.9305962854349952
1.8602150537634408
1.790811339198436
1.7243401759530792
1.6608015640273706
1.6001955034213098
1.543499511241447
1.490713587487781
1.4418377321603129
1.396871945259042
1.3616813294232648
1.3333333333333333
1.3040078201368523
1.2776148582600195
1.2541544477028348
1.2355816226783969
1.2218963831867058
1.2130987292277615
1.209188660801564
1.209188660801564
1.2121212121212122
1.2179863147605083
1.2258064516129032
1.2355816226783969
1.2453567937438903
1.2561094819159335
1.267839687194526
1.278592375366569
1.2864125122189638
1.29227761485826
1.295210166177908
1.295210166177908
1.2932551319648091
1.2913000977517106
1.295210166177908
1.3069403714565004
1.3304007820136852
1.3734115347018572
1.4408602150537635
1.5347018572825024
1.6529814271749756
1.7888563049853372
1.935483870967742
2.0821114369501466
2.219941348973607
2.340175953079179
2.4379276637341154
2.5034213098729228
2.5425219941348973
2.565982404692082
2.570869990224829
2.5591397849462365
2.5317693059628543
2.49266862170088
2.443792766373412
2.3870967741935485
2.3255131964809386
2.259042033235582
2.189638318670577
2.118279569892473
2.0527859237536656
1.991202346041056
1.9237536656891496
1.8533724340175952
1.7839687194525904
1.715542521994135
1.6480938416422288
1.5826001955034212
1.520039100684262
1.4594330400782014
1.401759530791789
1.3470185728250244
1.303030303030303
1.2658846529814272
1.2258064516129032
1.1867057673509287
1.1515151515151516
1.1192570869990224
1.0909090909090908
1.067448680351906
1.0478983382209188
1.0312805474095796
1.018572825024438
1.0087976539589445
1.0048875855327468
1.0058651026392962
1.007820136852395
1.0117302052785924
1.0175953079178883
1.0254154447702837
1.035190615835777
1.04594330400782
1.0576735092864125
1.0703812316715542
1.083088954056696
1.0948191593352885
1.1065493646138806
1.118279569892473
1.130987292277615
