ppg
1.5777126099706744
1.7272727272727273
1.8905180840664717
2.0576735092864125
2.217986314760508
2.366568914956012
2.496578690127077
2.6070381231671558
2.6989247311827955
2.773216031280548
2.831867057673509
2.877810361681329
2.9071358748778104
2.924731182795699
2.9423264907135875
2.956989247311828
2.967741935483871
2.973607038123167
2.9716520039100685
2.961876832844575
2.9423264907135875
2.913000977517106
2.8729227761485827
2.8211143695014664
2.764418377321604
2.701857282502444
2.627565982404692
2.5454545454545454
2.4594330400782014
2.372434017595308
2.289345063538612
2.2111436950146626
2.139784946236559
2.075268817204301
2.018572825024438
1.9687194525904204
1.9257086999022484
1.889540566959922
1.858260019550342
1.826001955034213
1.793743890518084
1.761485826001955
1.729227761485826
1.696969696969697
1.6637341153470186
1.6304985337243405
1.5962854349951123
1.5620723362658846
1.5288367546432062
1.500488758553275
1.4750733137829912
1.4467253176930597
1.4173998044965788
1.388074291300098
1.3587487781036167
1.3313782991202343
1.3069403714565004
1.284457478005865
1.2639296187683284
1.24633431085044
1.23069403714565
1.2160312805474096
1.2052785923753666
1.1974584555229717
1.187683284457478
1.1759530791788857
1.164222873900293
1.152492668621701
1.1407624633431086
1.130987292277615
1.121212121212121
1.1114369501466277
1.1026392961876832
1.093841642228739
1.088954056695992
1.0850439882697946
1.078201368523949
1.0713587487781036
1.064516129032258
1.0557184750733135
1.0469208211143697
1.0391006842619743
1.0312805474095796
1.0234604105571847
1.0175953079178883
1.013685239491691
1.010752688172043
1.010752688172043
1.0127077223851415
1.013685239491691
1.013685239491691
1.013685239491691
1.013685239491691
1.013685239491691
1.013685239491691
1.013685239491691
1.0146627565982405
1.0146627565982405
1.0146627565982405
1.0175953079178883
1.021505376344086
1.0234604105571847
1.024437927663734
1.024437927663734
1.0254154447702837
1.0263929618768328
1.0273704789833822
1.029325513196481
1.032258064516129
1.0391006842619743
1.053763440860215
1.0811339198435972
1.118279569892473
1.1720430107526882
1.2531769305962854
1.3616813294232648
1.495601173020528
1.6500488758553276
1.8172043010752688
1.988269794721408
2.156402737047898
2.313782991202346
2.455522971652004
2.576735092864125
2.665689149560117
2.7311827956989245
2.792766373411535
2.84652981427175
2.8905180840664717
2.9266862170087977
2.956011730205278
2.979472140762464
2.9960899315738025
3.005865102639296
3.0087976539589443
3.004887585532747
2.991202346041056
2.967741935483871
2.936461388074292
2.897360703812317
2.849462365591398
2.792766373411535
2.7262952101661777
2.6529814271749754
2.575757575757576
2.495601173020528
2.4164222873900294
2.3421309872922778
2.274682306940372
2.217986314760508
2.16911045943304
2.12316715542522
2.080156402737048
2.0391006842619745
1.9990224828934504
1.9589442815249267
1.9178885630498532
1.8748778103616808
1.8299120234604105
1.7839687194525904
1.7360703812316716
1.6871945259042034
1.6441837732160314
1.6041055718475072
1.5591397849462365
1.5141739980449658
1.4701857282502444
1.4291300097751711
1.3919843597262953
1.3577712609970674
1.3284457478005864
1.3020527859237536
1.2795698924731185
1.2609970674486803
1.2482893450635386
1.2394916911045943
1.23069403714565
1.2228739002932552
1.217008797653959
1.2130987292277615
1.2111436950146628
1.2111436950146628
1.2130987292277615
1.217008797653959
1.2228739002932552
1.23069403714565
1.238514173998045
1.2453567937438903
1.2512218963831867
1.2531769305962854
1.252199413489736
1.2482893450635386
1.241446725317693
1.2297165200391007
1.2150537634408602
1.1974584555229717
1.1779081133919844
1.1573802541544478
1.1348973607038124
1.1173020527859236
1.1016617790811338
1.0821114369501466
1.0606060606060606
1.040078201368524
1.021505376344086
1.0048875855327468
0.9912023460410556
0.9804496578690128
0.9726295210166178
0.9687194525904204
0.967741935483871
0.9696969696969696
0.9745845552297164
0.9824046920821116
0.9912023460410556
1.0
1.010752688172043
1.0234604105571847
1.0381231671554252
1.0557184750733135
1.0742913000977516
1.0948191593352885
1.1143695014662756
1.1397849462365592
1.1681329423264908
1.1906158357771262
1.2121212121212122
1.2365591397849462
1.267839687194526
1.3128054740957966
1.3763440860215057
1.4613880742913
1.56891495601173
1.6959921798631477
1.8387096774193548
1.9902248289345064
2.1221896383186705
2.239491691104594
2.3626588465298144
2.4789833822091887
2.5806451612903225
2.6637341153470184
2.729227761485826
2.7781036168132944
2.8132942326490715
2.8377321603128056
2.854349951124145
2.865102639296188
2.8719452590420333
2.870967741935484
2.8641251221896384
2.857282502443793
2.8484848484848486
2.834799608993157
2.8152492668621703
2.787878787878788
2.752688172043011
2.708699902248289
2.654936461388074
2.592375366568915
2.52297165200391
2.4565004887585533
2.3929618768328447
2.3255131964809386
2.259042033235582
2.1955034213098727
2.136852394916911
2.0840664711632453
2.037145650048876
1.994134897360704
1.95405669599218
1.9149560117302051
1.87683284457478
1.839687194525904
1.8064516129032255
1.7741935483870968
1.7380254154447703
1.6989247311827955
1.6578690127077225
1.616813294232649
1.576735092864125
1.5366568914956011
1.4975562072336266
1.4594330400782014
1.4222873900293256
1.3870967741935485
1.359726295210166
1.3372434017595307
1.313782991202346
1.2903225806451613
1.2688172043010753
1.249266862170088
1.2316715542521994
1.217008797653959
1.203323558162268
1.1915933528836755
1.1808406647116323
1.1710654936461389
1.163245356793744
1.1583577712609971
1.155425219941349
1.1515151515151516
1.1466275659824048
1.141739980449658
1.1358748778103618
1.1300097751710656
1.1221896383186705
1.115347018572825
1.10752688172043
1.1006842619745845
1.093841642228739
1.0899315738025417
1.0879765395894427
1.0840664711632453
1.0791788856304985
1.0733137829912025
1.067448680351906
1.0625610948191593
1.056695992179863
1.0527859237536656
1.0498533724340176
1.04594330400782
1.0420332355816226
1.0391006842619743
1.0391006842619743
1.040078201368524
1.0391006842619743
1.0381231671554252
1.0361681329423265
1.035190615835777
1.035190615835777
1.0361681329423265
1.0371456500488758
1.0391006842619743
1.0410557184750733
1.043010752688172
1.04594330400782
1.0498533724340176
1.0518084066471165
1.0527859237536656
1.0527859237536656
1.0527859237536656
1.0557184750733135
1.064516129032258
1.0840664711632453
1.1192570869990224
1.1749755620723363
1.2551319648093842
1.3607038123167154
1.469208211143695
1.5865102639296187
1.7311827956989247
1.8905180840664717
2.0547409579667644
2.2130987292277613
2.3597262952101663
2.490713587487781
2.6021505376344085
2.6959921798631474
2.7722385141739982
2.832844574780059
2.8729227761485827
2.8993157380254155
2.9257086999022484
2.949169110459433
2.9687194525904204
2.9824046920821115
2.991202346041056
2.994134897360704
2.9902248289345064
2.978494623655914
2.956989247311828
2.9257086999022484
2.8856304985337244
2.838709677419355
2.7839687194525906
2.718475073313783
2.643206256109482
2.5620723362658846
2.4760508308895406
2.3900293255131966
2.304985337243402
2.2238514173998043
2.1485826001955037
2.080156402737048
2.0205278592375366
1.9726295210166176
1.932551319648094
1.8934506353861196
1.857282502443793
1.823069403714565
1.7898338220918866
1.7565982404692082
1.7243401759530792
1.6920821114369502
1.6588465298142718
1.6256109481915937
1.5913978494623655
1.5581622678396871
1.5298142717497556
1.504398826979472
1.47702834799609
1.4496578690127078
1.4222873900293256
1.396871945259042
1.3714565004887584
1.3470185728250244
1.324535679374389
1.3020527859237536
1.2805474095796676
1.260019550342131
1.2434017595307918
1.23069403714565
1.217008797653959
1.2023460410557183
1.1886608015640274
1.1759530791788857
1.163245356793744
1.1505376344086022
1.1378299120234605
1.126099706744868
1.115347018572825
1.1055718475073313
1.0977517106549364
1.0928641251221896
1.0899315738025417
1.0850439882697946
1.0791788856304985
1.072336265884653
1.0654936461388074
1.0586510263929618
1.0527859237536656
1.0469208211143697
1.0410557184750733
1.035190615835777
1.029325513196481
1.0273704789833822
1.0283479960899315
1.0283479960899315
1.0273704789833822
1.0263929618768328
1.0254154447702837
1.0234604105571847
1.021505376344086
1.0195503421309873
1.0175953079178883
1.0166177908113392
1.0166177908113392
1.0195503421309873
1.024437927663734
1.0263929618768328
1.0273704789833822
1.0273704789833822
1.0273704789833822
1.0263929618768328
1.0254154447702837
1.0234604105571847
1.021505376344086
1.0205278592375366
1.0205278592375366
1.024437927663734
1.035190615835777
1.0547409579667644
1.0869990224828934
1.1378299120234605
1.2121212121212122
1.3118279569892473
1.4349951124144673
1.5786901270772238
1.737047898338221
1.9012707722385145
2.064516129032258
2.218963831867057
2.3421309872922778
2.441837732160313
2.5386119257087
2.624633431085044
2.696969696969697
2.755620723362659
2.803519061583578
2.841642228739003
2.8719452590420333
2.8963831867057674
2.913978494623656
2.924731182795699
2.929618768328446
2.9257086999022484
2.913000977517106
2.895405669599218
2.870967741935484
2.835777126099707
2.790811339198436
2.735092864125122
2.6695992179863146
2.595307917888563
2.5141739980449658
2.429130009775171
2.343108504398827
2.2668621700879767
2.1974584555229715
2.1270772238514173
2.060606060606061
2.0009775171065494
1.949169110459433
1.9042033235581624
1.8641251221896384
1.8269794721407624
1.7927663734115349
1.758553274682307
1.7253176930596286
1.6920821114369502
1.6627565982404693
1.6344086021505375
1.603128054740958
1.5698924731182795
1.5366568914956011
1.504398826979472
1.4721407624633431
1.439882697947214
1.409579667644184
1.380254154447703
1.35386119257087
1.3294232649071358
1.3098729227761483
1.2942326490713587
1.2766373411534702
1.260019550342131
1.2434017595307918
1.2267839687194526
1.2111436950146628
1.195503421309873
1.1808406647116323
1.1671554252199414
1.1544477028347997
1.142717497556207
1.130987292277615
1.1241446725317692
1.118279569892473
1.1094819159335287
1.099706744868035
1.0899315738025417
1.0811339198435972
1.0713587487781036
1.0625610948191593
1.0547409579667644
1.0469208211143697
1.040078201368524
1.0332355816226784
1.0312805474095796
1.032258064516129
1.0312805474095796
1.0303030303030305
1.029325513196481
1.029325513196481
1.0303030303030305
1.0312805474095796
1.0332355816226784
1.0342130987292275
1.035190615835777
1.0361681329423265
1.0371456500488758
1.040078201368524
1.0449657869012707
1.0488758553274682
1.0518084066471165
1.053763440860215
1.056695992179863
1.0596285434995112
1.06158357771261
1.0625610948191593
1.0635386119257086
1.0635386119257086
1.0635386119257086
1.0654936461388074
1.0694037145650048
1.0713587487781036
1.072336265884653
1.0762463343108504
1.0869990224828934
1.1085043988269794
1.1456500488758554
1.2052785923753666
1.2903225806451613
1.4007820136852396
1.533724340175953
1.6842619745845553
1.8240469208211143
1.9589442815249267
2.110459433040078
2.260997067448681
2.40078201368524
2.5249266862170088
2.63049853372434
2.716520039100684
2.7859237536656893
2.8406647116324537
2.8836754643206257
2.916911045943304
2.936461388074292
2.9472140762463344
2.959921798631476
2.970674486803519
2.975562072336266
2.973607038123167
2.963831867057673
2.9442815249266863
2.913978494623656
2.8729227761485827
2.8211143695014664
2.758553274682307
2.686217008797654
2.6129032258064515
2.5386119257087
2.4545454545454546
2.367546432062561
2.2825024437927666
2.201368523949169
2.1280547409579667
2.0625610948191597
2.004887585532747
1.9550342130987293
1.911045943304008
1.871945259042033
1.8387096774193548
1.8093841642228736
1.7781036168132942
1.7458455522971652
1.7145650048875856
1.6823069403714566
1.6490713587487782
1.6158357771260996
1.5826001955034212
1.5493646138807429
1.5161290322580645
1.4838709677419355
1.452590420332356
1.4271749755620724
1.404692082111437
1.380254154447703
1.3558162267839686
1.332355816226784
1.3088954056695992
1.2864125122189638
1.2658846529814272
1.2473118279569892
1.23069403714565
1.2150537634408602
1.1994134897360704
1.1886608015640274
1.1798631476050832
1.1691104594330402
1.1583577712609971
1.1485826001955035
1.13880742913001
1.1290322580645162
1.1202346041055715
1.110459433040078
1.1016617790811338
1.0928641251221896
1.0850439882697946
1.0762463343108504
1.0713587487781036
1.067448680351906
1.06158357771261
1.0547409579667644
1.0478983382209188
1.0410557184750733
1.0361681329423265
1.032258064516129
1.029325513196481
1.0273704789833822
1.0254154447702837
1.0234604105571847
1.0234604105571847
1.024437927663734
1.024437927663734
1.0234604105571847
1.021505376344086
1.0205278592375366
1.021505376344086
1.0224828934506354
1.024437927663734
1.0254154447702837
1.0273704789833822
1.029325513196481
1.0332355816226784
1.0371456500488758
1.0391006842619743
1.040078201368524
1.0410557184750733
1.0420332355816226
1.0439882697947214
1.0469208211143697
1.0518084066471165
1.0596285434995112
1.075268817204301
1.1036168132942326
1.1505376344086022
1.2072336265884651
1.2805474095796676
1.3870967741935485
1.521016617790811
1.678396871945259
1.8514173998044965
2.03128054740958
2.207233626588465
2.3714565004887587
2.5180840664711632
2.644183773216031
2.7497556207233624
2.8240469208211145
2.87683284457478
2.927663734115347
2.972629521016618
3.010752688172043
3.0439882697947214
3.072336265884653
3.096774193548387
3.1163245356793743
3.1300097751710654
3.136852394916911
3.133919843597263
3.121212121212121
3.096774193548387
3.06158357771261
3.016617790811339
2.961876832844575
2.8963831867057674
2.822091886608016
2.7419354838709675
2.658846529814272
2.575757575757576
2.4946236559139785
2.419354838709677
2.350928641251222
2.272727272727273
2.1925708699902247
2.134897360703812
2.088954056695992
2.0498533724340176
2.01564027370479
1.9833822091886608
1.9521016617790807
1.919843597262952
1.8856304985337244
1.8494623655913975
1.812316715542522
1.7741935483870968
1.7409579667644184
1.7086999022482894
1.672531769305963
1.6344086021505375
1.5972629521016617
1.5610948191593352
1.525904203323558
1.4916911045943304
1.458455522971652
1.4271749755620724
1.396871945259042
1.367546432062561
1.343108504398827
1.3225806451612905
1.2991202346041055
1.2746823069403714
1.249266862170088
1.2258064516129032
1.203323558162268
1.1808406647116323
1.160312805474096
1.1407624633431086
1.1231671554252198
1.1065493646138806
1.0909090909090908
1.0801564027370478
1.0713587487781036
1.0606060606060606
1.0488758553274682
1.0371456500488758
1.0263929618768328
1.0166177908113392
1.0068426197458455
0.9980449657869012
0.989247311827957
0.9804496578690128
0.9736070381231672
0.9706744868035192
0.9696969696969696
0.9667644183773216
0.9638318670576737
0.9608993157380256
0.9589442815249268
0.9579667644183774
0.956989247311828
0.956989247311828
0.956989247311828
0.9579667644183774
0.9589442815249268
0.9608993157380256
0.9638318670576737
0.9687194525904204
0.9716520039100685
0.9745845552297164
0.9765395894428152
0.978494623655914
0.9804496578690128
0.9824046920821116
0.9843597262952102
0.9853372434017597
0.9863147605083088
0.9882697947214076
0.9931573802541545
1.0019550342130987
1.0156402737047898
1.0391006842619743
1.078201368523949
1.1368523949169111
1.2189638318670577
1.324535679374389
1.4516129032258065
1.595307917888563
1.7487781036168133
1.905180840664712
2.056695992179863
2.179863147605083
2.281524926686217
2.3822091886608017
2.4731182795698925
2.548387096774193
2.608993157380254
2.6578690127077222
2.696969696969697
2.7282502443792764
2.752688172043011
2.771260997067449
2.7839687194525906
2.7869012707722387
2.782991202346041
2.776148582600196
2.764418377321604
2.744868035190616
2.716520039100684
2.678396871945259
2.6295210166177907
2.570869990224829
2.5024437927663734
2.4271749755620724
2.347018572825025
2.264907135874878
2.1925708699902247
2.1270772238514173
2.06158357771261
2.0
1.945259042033236
1.8973607038123168
1.855327468230694
1.818181818181818
1.7849462365591398
1.75366568914956
1.7243401759530792
1.6950146627565983
1.6695992179863148
1.6451612903225807
1.6177908113391983
1.5884652981427174
1.5591397849462365
1.5278592375366569
1.4965786901270772
1.466275659824047
1.436950146627566
1.409579667644184
1.383186705767351
1.3577712609970674
1.3333333333333333
1.313782991202346
1.2971652003910068
1.278592375366569
1.260019550342131
1.2424242424242424
1.2258064516129032
1.2111436950146628
1.1974584555229717
1.1857282502443791
1.173998044965787
1.1622678396871946
1.1515151515151516
1.1436950146627567
1.1378299120234605
1.1300097751710656
1.121212121212121
1.1124144672531768
1.1036168132942326
1.0948191593352885
1.086021505376344
1.078201368523949
1.0703812316715542
1.0635386119257086
1.056695992179863
1.0527859237536656
1.0498533724340176
1.0449657869012707
1.0391006842619743
1.032258064516129
1.0254154447702837
1.0195503421309873
1.0156402737047898
1.0127077223851415
1.010752688172043
1.010752688172043
1.010752688172043
1.0117302052785924
1.0146627565982405
1.018572825024438
1.021505376344086
1.024437927663734
1.029325513196481
1.0361681329423265
1.0439882697947214
1.053763440860215
1.064516129032258
1.0762463343108504
1.0879765395894427
1.0987292277614855
1.1085043988269794
1.1173020527859236
1.121212121212121
1.1221896383186705
1.1192570869990224
1.1133919843597262
1.1055718475073313
1.0957966764418376
1.0869990224828934
1.0850439882697946
1.093841642228739
1.1202346041055715
1.1681329423264908
1.2258064516129032
1.2971652003910068
1.3958944281524928
1.517106549364614
1.653958944281525
1.7986314760508308
1.9413489736070384
2.078201368523949
2.204301075268817
2.317693059628544
2.4173998044965788
2.504398826979472
2.567937438905181
2.6177908113391983
2.6695992179863146
2.721407624633431
2.771260997067449
2.819159335288368
2.86217008797654
2.8993157380254155
2.929618768328446
2.9501466275659824
2.959921798631476
2.956989247311828
2.940371456500489
2.9100684261974585
2.868035190615836
2.812316715542522
2.742913000977517
2.662756598240469
2.5747800586510263
2.482893450635386
2.3900293255131966
2.300097751710655
2.2160312805474094
2.139784946236559
2.071358748778104
2.0146627565982405
1.9667644183773216
1.919843597262952
1.87683284457478
1.835777126099707
1.796676441837732
1.7595307917888563
1.7233626588465298
1.6871945259042034
1.651026392961877
1.6158357771260996
1.581622678396872
1.5493646138807429
1.5239491691104594
1.5024437927663734
1.4819159335288368
1.4633431085043989
1.447702834799609
1.4349951124144673
1.4349951124144673
1.4418377321603129
1.4428152492668622
1.4408602150537635
1.4379276637341154
1.434017595307918
1.4320625610948192
1.4291300097751711
1.423264907135875
1.414467253176931
1.4027370478983383
1.388074291300098
1.3714565004887584
1.3528836754643203
1.3333333333333333
1.3118279569892473
1.2883675464320623
1.2649071358748778
1.2404692082111437
1.2209188660801564
1.203323558162268
1.1827956989247312
1.1612903225806452
1.1397849462365592
1.1192570869990224
1.0987292277614855
1.0801564027370478
1.064516129032258
1.0518084066471165
1.0420332355816226
1.0361681329423265
1.0342130987292275
1.0361681329423265
1.0371456500488758
1.0391006842619743
1.043010752688172
1.0478983382209188
1.0527859237536656
1.0586510263929618
1.0654936461388074
1.072336265884653
1.0791788856304985
1.086021505376344
1.0928641251221896
1.1006842619745845
1.10752688172043
1.1114369501466277
1.1143695014662756
1.1173020527859236
1.118279569892473
1.118279569892473
1.1173020527859236
1.1163245356793745
1.115347018572825
1.115347018572825
1.121212121212121
1.1329423264907137
1.1544477028347997
1.1915933528836755
1.249266862170088
1.3304007820136852
1.4330400782013686
1.5542521994134897
1.6911045943304008
1.835777126099707
1.9804496578690127
2.1192570869990224
2.24633431085044
2.358748778103617
2.441837732160313
2.505376344086021
2.565982404692082
2.618768328445748
2.6637341153470184
2.701857282502444
2.7341153470185726
2.760508308895406
2.7810361681329425
2.795698924731183
2.8044965786901277
2.806451612903226
2.798631476050831
2.782991202346041
2.7614858260019552
2.732160312805474
2.69208211143695
2.6422287390029324
2.582600195503421
2.515151515151515
2.439882697947214
2.360703812316716
2.280547409579668
2.201368523949169
2.1251221896383186
2.059628543499511
2.002932551319648
1.948191593352884
1.8973607038123168
1.8523949169110456
1.812316715542522
1.7761485826001957
1.7429130009775171
1.7116324535679377
1.6813294232649072
1.651026392961877
1.619745845552297
1.5933528836754642
1.5679374389051808
1.5405669599217986
1.5102639296187683
1.479960899315738
1.4506353861192571
1.423264907135875
1.396871945259042
1.3724340175953078
1.3499511241446724
1.327468230694037
1.3069403714565004
1.2883675464320623
1.2746823069403714
1.2649071358748778
1.2541544477028348
1.2424242424242424
1.23069403714565
1.219941348973607
1.209188660801564
1.198435972629521
1.187683284457478
1.1779081133919844
1.1681329423264908
1.1593352883675463
1.1534701857282503
1.1495601173020529
1.142717497556207
1.1348973607038124
1.1270772238514175
1.118279569892473
1.1085043988269794
1.099706744868035
1.0918866080156402
1.0840664711632453
1.0772238514173995
1.0703812316715542
1.0664711632453567
1.064516129032258
1.06158357771261
1.0596285434995112
1.0576735092864125
1.0557184750733135
1.053763440860215
1.0527859237536656
1.0518084066471165
1.050830889540567
1.050830889540567
1.050830889540567
1.0518084066471165
1.053763440860215
1.056695992179863
1.0586510263929618
1.0596285434995112
1.0596285434995112
1.0596285434995112
1.0596285434995112
1.0596285434995112
1.0596285434995112
1.0596285434995112
1.0596285434995112
1.0596285434995112
1.06158357771261
1.0654936461388074
1.067448680351906
1.0703812316715542
1.0762463343108504
1.088954056695992
1.1133919843597262
1.1544477028347997
1.2160312805474096
1.300097751710655
1.4076246334310851
1.5356793743890518
1.6793743890518085
1.8103616813294232
1.932551319648094
2.0664711632453567
2.198435972629521
2.3196480938416424
2.426197458455523
2.515151515151515
2.5884652981427174
2.6471163245356792
2.6940371456500487
2.730205278592375
2.758553274682307
2.7751710654936463
2.782991202346041
2.790811339198436
2.795698924731183
2.795698924731183
2.790811339198436
2.7781036168132944
2.757575757575758
2.727272727272727
2.686217008797654
2.635386119257087
2.575757575757576
2.50733137829912
2.439882697947214
2.3714565004887587
2.2961876832844577
2.218963831867057
2.1436950146627565
2.0733137829912023
2.0097751710654936
1.95405669599218
1.9042033235581624
1.86119257086999
1.823069403714565
1.7888563049853372
1.761485826001955
1.7360703812316716
1.7086999022482894
1.6813294232649072
1.6529814271749756
1.624633431085044
1.5962854349951123
1.565982404692082
1.5356793743890518
1.504398826979472
1.4731182795698925
1.4428152492668622
1.414467253176931
1.3919843597262953
1.3714565004887584
1.3499511241446724
1.3284457478005864
1.3079178885630498
1.289345063538612
1.2717497556207231
1.2551319648093842
1.2394916911045943
1.224828934506354
1.2111436950146628
1.1974584555229717
1.187683284457478
1.1798631476050832
1.1710654936461389
1.1612903225806452
1.1505376344086022
1.1407624633431086
1.130987292277615
1.1221896383186705
1.1133919843597262
1.104594330400782
1.0948191593352885
1.086021505376344
1.0772238514173995
1.0654936461388074
1.0527859237536656
1.043010752688172
