ppg
1.5278592375366569
1.520039100684262
1.5141739980449658
1.517106549364614
1.5405669599217986
1.595307917888563
1.6920821114369502
1.83088954056696
1.9872922776148585
2.164222873900293
2.366568914956012
2.539589442815249
2.677419354838709
2.798631476050831
2.8826979472140764
2.9237536656891496
2.9257086999022484
2.897360703812317
2.8484848484848486
2.788856304985337
2.729227761485826
2.674486803519061
2.6285434995112413
2.591397849462365
2.5610948191593352
2.535679374389052
2.515151515151515
2.4946236559139785
2.4711632453567938
2.441837732160313
2.401759530791789
2.3489736070381237
2.280547409579668
2.198435972629521
2.1065493646138806
2.0097751710654936
1.9227761485826005
1.8435972629521016
1.761485826001955
1.6852394916911049
1.6217008797653958
1.5718475073313782
1.5356793743890518
1.512218963831867
1.4975562072336266
1.4868035190615836
1.47702834799609
1.4633431085043989
1.444770283479961
1.4252199413489737
1.4056695992179864
1.380254154447703
1.348973607038123
1.3157380254154447
1.2795698924731185
1.2443792766373412
1.2101661779081134
1.1779081133919844
1.1485826001955035
1.1192570869990224
1.0909090909090908
1.0684261974584557
1.050830889540567
1.032258064516129
1.0146627565982405
0.9990224828934506
0.9863147605083088
0.975562072336266
0.9687194525904204
0.9648093841642228
0.9628543499511242
0.9628543499511242
0.9648093841642228
0.967741935483871
0.9736070381231672
0.981427174975562
0.9872922776148584
0.9921798631476052
0.9980449657869012
1.0058651026392962
1.0117302052785924
1.0146627565982405
1.0156402737047898
1.0166177908113392
1.0146627565982405
1.0097751710654936
1.0068426197458455
1.0039100684261977
0.9941348973607038
0.9833822091886608
0.978494623655914
0.9882697947214076
1.0263929618768328
1.1055718475073313
1.2346041055718475
1.414467253176931
1.635386119257087
1.8826979472140764
2.103616813294233
2.2952101661779083
2.4789833822091887
2.625610948191593
2.7233626588465296
2.7722385141739982
2.7781036168132944
2.752688172043011
2.708699902248289
2.653958944281525
2.5992179863147604
2.549364613880743
2.509286412512219
2.4789833822091887
2.4565004887585533
2.443792766373412
2.4349951124144678
2.4271749755620724
2.41544477028348
2.396871945259042
2.366568914956012
2.32355816226784
2.267839687194526
2.20039100684262
2.1251221896383186
2.056695992179863
1.9931573802541545
1.927663734115347
1.8699902248289344
1.823069403714565
1.7898338220918866
1.76930596285435
1.758553274682307
1.7526881720430108
1.7487781036168133
1.7438905180840665
1.7350928641251222
1.721407624633431
1.6979472140762464
1.6764418377321604
1.6588465298142718
1.6363636363636365
1.6099706744868034
1.581622678396872
1.555229716520039
1.5298142717497556
1.5053763440860215
1.482893450635386
1.4633431085043989
1.4457478005865103
1.4320625610948192
1.4222873900293256
1.4134897360703813
1.404692082111437
1.3958944281524928
1.3870967741935485
1.3812316715542523
1.3763440860215057
1.3724340175953078
1.3714565004887584
1.3734115347018572
1.3763440860215057
1.3812316715542523
1.3890518084066472
1.396871945259042
1.404692082111437
1.412512218963832
1.4203323558162269
1.4281524926686218
1.435972629521017
1.4437927663734116
1.4516129032258065
1.458455522971652
1.4613880742913
1.4633431085043989
1.4652981427174976
1.466275659824047
1.4633431085043989
1.456500488758553
1.4486803519061584
1.4437927663734116
1.4496578690127078
1.478005865102639
1.5386119257087
1.6441837732160314
1.8592375366568916
2.085043988269794
2.259042033235582
2.43108504398827
2.589442815249267
2.752688172043011
2.8885630498533725
2.981427174975562
3.0283479960899315
3.034213098729228
3.007820136852395
2.960899315738025
2.902248289345064
2.841642228739003
2.7869012707722387
2.7390029325513194
2.697947214076246
2.665689149560117
2.643206256109482
2.625610948191593
2.6041055718475072
2.572825024437928
2.547409579667644
2.5219941348973607
2.4574780058651027
2.386119257086999
2.3255131964809386
2.243401759530792
2.160312805474096
2.0772238514174
1.986314760508309
1.878787878787879
1.7741935483870968
1.7086999022482894
1.6686217008797657
1.629521016617791
1.5992179863147604
1.5786901270772238
1.5581622678396871
1.5386119257087
1.517106549364614
1.4926686217008798
1.4633431085043989
1.43108504398827
1.3958944281524928
1.3685239491691104
1.3333333333333333
1.295210166177908
1.2580645161290325
1.2130987292277615
1.1759530791788857
1.1436950146627567
1.1192570869990224
1.0987292277614855
1.075268817204301
1.0527859237536656
1.0332355816226784
1.0166177908113392
1.0048875855327468
0.9951124144672532
0.9863147605083088
0.9775171065493646
0.9716520039100685
0.967741935483871
0.967741935483871
0.9706744868035192
0.9716520039100685
0.9726295210166178
0.9726295210166178
0.9726295210166178
0.9726295210166178
0.9736070381231672
0.975562072336266
0.978494623655914
0.9833822091886608
0.989247311827957
0.9941348973607038
1.0009775171065494
1.0097751710654936
1.0156402737047898
1.0273704789833822
1.0410557184750733
1.04594330400782
1.0488758553274682
1.056695992179863
1.0821114369501466
1.1407624633431086
1.2434017595307918
1.3949169110459434
1.5571847507331378
1.7350928641251222
1.95405669599218
2.1818181818181817
2.3900293255131966
2.557184750733138
2.6725317693059627
2.735092864125122
2.7497556207233624
2.7282502443792764
2.6823069403714563
2.622678396871945
2.560117302052786
2.505376344086021
2.458455522971652
2.4173998044965788
2.3841642228739004
2.358748778103617
2.340175953079179
2.3255131964809386
2.310850439882698
2.291300097751711
2.26197458455523
2.218963831867057
2.164222873900293
2.10850439882698
2.0498533724340176
1.981427174975562
1.9120234604105573
1.8465298142717497
1.7888563049853372
1.7429130009775171
1.7096774193548387
1.6881720430107527
1.6774193548387095
1.6744868035190617
1.6735092864125125
1.6735092864125125
1.6735092864125125
1.6705767350928642
1.6627565982404693
1.6500488758553276
1.6334310850439884
1.6138807429130009
1.5933528836754642
1.5708699902248289
1.5493646138807429
1.5298142717497556
1.5102639296187683
1.4926686217008798
1.478005865102639
1.4652981427174976
1.4506353861192571
1.4349951124144673
1.4203323558162269
1.4066471163245358
1.3949169110459434
1.383186705767351
1.3724340175953078
1.364613880742913
1.3587487781036167
1.35386119257087
1.3509286412512218
1.3499511241446724
1.3470185728250244
1.3440860215053765
1.3421309872922775
1.343108504398827
1.3470185728250244
1.3528836754643203
1.359726295210166
1.3665689149560116
1.3724340175953078
1.3773216031280548
1.3822091886608017
1.3870967741935485
1.3919843597262953
1.3949169110459434
1.393939393939394
1.3900293255131966
1.380254154447703
1.3665689149560116
1.3509286412512218
1.3401759530791788
1.3450635386119256
1.3773216031280548
1.4496578690127078
1.542521994134897
1.664711632453568
1.839687194525904
2.047898338220919
2.2658846529814274
2.4711632453567938
2.644183773216031
2.7722385141739982
2.8514173998044967
2.884652981427175
2.881720430107527
2.8533724340175954
2.8084066471163247
2.760508308895406
2.7116324535679373
2.6637341153470184
2.621700879765396
2.587487781036168
2.5620723362658846
2.5434995112414467
2.5288367546432062
2.515151515151515
2.498533724340176
2.4760508308895406
2.444770283479961
2.4056695992179864
2.357771260997068
2.2961876832844577
2.2238514173998043
2.1417399804496577
2.0557184750733137
1.9745845552297163
1.9012707722385145
1.8387096774193548
1.790811339198436
1.7565982404692082
1.7331378299120237
1.718475073313783
1.70772238514174
1.699902248289345
1.6901270772238517
1.6764418377321604
1.6608015640273706
1.6422287390029326
1.6187683284457477
1.590420332355816
1.560117302052786
1.530791788856305
1.500488758553275
1.4701857282502444
1.444770283479961
1.423264907135875
1.3988269794721409
1.375366568914956
1.35386119257087
1.3343108504398826
1.3157380254154447
1.300097751710655
1.2854349951124144
1.2717497556207231
1.2590420332355816
1.2482893450635386
1.2394916911045943
1.2336265884652982
1.23069403714565
1.2287390029325511
1.227761485826002
1.227761485826002
1.23069403714565
1.2355816226783969
1.2424242424242424
1.249266862170088
1.2551319648093842
1.2580645161290325
1.2590420332355816
1.2609970674486803
1.2639296187683284
1.2658846529814272
1.2668621700879763
1.2649071358748778
1.2609970674486803
1.2531769305962854
1.2404692082111437
1.2238514173998043
1.2052785923753666
1.1915933528836755
1.1925708699902249
1.2218963831867058
1.2727272727272727
1.356793743890518
1.4936461388074291
1.675464320625611
1.8875855327468232
2.1094819159335287
2.317693059628544
2.490713587487781
2.6158357771261
2.6881720430107525
2.710654936461388
2.6930596285435
2.654936461388074
2.603128054740958
2.5405669599217986
2.47702834799609
2.419354838709677
2.3714565004887587
2.334310850439883
2.3069403714565007
2.286412512218964
2.271749755620724
2.2580645161290325
2.243401759530792
2.222873900293255
2.1955034213098727
2.158357771260997
2.1065493646138806
2.043010752688172
1.9696969696969695
1.889540566959922
1.8093841642228736
1.7350928641251222
1.6686217008797657
1.6129032258064515
1.56891495601173
1.5376344086021505
1.5190615835777126
1.5083088954056696
1.499511241446725
1.4936461388074291
1.487781036168133
1.478983382209189
1.4672531769305963
1.452590420332356
1.4349951124144673
1.414467253176931
1.391006842619746
1.3655913978494625
1.3401759530791788
1.3186705767350928
1.3010752688172045
1.2834799608993157
1.2639296187683284
1.2443792766373412
1.224828934506354
1.206256109481916
1.1906158357771262
1.176930596285435
1.1652003910068427
1.1544477028347997
1.1466275659824048
1.142717497556207
1.1407624633431086
1.1358748778103618
1.1290322580645162
1.1221896383186705
1.115347018572825
1.1094819159335287
1.104594330400782
1.1006842619745845
1.0987292277614855
1.0879765395894427
1.0733137829912025
1.067448680351906
1.0684261974584557
1.0733137829912025
1.0772238514173995
1.083088954056696
1.088954056695992
1.093841642228739
1.0977517106549364
1.1006842619745845
1.1016617790811338
1.099706744868035
1.099706744868035
1.1085043988269794
1.1290322580645162
1.1710654936461389
1.2531769305962854
1.3861192570869991
1.5698924731182795
1.7947214076246334
2.043010752688172
2.291300097751711
2.5141739980449658
2.69208211143695
2.812316715542522
2.87683284457478
2.89345063538612
2.874877810361681
2.8299120234604107
2.7673509286412514
2.697947214076246
2.6295210166177907
2.567937438905181
2.520039100684262
2.484848484848485
2.4613880742913
2.44672531769306
2.4359726295210167
2.4252199413489737
2.409579667644184
2.3870967741935485
2.355816226783969
2.313782991202346
2.259042033235582
2.1915933528836757
2.115347018572825
2.038123167155425
1.963831867057673
1.8993157380254155
1.8455522971652003
1.8035190615835777
1.7761485826001957
1.7595307917888563
1.747800586510264
1.739980449657869
1.7331378299120237
1.7243401759530792
1.7135874877810362
1.6979472140762464
1.6764418377321604
1.651026392961877
1.6226783968719452
1.5923753665689149
1.560117302052786
1.533724340175953
1.512218963831867
1.4897360703812317
1.466275659824047
1.4428152492668622
1.4193548387096775
1.3978494623655917
1.380254154447703
1.364613880742913
1.3509286412512218
1.33822091886608
1.327468230694037
1.3196480938416422
1.3147605083088951
1.3098729227761483
1.305962854349951
1.3020527859237536
1.2981427174975562
1.2961876832844574
1.2971652003910068
1.2991202346041055
1.303030303030303
1.310850439882698
1.3206256109481915
1.3313782991202343
1.3411534701857282
1.3509286412512218
1.3587487781036167
1.364613880742913
1.370478983382209
1.3763440860215057
1.380254154447703
1.3822091886608017
1.3822091886608017
1.3792766373411536
1.3714565004887584
1.3587487781036167
1.3470185728250244
1.3411534701857282
1.346041055718475
1.375366568914956
1.4428152492668622
1.560117302052786
1.7272727272727273
1.9364613880742916
2.1730205278592374
2.4134897360703813
2.632453567937439
2.8103616813294234
2.936461388074292
3.005865102639296
3.027370478983382
3.01564027370479
2.978494623655914
2.9237536656891496
2.8611925708699903
2.7976539589442817
2.7390029325513194
2.689149560117302
2.649071358748778
2.6207233626588464
2.60019550342131
2.581622678396872
2.5650048875855327
2.547409579667644
2.5239491691104594
2.4916911045943304
2.44672531769306
2.388074291300098
2.317693059628544
2.2385141739980448
2.1524926686217007
2.0635386119257086
1.9775171065493649
1.8993157380254155
1.8377321603128052
1.790811339198436
1.7526881720430108
1.7233626588465298
1.7018572825024438
1.6842619745845553
1.667644183773216
1.651026392961877
1.6334310850439884
1.6109481915933528
1.58455522971652
1.5532746823069403
1.5239491691104594
1.495601173020528
1.4613880742913
1.4252199413489737
1.3890518084066472
1.3528836754643203
1.3176930596285434
1.2834799608993157
1.252199413489736
1.2218963831867058
1.1915933528836755
1.163245356793744
1.13880742913001
1.121212121212121
1.10752688172043
1.0909090909090908
1.0733137829912025
1.0576735092864125
1.0439882697947214
1.0312805474095796
1.0195503421309873
1.010752688172043
1.0058651026392962
1.002932551319648
1.0019550342130987
1.002932551319648
1.0058651026392962
1.0068426197458455
1.007820136852395
1.0087976539589445
1.0117302052785924
1.013685239491691
1.0146627565982405
1.0156402737047898
1.0146627565982405
1.0127077223851415
1.0087976539589445
1.0
0.9931573802541545
0.9863147605083088
0.9765395894428152
0.9706744868035192
0.9824046920821116
1.029325513196481
1.1241446725317692
1.2746823069403714
1.478005865102639
1.721407624633431
1.981427174975562
2.23069403714565
2.4242424242424243
2.5620723362658846
2.664711632453568
2.718475073313783
2.7253176930596283
2.695014662756598
2.6392961876832843
2.570869990224829
2.498533724340176
2.4301075268817205
2.3714565004887587
2.3255131964809386
2.291300097751711
2.267839687194526
2.2521994134897363
2.241446725317693
2.23069403714565
2.21505376344086
2.190615835777126
2.1544477028347995
2.104594330400782
2.0410557184750733
1.9687194525904204
1.8905180840664717
1.8132942326490715
1.7497556207233629
1.6979472140762464
1.6529814271749756
1.6177908113391983
1.5943304007820136
1.5796676441837731
1.5728250244379276
1.5698924731182795
1.5679374389051808
1.564027370478983
1.5571847507331378
1.5464320625610948
1.5317693059628543
1.5180840664711632
1.5024437927663734
1.4819159335288368
1.458455522971652
1.4349951124144673
1.412512218963832
1.392961876832845
1.3773216031280548
1.3636363636363635
1.3509286412512218
1.3372434017595307
1.3235581622678396
1.3128054740957966
1.3020527859237536
1.289345063538612
1.2756598240469208
1.2688172043010753
1.2658846529814272
1.2609970674486803
1.2551319648093842
1.2482893450635386
1.241446725317693
1.2375366568914956
1.2355816226783969
1.2365591397849462
1.2404692082111437
1.24633431085044
1.2541544477028348
1.262952101661779
1.2697947214076246
1.2746823069403714
1.2795698924731185
1.2834799608993157
1.2883675464320623
1.2942326490713587
1.2981427174975562
1.3020527859237536
1.3069403714565004
1.310850439882698
1.3098729227761483
1.3049853372434017
1.3020527859237536
1.3079178885630498
1.3343108504398826
1.3958944281524928
1.501466275659824
1.653958944281525
1.847507331378299
2.0684261974584555
2.2668621700879767
2.439882697947214
2.6099706744868034
2.748778103616813
2.841642228739003
2.887585532746823
2.89247311827957
2.8670576735092865
2.820136852394917
2.763440860215054
2.7067448680351904
2.652003910068426
2.6041055718475072
2.5669599217986314
2.5386119257087
2.517106549364614
2.5004887585532747
2.486803519061584
2.472140762463343
2.453567937438905
2.4271749755620724
2.3900293255131966
2.3421309872922778
2.280547409579668
2.209188660801564
2.139784946236559
2.0733137829912023
2.003910068426197
1.9364613880742916
1.8748778103616808
1.823069403714565
1.782991202346041
1.7546432062561097
1.7360703812316716
1.7233626588465298
1.7116324535679377
1.699902248289345
1.6852394916911049
1.6705767350928642
1.6549364613880744
1.635386119257087
1.6099706744868034
1.5806451612903225
1.5493646138807429
1.5190615835777126
1.4897360703812317
1.4633431085043989
1.4389051808406648
1.4164222873900294
1.3949169110459434
1.3792766373411536
1.3655913978494625
1.348973607038123
1.3333333333333333
1.3196480938416422
1.3079178885630498
1.2961876832844574
1.2854349951124144
1.2766373411534702
1.267839687194526
1.2609970674486803
1.2570869990224829
1.2551319648093842
1.2561094819159335
1.2619745845552297
1.267839687194526
1.2756598240469208
1.284457478005865
1.29227761485826
1.300097751710655
1.3069403714565004
1.3128054740957966
1.3176930596285434
1.321603128054741
1.3255131964809383
1.3304007820136852
1.3333333333333333
1.3333333333333333
1.3294232649071358
1.3196480938416422
1.3049853372434017
1.2883675464320623
1.2795698924731185
1.2864125122189638
1.321603128054741
1.3988269794721409
1.5249266862170088
1.699902248289345
1.8778103616813293
2.058651026392962
2.2639296187683287
2.4604105571847508
2.6236559139784945
2.7390029325513194
2.803519061583578
2.819159335288368
2.7947214076246336
2.7438905180840663
2.679374389051808
2.6099706744868034
2.5454545454545454
2.487781036168133
2.4349951124144678
2.3900293255131966
2.35386119257087
2.3284457478005867
2.3098729227761488
2.2932551319648096
2.272727272727273
2.244379276637341
2.206256109481916
2.1544477028347995
2.089931573802541
2.0254154447702835
1.956989247311828
1.8758553274682308
1.790811339198436
1.7116324535679377
1.6422287390029326
1.585532746823069
1.543499511241447
1.5151515151515151
1.4975562072336266
1.487781036168133
1.4809384164222874
1.4760508308895406
1.4711632453567938
1.4623655913978495
1.447702834799609
1.4291300097751711
1.4076246334310851
1.383186705767351
1.3577712609970674
1.3313782991202343
1.303030303030303
1.273704789833822
1.2453567937438903
1.2189638318670577
1.1974584555229717
1.1808406647116323
1.1622678396871946
1.1436950146627567
1.1251221896383188
1.1065493646138806
1.0879765395894427
1.0703812316715542
1.0547409579667644
1.0420332355816226
1.032258064516129
1.0254154447702837
1.024437927663734
1.0283479960899315
1.0332355816226784
1.0381231671554252
1.043010752688172
1.0469208211143697
1.050830889540567
1.0547409579667644
1.0586510263929618
1.0625610948191593
1.0664711632453567
1.0703812316715542
1.0733137829912025
1.0791788856304985
1.0850439882697946
1.0869990224828934
1.086021505376344
1.0821114369501466
1.0762463343108504
1.067448680351906
1.0606060606060606
1.0625610948191593
1.0850439882697946
1.141739980449658
1.2453567937438903
1.3714565004887584
1.525904203323558
1.7360703812316716
1.9765395894428155
2.2170087976539588
2.4330400782013686
2.606060606060606
2.7253176930596283
2.788856304985337
2.8025415444770285
2.777126099706745
2.7253176930596283
2.658846529814272
2.593352883675464
2.533724340175953
2.47702834799609
2.4271749755620724
2.388074291300098
2.360703812316716
2.343108504398827
2.332355816226784
2.324535679374389
2.312805474095797
2.29227761485826
2.259042033235582
2.219941348973607
2.1739980449657867
2.114369501466276
2.04594330400782
1.9745845552297163
1.906158357771261
1.844574780058651
1.793743890518084
1.7565982404692082
1.7302052785923754
1.7135874877810362
1.704789833822092
1.699902248289345
1.6959921798631477
1.689149560117302
1.6793743890518085
1.664711632453568
1.6451612903225807
1.6226783968719452
1.5962854349951123
1.565982404692082
1.5366568914956011
1.5112414467253177
1.4868035190615836
1.4623655913978495
1.4428152492668622
1.4252199413489737
1.4066471163245358
1.3900293255131966
1.3763440860215057
1.3636363636363635
1.3509286412512218
1.3391984359726294
1.3294232649071358
1.3225806451612905
1.3147605083088951
1.3069403714565004
1.303030303030303
1.3010752688172045
1.2981427174975562
1.295210166177908
1.2932551319648091
1.295210166177908
1.3010752688172045
1.3098729227761483
1.3206256109481915
1.3313782991202343
1.343108504398827
1.3548387096774193
1.3655913978494625
1.3743890518084063
1.3822091886608017
1.388074291300098
1.3919843597262953
1.393939393939394
1.393939393939394
1.391006842619746
1.383186705767351
1.370478983382209
1.356793743890518
1.3499511241446724
1.359726295210166
1.3870967741935485
1.4437927663734116
1.5503421309872922
1.710654936461388
1.9149560117302051
2.145650048875855
2.3812316715542523
2.598240469208211
2.776148582600196
2.903225806451613
2.9765395894428157
3.0
2.98435972629521
2.945259042033236
2.8914956011730206
2.8269794721407626
2.7595307917888565
2.695014662756598
2.6392961876832843
2.5962854349951123
2.5650048875855327
2.5425219941348973
2.5249266862170088
2.5083088954056696
2.4887585532746823
2.4652981427174976
2.4349951124144678
2.3919843597262958
2.335288367546432
2.2658846529814274
2.1867057673509285
2.1006842619745845
2.013685239491691
1.9296187683284456
1.8514173998044965
1.782991202346041
1.7272727272727273
1.6852394916911049
1.6588465298142718
1.6412512218963833
1.6265884652981428
1.6138807429130009
1.5992179863147604
1.581622678396872
1.5591397849462365
1.5317693059628543
1.501466275659824
1.4682306940371457
1.4330400782013686
1.3978494623655917
1.3685239491691104
1.3421309872922775
1.3118279569892473
1.281524926686217
1.2502443792766371
1.2189638318670577
1.1886608015640274
1.160312805474096
1.1319648093841643
1.1065493646138806
1.0840664711632453
1.0625610948191593
1.043010752688172
1.0303030303030305
1.0224828934506354
1.013685239491691
1.0048875855327468
0.9980449657869012
0.9931573802541545
0.9912023460410556
0.9902248289345064
0.989247311827957
0.989247311827957
0.989247311827957
0.989247311827957
0.9921798631476052
0.9960899315738024
0.9980449657869012
1.0
1.0019550342130987
1.0039100684261977
1.0058651026392962
1.0068426197458455
1.0068426197458455
1.0039100684261977
0.9960899315738024
0.9843597262952102
0.9745845552297164
0.9745845552297164
0.9912023460410556
1.0371456500488758
1.126099706744868
1.267839687194526
1.4613880742913
1.6979472140762464
1.956989247311828
2.2111436950146626
2.432062561094819
2.601173020527859
2.710654936461388
2.7624633431085046
2.7673509286412514
2.736070381231672
2.679374389051808
2.6080156402737047
2.532746823069404
2.4604105571847508
2.396871945259042
2.345063538611926
2.304007820136853
2.274682306940372
2.2551319648093844
2.241446725317693
2.2297165200391005
2.2160312805474094
2.193548387096774
2.158357771260997
2.1094819159335287
2.048875855327468
1.9794721407624636
1.903225806451613
1.826001955034213
1.75366568914956
1.6901270772238517
1.6383186705767352
1.603128054740958
1.5796676441837731
1.563049853372434
1.5542521994134897
1.5513196480938416
1.5483870967741935
1.544477028347996
1.5376344086021505
1.5268817204301075
1.512218963831867
1.4926686217008798
1.4711632453567938
1.4486803519061584
1.4301075268817205
1.4134897360703813
1.3958944281524928
1.3773216031280548
1.3577712609970674
1.33822091886608
1.3186705767350928
1.2991202346041055
1.281524926686217
1.267839687194526
1.2570869990224829
1.2482893450635386
1.241446725317693
1.2365591397849462
1.2297165200391007
1.2228739002932552
1.2150537634408602
1.2072336265884651
1.2013685239491692
1.198435972629521
1.1974584555229717
1.1964809384164223
1.1964809384164223
1.198435972629521
1.2043010752688172
1.2121212121212122
1.219941348973607
1.2297165200391007
1.2404692082111437
1.249266862170088
1.2580645161290325
1.2649071358748778
1.270772238514174
1.2746823069403714
1.2756598240469208
1.2727272727272727
1.2668621700879763
1.2619745845552297
1.260019550342131
1.2639296187683284
1.2864125122189638
1.3411534701857282
