ppg
1.959921798631476
1.8826979472140764
1.8172043010752688
1.7526881720430108
1.694037145650049
1.643206256109482
1.6011730205278591
1.56891495601173
1.544477028347996
1.5268817204301075
1.5131964809384164
1.5034213098729228
1.4965786901270772
1.4926686217008798
1.4897360703812317
1.4868035190615836
1.482893450635386
1.478005865102639
1.4731182795698925
1.469208211143695
1.466275659824047
1.4643206256109482
1.4633431085043989
1.4633431085043989
1.4643206256109482
1.466275659824047
1.4701857282502444
1.4750733137829912
1.479960899315738
1.4848484848484849
1.4897360703812317
1.4936461388074291
1.4965786901270772
1.499511241446725
1.5024437927663734
1.5053763440860215
1.5083088954056696
1.509286412512219
1.5112414467253177
1.5131964809384164
1.5141739980449658
1.5141739980449658
1.512218963831867
1.5161290322580645
1.521994134897361
1.5239491691104594
1.5249266862170088
1.5249266862170088
1.5239491691104594
1.52297165200391
1.52297165200391
1.5239491691104594
1.5278592375366569
1.5317693059628543
1.5356793743890518
1.5395894428152492
1.543499511241447
1.5464320625610948
1.5493646138807429
1.5562072336265884
1.5698924731182795
1.5962854349951123
1.6392961876832846
1.6911045943304008
1.7546432062561097
1.844574780058651
1.9560117302052784
2.081133919843597
2.2140762463343107
2.347996089931574
2.474095796676442
2.587487781036168
2.687194525904203
2.76930596285435
2.833822091886608
2.881720430107527
2.90811339198436
2.918866080156403
2.9227761485826003
2.920821114369501
2.9120234604105573
2.895405669599218
2.8719452590420333
2.844574780058651
2.8132942326490715
2.779081133919844
2.742913000977517
2.7038123167155423
2.664711632453568
2.6236559139784945
2.5777126099706744
2.5268817204301075
2.4701857282502444
2.407624633431085
2.3391984359726297
2.2658846529814274
2.1867057673509285
2.102639296187683
2.01564027370479
1.9286412512218964
1.8533724340175952
1.7869012707722385
1.718475073313783
1.6549364613880744
1.5992179863147604
1.552297165200391
1.5151515151515151
1.487781036168133
1.4682306940371457
1.4545454545454546
1.444770283479961
1.4389051808406648
1.434017595307918
1.43108504398827
1.4301075268817205
1.426197458455523
1.4222873900293256
1.418377321603128
1.4164222873900294
1.41544477028348
1.414467253176931
1.414467253176931
1.414467253176931
1.414467253176931
1.414467253176931
1.41544477028348
1.4173998044965788
1.418377321603128
1.4193548387096775
1.4213098729227762
1.4242424242424243
1.4271749755620724
1.4301075268817205
1.434017595307918
1.4379276637341154
1.4408602150537635
1.4428152492668622
1.444770283479961
1.447702834799609
1.4506353861192571
1.452590420332356
1.4535679374389052
1.4535679374389052
1.4535679374389052
1.4535679374389052
1.452590420332356
1.452590420332356
1.4535679374389052
1.455522971652004
1.457478005865103
1.4604105571847508
1.4652981427174976
1.4711632453567938
1.47702834799609
1.4838709677419355
1.4916911045943304
1.500488758553275
1.509286412512219
1.521994134897361
1.541544477028348
1.5718475073313782
1.616813294232649
1.6803519061583578
1.7487781036168133
1.826001955034213
1.9296187683284456
2.050830889540567
2.1818181818181817
2.314760508308896
2.443792766373412
2.5620723362658846
2.665689149560117
2.7536656891495603
2.8240469208211145
2.877810361681329
2.909090909090909
2.924731182795699
2.935483870967742
2.9393939393939394
2.936461388074292
2.9266862170087977
2.911045943304008
2.8905180840664717
2.866080156402737
2.8377321603128056
2.8044965786901277
2.768328445747801
2.729227761485826
2.689149560117302
2.6480938416422286
2.6021505376344085
2.550342130987292
2.49266862170088
2.4281524926686218
2.356793743890518
2.2795698924731185
2.1974584555229715
2.1114369501466275
2.024437927663734
1.9393939393939397
1.8670576735092863
1.8054740957966764
1.7438905180840665
1.6881720430107527
1.640273704789834
1.6011730205278591
1.5708699902248289
1.547409579667644
1.5298142717497556
1.517106549364614
1.5073313782991202
1.499511241446725
1.4926686217008798
1.487781036168133
1.482893450635386
1.47702834799609
1.4701857282502444
1.4623655913978495
1.452590420332356
1.4428152492668622
1.4320625610948192
1.4213098729227762
1.4115347018572826
1.4037145650048877
1.3978494623655917
1.3949169110459434
1.392961876832845
1.3900293255131966
1.3861192570869991
1.3822091886608017
1.3792766373411536
1.3773216031280548
1.3743890518084063
1.3724340175953078
1.370478983382209
1.3695014662756595
1.3685239491691104
1.367546432062561
1.3685239491691104
1.3714565004887584
1.3724340175953078
1.3714565004887584
1.3695014662756595
1.3655913978494625
1.3616813294232648
1.3577712609970674
1.35386119257087
1.3509286412512218
1.3479960899315735
1.346041055718475
1.3450635386119256
1.346041055718475
1.346041055718475
1.3450635386119256
1.3440860215053765
1.343108504398827
1.3411534701857282
1.3391984359726294
1.3391984359726294
1.3450635386119256
1.359726295210166
1.3870967741935485
1.4330400782013686
1.487781036168133
1.5562072336265884
1.6520039100684265
1.76930596285435
1.8993157380254155
2.034213098729228
2.1681329423264906
2.2932551319648096
2.4056695992179864
2.5024437927663734
2.581622678396872
2.6422287390029324
2.6803519061583576
2.702834799608993
2.718475073313783
2.7253176930596283
2.7253176930596283
2.718475073313783
2.7038123167155423
2.684261974584555
2.659824046920821
2.632453567937439
2.6021505376344085
2.5698924731182795
2.535679374389052
2.501466275659824
2.4652981427174976
2.4242424242424243
2.3792766373411536
2.3274682306940373
2.269794721407625
2.2052785923753664
2.133919843597263
2.056695992179863
1.9745845552297163
1.8885630498533723
1.7390029325513197
1.5679374389051808
1.4486803519061584
1.3479960899315735
1.2639296187683284
1.1935483870967742
1.1378299120234605
1.0948191593352885
1.0625610948191593
1.0391006842619743
1.0234604105571847
1.013685239491691
1.007820136852395
1.002932551319648
1.0019550342130987
1.002932551319648
1.0009775171065494
0.9980449657869012
0.9931573802541545
0.9863147605083088
0.9794721407624634
0.9736070381231672
0.967741935483871
0.9648093841642228
0.9638318670576737
0.9648093841642228
0.9687194525904204
0.9745845552297164
0.981427174975562
0.9872922776148584
0.9931573802541545
0.9990224828934506
1.0048875855327468
1.010752688172043
1.0166177908113392
1.0224828934506354
1.0273704789833822
1.0332355816226784
1.040078201368524
1.0478983382209188
1.0527859237536656
1.0557184750733135
1.0586510263929618
1.0596285434995112
1.0606060606060606
1.0606060606060606
1.0606060606060606
1.0606060606060606
1.0606060606060606
1.0606060606060606
1.06158357771261
1.0654936461388074
1.0713587487781036
1.0772238514173995
1.083088954056696
1.0879765395894427
1.0928641251221896
1.0977517106549364
1.1036168132942326
1.1114369501466277
1.1231671554252198
1.144672531769306
1.1798631476050832
1.2238514173998043
1.2825024437927663
1.3695014662756595
1.4848484848484849
1.624633431085044
1.7839687194525904
1.9530791788856303
2.12316715542522
2.2873900293255134
2.4379276637341154
2.5698924731182795
2.6823069403714563
2.7722385141739982
2.831867057673509
2.8670576735092865
2.89345063538612
2.90811339198436
2.9100684261974585
2.9012707722385143
2.8836754643206257
2.857282502443793
2.825024437927664
2.7869012707722387
2.745845552297165
2.7008797653958942
2.654936461388074
2.6080156402737047
2.5562072336265884
2.498533724340176
2.4359726295210167
2.3685239491691106
2.2952101661779083
2.21505376344086
2.1270772238514173
2.032258064516129
1.9296187683284456
1.8211143695014664
1.710654936461388
1.6148582600195502
1.5288367546432062
1.4379276637341154
1.35386119257087
1.2805474095796676
1.2189638318670577
1.1691104594330402
1.1300097751710656
1.1016617790811338
1.0821114369501466
1.0684261974584557
1.0596285434995112
1.056695992179863
1.056695992179863
1.0557184750733135
1.0547409579667644
1.0527859237536656
1.0498533724340176
1.04594330400782
1.0410557184750733
1.0361681329423265
1.0303030303030305
1.0254154447702837
1.0224828934506354
1.0205278592375366
1.021505376344086
1.024437927663734
1.0263929618768328
1.029325513196481
1.032258064516129
1.0371456500488758
1.0420332355816226
1.0469208211143697
1.0527859237536656
1.0586510263929618
1.0654936461388074
1.0733137829912025
1.0811339198435972
1.0879765395894427
1.0928641251221896
1.096774193548387
1.099706744868035
1.1026392961876832
1.1026392961876832
1.1016617790811338
1.1006842619745845
1.0987292277614855
1.096774193548387
1.0957966764418376
1.0957966764418376
1.0977517106549364
1.1016617790811338
1.1065493646138806
1.1133919843597262
1.121212121212121
1.1319648093841643
1.142717497556207
1.1534701857282503
1.1652003910068427
1.1788856304985338
1.1974584555229717
1.2267839687194526
1.2639296187683284
1.3157380254154447
1.393939393939394
1.500488758553275
1.632453567937439
1.7849462365591398
1.9501466275659824
2.1192570869990224
2.2825024437927666
2.4330400782013686
2.565982404692082
2.679374389051808
2.7702834799608995
2.83088954056696
2.868035190615836
2.8963831867057674
2.913000977517106
2.917888563049853
2.911045943304008
2.895405669599218
2.870967741935484
2.8406647116324537
2.8044965786901277
2.764418377321604
2.721407624633431
2.67644183773216
2.63049853372434
2.579667644183773
2.5249266862170088
2.466275659824047
2.401759530791789
2.332355816226784
2.2551319648093844
2.1700879765395893
2.078201368523949
1.978494623655914
1.873900293255132
1.7673509286412512
1.6735092864125125
1.5894428152492668
1.5024437927663734
1.4193548387096775
1.3440860215053765
1.2795698924731185
1.2267839687194526
1.1867057673509287
1.1573802541544478
1.1378299120234605
1.126099706744868
1.1192570869990224
1.118279569892473
1.1192570869990224
1.118279569892473
1.1163245356793745
1.1143695014662756
1.1114369501466277
1.1085043988269794
1.1055718475073313
1.104594330400782
1.1055718475073313
1.10752688172043
1.1094819159335287
1.1124144672531768
1.118279569892473
1.1270772238514175
1.1378299120234605
1.1495601173020529
1.1612903225806452
1.1730205278592376
1.18475073313783
1.195503421309873
1.206256109481916
1.2189638318670577
1.2336265884652982
1.2482893450635386
1.2619745845552297
1.2756598240469208
1.289345063538612
1.303030303030303
1.316715542521994
1.3284457478005864
1.33822091886608
1.346041055718475
1.35386119257087
1.3626588465298142
1.3714565004887584
1.3812316715542523
1.391006842619746
1.4027370478983383
1.4164222873900294
1.4301075268817205
1.4428152492668622
1.4535679374389052
1.4750733137829912
1.500488758553275
1.5131964809384164
1.5180840664711632
1.520039100684262
1.52297165200391
1.5327468230694037
1.5493646138807429
1.5796676441837731
1.6344086021505375
1.715542521994135
1.8201368523949168
1.946236559139785
2.0869990224828934
2.233626588465298
2.378299120234604
2.5131964809384164
2.634408602150537
2.7390029325513194
2.812316715542522
2.8611925708699903
2.902248289345064
2.929618768328446
2.9423264907135875
2.941348973607038
2.927663734115347
2.903225806451613
2.8699902248289346
2.8299120234604107
2.78494623655914
2.735092864125122
2.681329423264907
2.6285434995112413
2.5747800586510263
2.5161290322580645
2.4516129032258065
2.3822091886608017
2.3088954056695994
2.23069403714565
2.146627565982405
2.0557184750733137
1.956989247311828
1.8494623655913975
1.737047898338221
1.6363636363636365
1.5405669599217986
1.434017595307918
1.3255131964809383
1.2228739002932552
1.1290322580645162
1.0469208211143697
0.978494623655914
0.9227761485826002
0.8787878787878788
0.844574780058651
0.8181818181818182
0.7986314760508308
0.7878787878787878
0.7820136852394917
0.7732160312805474
0.7605083088954057
0.7458455522971652
0.729227761485826
0.7116324535679375
0.6911045943304008
0.6686217008797654
0.6451612903225806
0.6217008797653959
0.5982404692082112
0.581622678396872
0.5679374389051809
0.5483870967741935
0.5268817204301075
0.5053763440860215
0.4828934506353861
0.4623655913978494
0.4437927663734115
0.426197458455523
0.4105571847507331
0.396871945259042
0.3851417399804496
0.3734115347018573
0.3685239491691104
0.3665689149560117
0.3607038123167155
0.3548387096774194
0.3499511241446725
0.3470185728250244
0.3460410557184751
0.3470185728250244
0.3489736070381232
0.3509286412512219
0.3519061583577713
0.3528836754643206
0.3577712609970674
0.3655913978494624
0.3695014662756598
0.3714565004887585
0.3724340175953079
0.3743890518084066
0.3773216031280547
0.3802541544477028
0.3851417399804496
0.3900293255131964
0.3978494623655914
0.4134897360703812
0.4437927663734115
0.4877810361681329
0.5503421309872922
0.6441837732160313
0.772238514173998
0.9325513196480938
1.1202346041055715
1.327468230694037
1.544477028347996
1.761485826001955
1.9687194525904204
2.160312805474096
2.332355816226784
2.462365591397849
2.5640273704789838
2.6608015640273703
2.7438905180840663
2.812316715542522
2.865102639296188
2.902248289345064
2.9266862170087977
2.940371456500489
2.9442815249266863
2.93841642228739
2.9237536656891496
2.9012707722385143
2.8729227761485827
2.838709677419355
2.80058651026393
2.755620723362659
2.704789833822092
2.64613880742913
2.578690127077224
2.5024437927663734
2.4173998044965788
2.32355816226784
2.220918866080156
2.112414467253177
2.0127077223851417
1.919843597262952
1.8191593352883677
1.7194525904203324
1.6275659824046922
1.547409579667644
1.479960899315738
1.4242424242424243
1.380254154447703
1.3470185728250244
1.3225806451612905
1.3049853372434017
1.2903225806451613
1.281524926686217
1.2766373411534702
1.270772238514174
1.2639296187683284
1.2570869990224829
1.2512218963831867
1.2453567937438903
1.2394916911045943
1.2336265884652982
1.2287390029325511
1.224828934506354
1.2218963831867058
1.2209188660801564
1.2218963831867058
1.2218963831867058
1.2218963831867058
1.2238514173998043
1.2267839687194526
1.2316715542521994
1.2365591397849462
1.2424242424242424
1.2482893450635386
1.2551319648093842
1.2609970674486803
1.2668621700879763
1.2727272727272727
1.2795698924731185
1.2854349951124144
1.2913000977517106
1.2971652003910068
1.3020527859237536
1.305962854349951
1.3098729227761483
1.3128054740957966
1.3147605083088951
1.3157380254154447
1.316715542521994
1.3186705767350928
1.321603128054741
1.324535679374389
1.327468230694037
1.3304007820136852
1.3333333333333333
1.335288367546432
1.3372434017595307
1.33822091886608
1.3391984359726294
1.3440860215053765
1.3587487781036167
1.3890518084066472
1.4291300097751711
1.4838709677419355
1.5708699902248289
1.6871945259042034
1.828934506353861
1.9872922776148585
2.155425219941349
2.3225806451612905
2.4809384164222874
2.624633431085044
2.7497556207233624
2.854349951124145
2.9266862170087977
2.975562072336266
3.0175953079178885
3.048875855327468
3.067448680351906
3.0733137829912023
3.0684261974584555
3.053763440860215
3.032258064516129
3.003910068426197
2.9687194525904204
2.9286412512218964
2.8856304985337244
2.838709677419355
2.787878787878788
2.732160312805474
2.6715542521994133
2.6070381231671558
2.5376344086021505
2.4613880742913
2.378299120234604
2.2854349951124147
2.1837732160312804
2.0762463343108504
1.964809384164223
1.866080156402737
1.7761485826001957
1.6813294232649072
1.5894428152492668
1.5063538611925709
1.434017595307918
1.3734115347018572
1.3255131964809383
1.2883675464320623
1.2619745845552297
1.2424242424242424
1.2297165200391007
1.3294232649071358
1.4848484848484849
1.5610948191593352
1.5972629521016617
1.6138807429130009
1.619745845552297
1.6207233626588464
1.6187683284457477
1.6158357771260996
1.611925708699902
1.608993157380254
1.606060606060606
1.6041055718475072
1.603128054740958
1.6041055718475072
1.606060606060606
1.608993157380254
1.6138807429130009
1.6187683284457477
1.624633431085044
1.6304985337243405
1.6383186705767352
1.6451612903225807
1.6520039100684265
1.6588465298142718
1.664711632453568
1.6705767350928642
1.675464320625611
1.6803519061583578
1.683284457478006
1.6852394916911049
1.686217008797654
1.686217008797654
1.686217008797654
1.686217008797654
1.686217008797654
1.6871945259042034
1.689149560117302
1.6920821114369502
1.6959921798631477
1.699902248289345
1.7038123167155426
1.7067448680351909
1.7096774193548387
1.7116324535679377
1.7145650048875856
1.7194525904203324
1.7311827956989247
1.75366568914956
1.790811339198436
1.833822091886608
1.8885630498533723
1.9667644183773216
2.0625610948191597
2.172043010752688
2.2883675464320627
2.404692082111437
2.515151515151515
2.6148582600195502
2.699902248289345
2.7702834799608995
2.8260019550342133
2.866080156402737
2.8885630498533725
2.898338220918866
2.903225806451613
2.9012707722385143
2.89345063538612
2.8797653958944283
2.8611925708699903
2.8377321603128056
2.812316715542522
2.7839687194525906
2.752688172043011
2.719452590420332
2.686217008797654
2.652003910068426
2.6129032258064515
2.5698924731182795
2.5219941348973607
2.469208211143695
2.410557184750733
2.346041055718475
2.275659824046921
2.20039100684262
2.1221896383186705
2.0449657869012707
1.9696969696969695
1.9071358748778104
1.8543499511241448
1.8025415444770283
1.7565982404692082
1.7174975562072337
1.6871945259042034
1.6656891495601174
1.6520039100684265
1.6441837732160314
1.6412512218963833
1.6412512218963833
1.6422287390029326
1.6451612903225807
1.6490713587487782
1.6529814271749756
1.656891495601173
1.6608015640273706
1.664711632453568
1.6686217008797657
1.672531769305963
1.6764418377321604
1.6813294232649072
1.6881720430107527
1.6950146627565983
1.7018572825024438
1.70772238514174
1.7145650048875856
1.721407624633431
1.7282502443792769
1.7350928641251222
1.7429130009775171
1.7497556207233629
1.7565982404692082
1.7634408602150538
1.76930596285435
1.7741935483870968
1.7771260997067448
1.7790811339198436
1.7810361681329423
1.7810361681329423
1.7790811339198436
1.7761485826001957
1.7741935483870968
1.772238514173998
1.7712609970674489
1.7712609970674489
1.7712609970674489
1.7732160312805474
1.7761485826001957
1.7790811339198436
1.782991202346041
1.7869012707722385
1.7898338220918866
1.7917888563049853
1.7927663734115349
1.7947214076246334
1.8005865102639296
1.81524926686217
1.842619745845552
1.8856304985337244
1.9472140762463344
2.026392961876833
2.104594330400782
2.1847507331378297
2.280547409579668
2.3812316715542523
2.4789833822091887
2.567937438905181
2.6451612903225805
2.70772238514174
2.7546432062561097
2.7869012707722387
2.806451612903226
2.814271749755621
2.812316715542522
2.801564027370479
2.7859237536656893
2.766373411534702
2.742913000977517
2.716520039100684
2.687194525904203
2.654936461388074
2.619745845552297
2.582600195503421
2.5425219941348973
2.5004887585532747
2.455522971652004
2.4115347018572826
2.367546432062561
2.315738025415445
2.2580645161290325
2.193548387096774
2.124144672531769
2.050830889540567
1.9745845552297163
1.8973607038123168
1.8201368523949168
1.7468230694037146
1.6793743890518085
1.6265884652981428
1.585532746823069
1.5464320625610948
1.5141739980449658
1.487781036168133
1.4682306940371457
1.4535679374389052
1.4428152492668622
1.4349951124144673
1.4281524926686218
1.4203323558162269
1.4115347018572826
1.4007820136852396
1.393939393939394
1.3870967741935485
1.3763440860215057
1.3626588465298142
1.3470185728250244
1.3313782991202343
1.3157380254154447
1.300097751710655
1.2864125122189638
1.273704789833822
1.262952101661779
1.252199413489736
1.24633431085044
1.2434017595307918
1.2394916911045943
1.2365591397849462
1.2346041055718475
1.2336265884652982
1.2346041055718475
1.2355816226783969
1.2375366568914956
1.241446725317693
1.24633431085044
1.252199413489736
1.2580645161290325
1.2668621700879763
1.2766373411534702
1.2854349951124144
1.2932551319648091
1.3010752688172045
1.3098729227761483
1.3196480938416422
1.3294232649071358
1.3391984359726294
1.3499511241446724
1.359726295210166
1.370478983382209
1.3822091886608017
1.3949169110459434
1.4086021505376345
1.4271749755620724
1.4535679374389052
1.4926686217008798
1.547409579667644
1.6207233626588464
1.7135874877810362
1.826001955034213
1.9550342130987293
2.093841642228739
2.2346041055718477
2.3548387096774195
2.4594330400782014
2.567937438905181
2.6695992179863146
2.758553274682307
2.831867057673509
2.909090909090909
2.981427174975562
3.026392961876833
3.050830889540567
3.058651026392962
3.0547409579667644
3.0410557184750733
3.018572825024438
2.992179863147605
2.961876832844575
2.927663734115347
2.8885630498533725
2.8455522971652005
2.7996089931573804
2.750733137829912
2.697947214076246
2.638318670576735
2.570869990224829
2.4975562072336266
2.426197458455523
2.3548387096774195
2.272727272727273
2.182795698924731
2.088954056695992
1.9951124144672527
1.9042033235581624
1.8191593352883677
1.7419354838709675
1.675464320625611
1.619745845552297
1.573802541544477
1.5405669599217986
1.5180840664711632
1.498533724340176
1.4838709677419355
1.4721407624633431
1.4633431085043989
1.457478005865103
1.4535679374389052
1.4496578690127078
1.444770283479961
1.439882697947214
1.4349951124144673
1.4301075268817205
1.4271749755620724
1.426197458455523
1.4252199413489737
1.423264907135875
1.4213098729227762
1.418377321603128
1.4164222873900294
1.4164222873900294
1.4173998044965788
1.4193548387096775
1.4213098729227762
1.423264907135875
1.4271749755620724
1.4320625610948192
1.436950146627566
1.4418377321603129
1.447702834799609
1.4535679374389052
1.4594330400782014
1.4633431085043989
1.466275659824047
1.469208211143695
1.4711632453567938
1.4711632453567938
1.4711632453567938
1.4731182795698925
1.4760508308895406
1.478005865102639
1.479960899315738
1.4819159335288368
1.4848484848484849
1.4887585532746823
1.4926686217008798
1.4975562072336266
1.5024437927663734
1.5083088954056696
1.517106549364614
1.5278592375366569
1.543499511241447
1.56891495601173
1.6109481915933528
1.672531769305963
1.7565982404692082
1.8621700879765395
1.986314760508309
2.124144672531769
2.2668621700879767
2.407624633431085
2.5405669599217986
2.659824046920821
2.747800586510264
2.8132942326490715
2.8729227761485827
2.919843597262952
2.952101661779081
2.9696969696969697
2.975562072336266
2.9716520039100685
2.9589442815249267
2.93841642228739
2.913000977517106
2.8826979472140764
2.849462365591398
2.814271749755621
2.7751710654936463
2.7331378299120237
2.6881720430107525
2.641251221896383
2.589442815249267
2.5347018572825024
2.474095796676442
2.407624633431085
2.335288367546432
2.2561094819159337
2.1700879765395893
2.090909090909091
2.013685239491691
1.9257086999022484
1.836754643206256
1.7526881720430108
1.6744868035190617
1.606060606060606
1.5493646138807429
1.5034213098729228
1.466275659824047
1.4389051808406648
1.4203323558162269
1.4105571847507332
1.4066471163245358
1.4037145650048877
1.4027370478983383
1.4027370478983383
1.4027370478983383
1.4027370478983383
1.4027370478983383
1.4027370478983383
1.4027370478983383
1.4027370478983383
1.4027370478983383
1.4027370478983383
1.4037145650048877
1.4056695992179864
1.4066471163245358
1.4076246334310851
1.4076246334310851
1.4076246334310851
1.4086021505376345
1.4105571847507332
1.412512218963832
1.41544477028348
1.4193548387096775
1.4242424242424243
1.4291300097751711
1.434017595307918
1.436950146627566
1.439882697947214
1.4428152492668622
1.4457478005865103
1.447702834799609
1.4496578690127078
1.452590420332356
1.4545454545454546
1.457478005865103
1.4604105571847508
1.4652981427174976
1.4721407624633431
1.478983382209189
1.4838709677419355
1.490713587487781
1.4975562072336266
1.5034213098729228
1.5102639296187683
1.5180840664711632
1.5288367546432062
1.5454545454545454
1.5728250244379276
1.6158357771260996
1.664711632453568
1.726295210166178
