ppg
3.0733137829912023
3.0977517106549364
3.115347018572825
3.12316715542522
3.124144672531769
3.124144672531769
3.121212121212121
3.113391984359726
3.1006842619745845
3.081133919843597
3.053763440860215
3.018572825024438
2.9745845552297165
2.921798631476051
2.8611925708699903
2.792766373411535
2.7253176930596283
2.658846529814272
2.5855327468230693
2.4780058651026398
2.355816226783969
2.260997067448681
2.1847507331378297
2.121212121212121
2.0664711632453567
2.018572825024438
1.975562072336266
1.935483870967742
1.902248289345064
1.873900293255132
1.8435972629521016
1.8113391984359728
1.7781036168132942
1.7429130009775171
1.7067448680351909
1.6695992179863148
1.6314760508308896
1.5943304007820136
1.5581622678396871
1.52297165200391
1.487781036168133
1.4604105571847508
1.435972629521017
1.4076246334310851
1.3773216031280548
1.3479960899315735
1.321603128054741
1.2961876832844574
1.2717497556207231
1.2482893450635386
1.2258064516129032
1.2043010752688172
1.1837732160312806
1.1681329423264908
1.1573802541544478
1.144672531769306
1.1319648093841643
1.1202346041055715
1.1085043988269794
1.0957966764418376
1.0840664711632453
1.072336265884653
1.0606060606060606
1.050830889540567
1.0410557184750733
1.032258064516129
1.0273704789833822
1.0263929618768328
1.021505376344086
1.0146627565982405
1.0068426197458455
0.9990224828934506
0.9902248289345064
0.981427174975562
0.9745845552297164
0.9736070381231672
0.9824046920821116
1.0048875855327468
1.0391006842619743
1.0879765395894427
1.160312805474096
1.2551319648093842
1.3695014662756595
1.499511241446725
1.6383186705767352
1.7810361681329423
1.9227761485826005
2.058651026392962
2.1837732160312804
2.297165200391007
2.3978494623655915
2.474095796676442
2.533724340175953
2.593352883675464
2.649071358748778
2.6989247311827955
2.7438905180840663
2.78494623655914
2.8211143695014664
2.8533724340175954
2.881720430107527
2.906158357771261
2.9266862170087977
2.9374389051808407
2.9423264907135875
2.9472140762463344
2.9501466275659824
2.948191593352884
2.941348973607038
2.9266862170087977
2.903225806451613
2.8719452590420333
2.831867057673509
2.7839687194525906
2.7262952101661777
2.66177908113392
2.5992179863147604
2.535679374389052
2.464320625610948
2.3900293255131966
2.315738025415445
2.2453567937438903
2.1788856304985336
2.118279569892473
2.0635386119257086
2.01564027370479
1.9726295210166176
1.9335288367546437
1.902248289345064
1.873900293255132
1.8416422287390029
1.8084066471163245
1.7761485826001957
1.7438905180840665
1.7116324535679377
1.6793743890518085
1.64613880742913
1.6129032258064515
1.5777126099706744
1.541544477028348
1.5053763440860215
1.4760508308895406
1.4506353861192571
1.423264907135875
1.393939393939394
1.364613880742913
1.3362658846529814
1.3088954056695992
1.2825024437927663
1.2580645161290325
1.2355816226783969
1.2140762463343109
1.1925708699902249
1.176930596285435
1.166177908113392
1.152492668621701
1.13880742913001
1.126099706744868
1.1143695014662756
1.1026392961876832
1.0899315738025417
1.0762463343108504
1.0625610948191593
1.0498533724340176
1.0381231671554252
1.0273704789833822
1.0205278592375366
1.0156402737047898
1.0087976539589445
1.0009775171065494
0.9921798631476052
0.9833822091886608
0.9745845552297164
0.9657869012707724
0.959921798631476
0.9579667644183774
0.9638318670576737
0.9824046920821116
1.0117302052785924
1.0547409579667644
1.1192570869990224
1.2043010752688172
1.3098729227761483
1.43108504398827
1.564027370478983
1.7028347996089932
1.842619745845552
1.9765395894428155
2.1006842619745845
2.2111436950146626
2.30791788856305
2.3822091886608017
2.4389051808406648
2.493646138807429
2.5425219941348973
2.5855327468230693
2.6236559139784945
2.6578690127077222
2.687194525904203
2.713587487781036
2.73802541544477
2.760508308895406
2.779081133919844
2.787878787878788
2.789833822091887
2.791788856304985
2.791788856304985
2.788856304985337
2.780058651026393
2.764418377321604
2.740957966764418
2.70772238514174
2.665689149560117
2.613880742913001
2.552297165200391
2.49266862170088
2.434017595307918
2.3685239491691106
2.2991202346041058
2.231671554252199
2.167155425219941
2.1065493646138806
2.0518084066471163
2.0019550342130987
1.9579667644183771
1.9188660801564028
1.884652981427175
1.8533724340175952
1.826001955034213
1.8005865102639296
1.772238514173998
1.7409579667644184
1.70772238514174
1.6735092864125125
1.6392961876832846
1.6050830889540566
1.5718475073313782
1.5395894428152492
1.5073313782991202
1.4731182795698925
1.444770283479961
1.4213098729227762
1.3949169110459434
1.367546432062561
1.3411534701857282
1.316715542521994
1.29227761485826
1.267839687194526
1.2443792766373412
1.2228739002932552
1.2013685239491692
1.1808406647116323
1.1622678396871946
1.1485826001955035
1.1397849462365592
1.1300097751710656
1.1192570869990224
1.1085043988269794
1.0987292277614855
1.088954056695992
1.0791788856304985
1.0684261974584557
1.0576735092864125
1.0488758553274682
1.0410557184750733
1.0381231671554252
1.0361681329423265
1.032258064516129
1.0273704789833822
1.0205278592375366
1.0127077223851415
1.0048875855327468
0.997067448680352
0.9902248289345064
0.9882697947214076
1.0048875855327468
1.0391006842619743
1.0801564027370478
1.1280547409579669
1.1867057673509287
1.2688172043010753
1.3734115347018572
1.495601173020528
1.6314760508308896
1.7741935483870968
1.9188660801564028
2.060606060606061
2.193548387096774
2.312805474095797
2.4173998044965788
2.4975562072336266
2.5610948191593352
2.6236559139784945
2.6803519061583576
2.7311827956989245
2.776148582600196
2.81622678396872
2.8533724340175954
2.887585532746823
2.917888563049853
2.946236559139785
2.9716520039100685
2.9931573802541545
3.004887585532747
3.0097751710654936
3.0146627565982405
3.0175953079178885
3.01564027370479
3.0087976539589443
2.997067448680352
2.9775171065493646
2.951124144672532
2.916911045943304
2.873900293255132
2.823069403714565
2.76930596285435
2.7126099706744866
2.64613880742913
2.5747800586510263
2.5004887585532747
2.4252199413489737
2.3528836754643208
2.2854349951124147
2.2238514173998043
2.167155425219941
2.117302052785924
2.072336265884653
2.03128054740958
1.997067448680352
1.9667644183773216
1.9335288367546437
1.8993157380254155
1.865102639296188
1.8318670576735088
1.7996089931573802
1.7663734115347018
1.732160312805474
1.696969696969697
1.66177908113392
1.6265884652981428
1.5962854349951123
1.5698924731182795
1.541544477028348
1.5112414467253177
1.479960899315738
1.4496578690127078
1.4203323558162269
1.3919843597262953
1.3655913978494625
1.3401759530791788
1.3157380254154447
1.2932551319648091
1.2717497556207231
1.2570869990224829
1.24633431085044
1.2336265884652982
1.219941348973607
1.2052785923753666
1.1925708699902249
1.181818181818182
1.1720430107526882
1.1622678396871946
1.1515151515151516
1.141739980449658
1.1319648093841643
1.1251221896383188
1.121212121212121
1.1143695014662756
1.1065493646138806
1.0977517106549364
1.0909090909090908
1.083088954056696
1.075268817204301
1.067448680351906
1.06158357771261
1.0596285434995112
1.067448680351906
1.0869990224828934
1.1173020527859236
1.163245356793744
1.2316715542521994
1.321603128054741
1.43108504398827
1.5581622678396871
1.6959921798631477
1.8387096774193548
1.9794721407624636
2.115347018572825
2.241446725317693
2.355816226783969
2.444770283479961
2.5161290322580645
2.5865102639296187
2.652003910068426
2.710654936461388
2.763440860215054
2.8103616813294234
2.8533724340175954
2.89345063538612
2.930596285434995
2.964809384164223
2.995112414467253
3.022482893450636
3.0391006842619745
3.048875855327468
3.059628543499511
3.0684261974584555
3.072336265884653
3.071358748778104
3.064516129032258
3.050830889540567
3.03128054740958
3.004887585532747
2.970674486803519
2.929618768328446
2.884652981427175
2.833822091886608
2.773216031280548
2.705767350928641
2.633431085043988
2.557184750733138
2.479960899315738
2.4027370478983383
2.326490713587488
2.254154447702835
2.187683284457478
2.129032258064516
2.0762463343108504
2.034213098729228
1.9980449657869013
1.9618768328445748
1.9266862170087975
1.8914956011730208
1.857282502443793
1.8240469208211143
1.7898338220918866
1.7556207233626588
1.7204301075268815
1.686217008797654
1.6520039100684265
1.6226783968719452
1.5962854349951123
1.5650048875855327
1.5317693059628543
1.498533724340176
1.4652981427174976
1.4320625610948192
1.3998044965786902
1.370478983382209
1.3440860215053765
1.3186705767350928
1.295210166177908
1.278592375366569
1.2649071358748778
1.2473118279569892
1.2287390029325511
1.2101661779081134
1.1925708699902249
1.176930596285435
1.163245356793744
1.1505376344086022
1.1378299120234605
1.1251221896383188
1.1133919843597262
1.1016617790811338
1.0957966764418376
1.0918866080156402
1.0850439882697946
1.0772238514173995
1.0694037145650048
1.0606060606060606
1.050830889540567
1.0391006842619743
1.0273704789833822
1.0166177908113392
1.0097751710654936
1.0097751710654936
1.0205278592375366
1.0439882697947214
1.083088954056696
1.141739980449658
1.2218963831867058
1.3235581622678396
1.4418377321603129
1.573802541544477
1.7135874877810362
1.8543499511241448
1.992179863147605
2.12316715542522
2.244379276637341
2.340175953079179
2.418377321603128
2.496578690127077
2.567937438905181
2.632453567937439
2.6911045943304006
2.7419354838709675
2.787878787878788
2.8289345063538613
2.8670576735092865
2.9012707722385143
2.9315738025415445
2.952101661779081
2.9657869012707723
2.9824046920821115
2.9980449657869013
3.0087976539589443
3.01564027370479
3.0175953079178885
3.0127077223851417
3.0009775171065494
2.981427174975562
2.95405669599218
2.919843597262952
2.877810361681329
2.831867057673509
2.7810361681329425
2.7223851417399803
2.6559139784946235
2.5835777126099706
2.506353861192571
2.4271749755620724
2.3489736070381237
2.275659824046921
2.207233626588465
2.144672531769306
2.088954056695992
2.0439882697947214
2.005865102639296
1.967741935483871
1.9315738025415443
1.8885630498533723
1.842619745845552
1.804496578690127
1.76930596285435
1.737047898338221
1.704789833822092
1.6715542521994136
1.6373411534701858
1.603128054740958
1.573802541544477
1.5483870967741935
1.5190615835777126
1.487781036168133
1.456500488758553
1.4252199413489737
1.393939393939394
1.364613880742913
1.3372434017595307
1.310850439882698
1.2864125122189638
1.2639296187683284
1.2482893450635386
1.2355816226783969
1.2189638318670577
1.2023460410557183
1.1857282502443791
1.1700879765395895
1.1564027370478984
1.144672531769306
1.1329423264907137
1.121212121212121
1.1085043988269794
1.093841642228739
1.0791788856304985
1.0703812316715542
1.064516129032258
1.0547409579667644
1.043010752688172
1.032258064516129
1.021505376344086
1.013685239491691
1.0127077223851415
1.0224828934506354
1.04594330400782
1.0879765395894427
1.1505376344086022
1.2209188660801564
1.3020527859237536
1.4056695992179864
1.5249266862170088
1.6529814271749756
1.782991202346041
1.9100684261974583
2.032258064516129
2.144672531769306
2.247311827956989
2.3382209188660803
2.4173998044965788
2.4858260019550342
2.536656891495601
2.5747800586510263
2.6129032258064515
2.6480938416422286
2.6803519061583576
2.710654936461388
2.7390029325513194
2.7653958944281527
2.789833822091887
2.811339198435973
2.8289345063538613
2.8426197458455524
2.84652981427175
2.844574780058651
2.8396871945259043
2.83088954056696
2.8152492668621703
2.792766373411535
2.763440860215054
2.7262952101661777
2.6823069403714563
2.6295210166177907
2.56891495601173
2.5024437927663734
2.43108504398827
2.364613880742913
2.3010752688172045
2.233626588465298
2.166177908113392
2.101661779081134
2.043010752688172
1.991202346041056
1.945259042033236
1.9042033235581624
1.866080156402737
1.83088954056696
1.7986314760508308
1.7702834799608993
1.7390029325513197
1.7086999022482894
1.686217008797654
1.6608015640273706
1.6334310850439884
1.6041055718475072
1.5728250244379276
1.5405669599217986
1.5073313782991202
1.474095796676442
1.4408602150537635
1.4086021505376345
1.3822091886608017
1.359726295210166
1.3343108504398826
1.3079178885630498
1.2825024437927663
1.2590420332355816
1.2375366568914956
1.217008797653959
1.1974584555229717
1.1788856304985338
1.1612903225806452
1.1436950146627567
1.130987292277615
1.121212121212121
1.1094819159335287
1.0977517106549364
1.086021505376344
1.0742913000977516
1.06158357771261
1.0488758553274682
1.035190615835777
1.021505376344086
1.007820136852395
0.9951124144672532
0.9833822091886608
0.9775171065493646
0.9765395894428152
0.9775171065493646
0.9863147605083088
1.0068426197458455
1.0439882697947214
1.099706744868035
1.176930596285435
1.2727272727272727
1.3841642228739004
1.5073313782991202
1.6383186705767352
1.75366568914956
1.858260019550342
1.9687194525904204
2.0772238514174
2.177908113391984
2.2688172043010755
2.3489736070381237
2.418377321603128
2.4789833822091887
2.530791788856305
2.5747800586510263
2.6129032258064515
2.6402737047898337
2.658846529814272
2.6803519061583576
2.701857282502444
2.721407624633431
2.739980449657869
2.755620723362659
2.7673509286412514
2.774193548387097
2.776148582600196
2.7722385141739982
2.7614858260019552
2.7438905180840663
2.720430107526881
2.6901270772238512
2.6529814271749754
2.6080156402737047
2.5532746823069403
2.49266862170088
2.4271749755620724
2.358748778103617
2.2883675464320627
2.218963831867057
2.1524926686217007
2.088954056695992
2.037145650048876
1.992179863147605
1.9472140762463344
1.906158357771261
1.8670576735092863
1.8328445747800584
1.8035190615835777
1.7761485826001957
1.7487781036168133
1.7204301075268815
1.6920821114369502
1.6627565982404693
1.6314760508308896
1.6041055718475072
1.5777126099706744
1.5464320625610948
1.5131964809384164
1.4809384164222874
1.4486803519061584
1.4173998044965788
1.3861192570869991
1.356793743890518
1.3304007820136852
1.305962854349951
1.2825024437927663
1.2658846529814272
1.252199413489736
1.2355816226783969
1.217008797653959
1.198435972629521
1.181818181818182
1.166177908113392
1.1515151515151516
1.13880742913001
1.1270772238514175
1.115347018572825
1.1036168132942326
1.0928641251221896
1.0869990224828934
1.0840664711632453
1.078201368523949
1.0713587487781036
1.0606060606060606
1.0488758553274682
1.0410557184750733
1.0332355816226784
1.0254154447702837
1.021505376344086
1.0254154447702837
1.0391006842619743
1.0635386119257086
1.1016617790811338
1.160312805474096
1.238514173998045
1.335288367546432
1.4486803519061584
1.5728250244379276
1.7008797653958945
1.828934506353861
1.9530791788856303
2.069403714565005
2.174975562072336
2.2688172043010755
2.340175953079179
2.3958944281524928
2.449657869012708
2.496578690127077
2.536656891495601
2.570869990224829
2.5992179863147604
2.6236559139784945
2.64613880742913
2.6666666666666665
2.717497556207233
2.782013685239492
2.8132942326490715
2.8260019550342133
2.832844574780059
2.832844574780059
2.8269794721407626
2.814271749755621
2.793743890518084
2.7653958944281527
2.7282502443792764
2.6823069403714563
2.6265884652981426
2.563049853372434
2.4946236559139785
2.4301075268817205
2.36950146627566
2.304985337243402
2.242424242424242
2.1818181818181817
2.1270772238514173
2.0772238514174
2.0332355816226784
1.994134897360704
1.959921798631476
1.927663734115347
1.8973607038123168
1.871945259042033
1.8465298142717497
1.818181818181818
1.7869012707722385
1.75366568914956
1.7194525904203324
1.686217008797654
1.6529814271749756
1.619745845552297
1.5884652981427174
1.5571847507331378
1.525904203323558
1.495601173020528
1.4721407624633431
1.4506353861192571
1.426197458455523
1.4007820136852396
1.3763440860215057
1.3519061583577712
1.3284457478005864
1.305962854349951
1.2854349951124144
1.267839687194526
1.2512218963831867
1.2365591397849462
1.227761485826002
1.2218963831867058
1.2130987292277615
1.203323558162268
1.1925708699902249
1.1827956989247312
1.1730205278592376
1.1622678396871946
1.1505376344086022
1.1397849462365592
1.1300097751710656
1.1202346041055715
1.1114369501466277
1.1065493646138806
1.104594330400782
1.099706744868035
1.096774193548387
1.0987292277614855
1.1094819159335287
1.133919843597263
1.1759530791788857
1.2394916911045943
1.324535679374389
1.4301075268817205
1.5532746823069403
1.6715542521994136
1.7878787878787878
1.920821114369501
2.0576735092864125
2.1925708699902247
2.3196480938416424
2.4349951124144678
2.535679374389052
2.6236559139784945
2.697947214076246
2.7624633431085046
2.817204301075269
2.863147605083089
2.8944281524926687
2.918866080156403
2.9472140762463344
2.9765395894428157
3.003910068426197
3.0303030303030303
3.053763440860215
3.0733137829912023
3.0869990224828934
3.093841642228739
3.0957966764418376
3.0928641251221896
3.083088954056696
3.067448680351906
3.04594330400782
3.0175953079178885
2.9824046920821115
2.9393939393939394
2.8905180840664717
2.832844574780059
2.766373411534702
2.6930596285435
2.6148582600195502
2.535679374389052
2.4652981427174976
2.40078201368524
2.334310850439883
2.269794721407625
2.210166177908113
2.156402737047898
2.10850439882698
2.065493646138808
2.026392961876833
1.9902248289345064
1.9550342130987293
1.9130009775171064
1.8758553274682308
1.8523949169110456
1.8269794721407624
1.796676441837732
1.7624633431085044
1.7282502443792769
1.694037145650049
1.6578690127077225
1.6226783968719452
1.5884652981427174
1.5542521994134897
1.520039100684262
1.487781036168133
1.4623655913978495
1.4418377321603129
1.4193548387096775
1.3958944281524928
1.3724340175953078
1.348973607038123
1.3264907135874875
1.305962854349951
1.2883675464320623
1.2727272727272727
1.2570869990224829
1.2424242424242424
1.2287390029325511
1.2209188660801564
1.2150537634408602
1.206256109481916
1.195503421309873
1.18475073313783
1.1730205278592376
1.1612903225806452
1.1485826001955035
1.1368523949169111
1.1270772238514175
1.1173020527859236
1.1085043988269794
1.1065493646138806
1.1124144672531768
1.1251221896383188
1.1505376344086022
1.1935483870967742
1.2570869990224829
1.343108504398827
1.4486803519061584
1.5718475073313782
1.7067448680351909
1.8484848484848484
1.992179863147605
2.131964809384164
2.247311827956989
2.3440860215053765
2.441837732160313
2.533724340175953
2.616813294232649
2.689149560117302
2.7517106549364616
2.806451612903226
2.855327468230694
2.8993157380254155
2.9393939393939394
2.9745845552297165
2.99902248289345
3.018572825024438
3.042033235581622
3.064516129032258
3.083088954056696
3.0977517106549364
3.10752688172043
3.112414467253177
3.110459433040078
3.103616813294233
3.089931573802541
3.069403714565005
3.0410557184750733
3.0087976539589443
2.9696969696969697
2.9227761485826003
2.868035190615836
2.8054740957966766
2.736070381231672
2.659824046920821
2.579667644183773
2.4975562072336266
2.4164222873900294
2.3391984359726297
2.2668621700879767
2.207233626588465
2.157380254154448
2.10850439882698
2.0625610948191597
2.0205278592375366
1.9833822091886608
1.948191593352884
1.9130009775171064
1.8797653958944285
1.8465298142717497
1.8132942326490715
1.7702834799608993
1.7302052785923754
1.7067448680351909
1.683284457478006
1.6529814271749756
1.6187683284457477
1.5835777126099706
1.5483870967741935
1.5141739980449658
1.4809384164222874
1.447702834799609
1.4164222873900294
1.3851417399804498
1.3558162267839686
1.335288367546432
1.3196480938416422
1.3020527859237536
1.2854349951124144
1.267839687194526
1.2502443792766371
1.2326490713587488
1.2150537634408602
1.1974584555229717
1.1808406647116323
1.166177908113392
1.152492668621701
1.1407624633431086
1.133919843597263
1.1280547409579669
1.1202346041055715
1.1133919843597262
1.0801564027370478
1.035190615835777
1.0097751710654936
0.9980449657869012
1.0009775171065494
1.0205278592375366
1.0586510263929618
1.1173020527859236
1.18475073313783
1.2639296187683284
1.367546432062561
1.4897360703812317
1.6226783968719452
1.7595307917888563
1.8944281524926687
2.0254154447702835
2.1485826001955037
2.260019550342131
2.358748778103617
2.443792766373412
2.5161290322580645
2.56891495601173
2.6099706744868034
2.6529814271749754
2.6940371456500487
2.732160312805474
2.768328445747801
2.8025415444770285
2.833822091886608
2.860215053763441
2.881720430107527
2.8993157380254155
2.913000977517106
2.917888563049853
2.9149560117302054
2.911045943304008
2.902248289345064
2.878787878787879
2.8533724340175954
2.83088954056696
2.7976539589442817
2.755620723362659
2.705767350928641
2.6480938416422286
2.5835777126099706
2.5131964809384164
2.44672531769306
2.3812316715542523
2.3098729227761488
2.220918866080156
2.1417399804496577
2.0869990224828934
2.032258064516129
1.970674486803519
1.9178885630498532
1.8826979472140764
1.847507331378299
1.8093841642228736
1.780058651026393
1.7565982404692082
1.7282502443792769
1.6979472140762464
1.6656891495601174
1.632453567937439
1.598240469208211
1.5610948191593352
1.5239491691104594
1.487781036168133
1.452590420332356
1.409579667644184
1.3724340175953078
1.3509286412512218
1.3304007820136852
1.2981427174975562
1.2668621700879763
1.2453567937438903
1.2238514173998043
1.2013685239491692
1.1788856304985338
1.1573802541544478
1.1368523949169111
1.1133919843597262
1.0928641251221896
1.083088954056696
1.075268817204301
1.0606060606060606
1.0469208211143697
1.0371456500488758
1.0263929618768328
1.0127077223851415
1.0009775171065494
0.9912023460410556
0.9804496578690128
0.9696969696969696
0.9579667644183774
0.9511241446725318
0.9481915933528836
0.946236559139785
0.946236559139785
0.9521016617790812
0.9726295210166178
1.0332355816226784
1.1036168132942326
1.1671554252199414
1.260019550342131
1.4134897360703813
1.564027370478983
1.675464320625611
1.7849462365591398
1.889540566959922
2.004887585532747
2.1192570869990224
2.2248289345063537
2.3362658846529816
2.4271749755620724
2.4858260019550342
2.5405669599217986
2.60019550342131
2.650048875855328
2.6832844574780057
2.70772238514174
2.7341153470185726
2.7614858260019552
2.780058651026393
2.803519061583578
2.825024437927664
2.838709677419355
2.84652981427175
2.852394916911046
2.849462365591398
2.843597262952102
2.833822091886608
2.81622678396872
2.782013685239492
2.744868035190616
2.7126099706744866
2.6510263929618767
2.567937438905181
2.506353861192571
2.4565004887585533
2.3743890518084068
2.2766373411534704
2.1925708699902247
2.118279569892473
2.0576735092864125
2.006842619745845
1.9696969696969695
1.9305962854349952
1.881720430107527
1.8406647116324533
1.8054740957966764
1.7732160312805474
1.7419354838709675
1.7096774193548387
1.6764418377321604
1.6412512218963833
1.6050830889540566
1.573802541544477
1.544477028347996
1.5112414467253177
1.47702834799609
1.4408602150537635
1.4037145650048877
1.3665689149560116
1.3294232649071358
1.2932551319648091
1.2590420332355816
1.227761485826002
1.198435972629521
1.1759530791788857
1.1573802541544478
1.1368523949169111
1.118279569892473
1.099706744868035
1.0801564027370478
1.0606060606060606
1.043010752688172
1.0263929618768328
1.010752688172043
0.9960899315738024
0.9824046920821116
0.9706744868035192
0.9648093841642228
0.959921798631476
0.9521016617790812
0.9442815249266864
0.9364613880742912
0.927663734115347
0.9188660801564028
0.9100684261974584
0.9002932551319648
0.8895405669599218
0.8787878787878788
0.8680351906158358
0.8641251221896383
0.863147605083089
0.8621700879765396
0.8670576735092864
0.8826979472140762
0.9130009775171064
0.9608993157380256
1.029325513196481
1.118279569892473
1.2267839687194526
1.3519061583577712
1.487781036168133
1.629521016617791
