ppg
1.1221896383186705
1.1221896383186705
1.1221896383186705
1.1241446725317692
1.1270772238514175
1.1290322580645162
1.1329423264907137
1.1378299120234605
1.142717497556207
1.147605083088954
1.1534701857282503
1.1583577712609971
1.164222873900293
1.1700879765395895
1.176930596285435
1.1837732160312806
1.1925708699902249
1.2003910068426198
1.2082111436950147
1.2160312805474096
1.224828934506354
1.2326490713587488
1.2394916911045943
1.2443792766373412
1.2482893450635386
1.252199413489736
1.2561094819159335
1.2609970674486803
1.2658846529814272
1.2717497556207231
1.2756598240469208
1.2776148582600195
1.2776148582600195
1.2756598240469208
1.273704789833822
1.2756598240469208
1.2854349951124144
1.3098729227761483
1.35386119257087
1.4173998044965788
1.4887585532746823
1.5728250244379276
1.6842619745845553
1.8142717497556209
1.9550342130987293
2.099706744868035
2.241446725317693
2.3743890518084068
2.496578690127077
2.6041055718475072
2.695014662756598
2.7673509286412514
2.823069403714565
2.857282502443793
2.87683284457478
2.8944281524926687
2.906158357771261
2.9120234604105573
2.911045943304008
2.9042033235581624
2.89247311827957
2.875855327468231
2.855327468230694
2.832844574780059
2.807429130009776
2.779081133919844
2.747800586510264
2.7145650048875853
2.679374389051808
2.641251221896383
2.601173020527859
2.557184750733138
2.509286412512219
2.4565004887585533
2.39980449657869
2.3382209188660803
2.270772238514174
2.2052785923753664
2.1388074291300097
2.06158357771261
1.978494623655914
1.8934506353861196
1.8084066471163245
1.7272727272727273
1.6529814271749756
1.5865102639296187
1.5288367546432062
1.4809384164222874
1.4418377321603129
1.4115347018572826
1.3900293255131966
1.3743890518084063
1.359726295210166
1.346041055718475
1.3333333333333333
1.3196480938416422
1.3040078201368523
1.2873900293255132
1.2697947214076246
1.2502443792766371
1.2297165200391007
1.2082111436950147
1.1906158357771262
1.1759530791788857
1.1583577712609971
1.13880742913001
1.118279569892473
1.086021505376344
1.0478983382209188
1.0195503421309873
0.997067448680352
0.9794721407624634
0.9648093841642228
0.9521016617790812
0.9403714565004888
0.9335288367546432
0.9296187683284456
0.9247311827956988
0.9188660801564028
0.9130009775171064
0.906158357771261
0.9002932551319648
0.8934506353861192
0.8866080156402737
0.8807429130009775
0.8768328445747801
0.8729227761485826
0.8729227761485826
0.873900293255132
0.8729227761485826
0.8729227761485826
0.873900293255132
0.873900293255132
0.873900293255132
0.873900293255132
0.873900293255132
0.873900293255132
0.8748778103616813
0.8778103616813294
0.8817204301075269
0.8885630498533724
0.8973607038123167
0.9042033235581622
0.9090909090909092
0.9130009775171064
0.916911045943304
0.9208211143695014
0.9247311827956988
0.9286412512218964
0.9325513196480938
0.935483870967742
0.9374389051808406
0.9413489736070382
0.946236559139785
0.9481915933528836
0.9511241446725318
0.9550342130987292
0.9628543499511242
0.978494623655914
1.007820136852395
1.0576735092864125
1.130987292277615
1.2297165200391007
1.3528836754643203
1.495601173020528
1.6304985337243405
1.761485826001955
1.911045943304008
2.0635386119257086
2.2111436950146626
2.346041055718475
2.466275659824047
2.567937438905181
2.6510263929618767
2.717497556207233
2.7673509286412514
2.8025415444770285
2.8211143695014664
2.827956989247312
2.83088954056696
2.8299120234604107
2.8240469208211145
2.814271749755621
2.801564027370479
2.7859237536656893
2.766373411534702
2.7438905180840663
2.719452590420332
2.6930596285435
2.662756598240469
2.631476050830889
2.5972629521016617
2.560117302052786
2.5190615835777126
2.4731182795698925
2.4222873900293256
2.3655913978494625
2.303030303030303
2.232649071358749
2.1544477028347995
2.069403714565005
1.9804496578690127
1.9012707722385145
1.827956989247312
1.7487781036168133
1.6715542521994136
1.6001955034213098
1.5356793743890518
1.479960899315738
1.434017595307918
1.396871945259042
1.3665689149560116
1.3421309872922775
1.3225806451612905
1.3049853372434017
1.2913000977517106
1.2795698924731185
1.2649071358748778
1.249266862170088
1.2316715542521994
1.2121212121212122
1.1906158357771262
1.1671554252199414
1.144672531769306
1.1221896383186705
1.0987292277614855
1.0762463343108504
1.0596285434995112
1.0469208211143697
1.0303030303030305
1.0117302052785924
0.9931573802541545
0.975562072336266
0.9618768328445748
0.9491691104594332
0.9374389051808406
0.9257086999022482
0.913978494623656
0.9022482893450636
0.8914956011730205
0.8866080156402737
0.8836754643206256
0.8797653958944281
0.8758553274682307
0.8729227761485826
0.8709677419354839
0.8699902248289345
0.8699902248289345
0.8709677419354839
0.8729227761485826
0.873900293255132
0.873900293255132
0.8768328445747801
0.8817204301075269
0.884652981427175
0.8875855327468231
0.8924731182795699
0.8973607038123167
0.9032258064516128
0.9081133919843596
0.913978494623656
0.919843597262952
0.9257086999022482
0.9305962854349952
0.9364613880742912
0.9442815249266864
0.9530791788856304
0.9589442815249268
0.9638318670576737
0.967741935483871
0.9706744868035192
0.9736070381231672
0.975562072336266
0.9745845552297164
0.9726295210166178
0.9706744868035192
0.9696969696969696
0.9726295210166178
0.9804496578690128
0.9960899315738024
1.0234604105571847
1.0694037145650048
1.1368523949169111
1.23069403714565
1.348973607038123
1.487781036168133
1.6412512218963833
1.8025415444770283
1.963831867057673
2.1192570869990224
2.2453567937438903
2.3489736070381237
2.452590420332356
2.5454545454545454
2.622678396871945
2.684261974584555
2.7311827956989245
2.764418377321604
2.78494623655914
2.7947214076246336
2.795698924731183
2.790811339198436
2.779081133919844
2.7624633431085046
2.744868035190616
2.7253176930596283
2.704789833822092
2.6832844574780057
2.659824046920821
2.633431085043988
2.606060606060606
2.575757575757576
2.5425219941348973
2.505376344086021
2.466275659824047
2.4242424242424243
2.375366568914956
2.320625610948192
2.260019550342131
2.1925708699902247
2.120234604105572
2.0410557184750733
1.9579667644183771
1.871945259042033
1.7859237536656891
1.7018572825024438
1.6236559139784943
1.5610948191593352
1.509286412512219
1.4604105571847508
1.4173998044965788
1.3822091886608017
1.35386119257087
1.3313782991202343
1.313782991202346
1.2991202346041055
1.2864125122189638
1.2746823069403714
1.262952101661779
1.2531769305962854
1.2434017595307918
1.23069403714565
1.2160312805474096
1.1994134897360704
1.1798631476050832
1.1583577712609971
1.1378299120234605
1.118279569892473
1.0987292277614855
1.0791788856304985
1.06158357771261
1.04594330400782
1.035190615835777
1.0273704789833822
1.0166177908113392
1.0068426197458455
0.997067448680352
0.9882697947214076
0.9794721407624634
0.9716520039100685
0.9667644183773216
0.9638318670576737
0.9628543499511242
0.9951124144672532
1.0469208211143697
1.075268817204301
1.0899315738025417
1.096774193548387
1.1016617790811338
1.1055718475073313
1.1094819159335287
1.1143695014662756
1.1202346041055715
1.1280547409579669
1.1368523949169111
1.147605083088954
1.1593352883675463
1.1720430107526882
1.1837732160312806
1.1935483870967742
1.203323558162268
1.2130987292277615
1.2228739002932552
1.2316715542521994
1.238514173998045
1.2443792766373412
1.2502443792766371
1.2561094819159335
1.2619745845552297
1.2688172043010753
1.2746823069403714
1.278592375366569
1.2825024437927663
1.2854349951124144
1.2873900293255132
1.289345063538612
1.2932551319648091
1.303030303030303
1.3235581622678396
1.3607038123167154
1.418377321603128
1.498533724340176
1.5835777126099706
1.6793743890518085
1.801564027370479
1.9403714565004888
2.0879765395894427
2.236559139784946
2.378299120234604
2.5083088954056696
2.622678396871945
2.721407624633431
2.8025415444770285
2.865102639296188
2.903225806451613
2.924731182795699
2.9393939393939394
2.9472140762463344
2.9472140762463344
2.940371456500489
2.927663734115347
2.9100684261974585
2.889540566959922
2.8670576735092865
2.8426197458455524
2.81622678396872
2.788856304985337
2.760508308895406
2.7311827956989245
2.699902248289345
2.665689149560117
2.6285434995112413
2.5884652981427174
2.5464320625610948
2.5004887585532747
2.4516129032258065
2.398826979472141
2.3391984359726297
2.2737047898338223
2.2111436950146626
2.147605083088954
2.074291300097752
1.994134897360704
1.911045943304008
1.8299120234604105
1.7526881720430108
1.6813294232649072
1.6187683284457477
1.565982404692082
1.521994134897361
1.4887585532746823
1.4652981427174976
1.4506353861192571
1.4418377321603129
1.4349951124144673
1.4271749755620724
1.418377321603128
1.4076246334310851
1.3949169110459434
1.3792766373411536
1.3616813294232648
1.3421309872922775
1.3196480938416422
1.2961876832844574
1.278592375366569
1.2639296187683284
1.2473118279569892
1.2287390029325511
1.2101661779081134
1.1915933528836755
1.173998044965787
1.1573802541544478
1.141739980449658
1.126099706744868
1.1114369501466277
1.0987292277614855
1.0869990224828934
1.0811339198435972
1.0791788856304985
1.0742913000977516
1.067448680351906
1.0606060606060606
1.053763440860215
1.04594330400782
1.0391006842619743
1.032258064516129
1.0263929618768328
1.0205278592375366
1.0166177908113392
1.0175953079178883
1.0195503421309873
1.0175953079178883
1.0156402737047898
1.013685239491691
1.0127077223851415
1.0127077223851415
1.0127077223851415
1.0127077223851415
1.0127077223851415
1.0146627565982405
1.0175953079178883
1.021505376344086
1.0273704789833822
1.035190615835777
1.0420332355816226
1.0478983382209188
1.0527859237536656
1.0576735092864125
1.0625610948191593
1.0664711632453567
1.0694037145650048
1.072336265884653
1.075268817204301
1.0762463343108504
1.0791788856304985
1.0840664711632453
1.086021505376344
1.086021505376344
1.086021505376344
1.0879765395894427
1.0957966764418376
1.1124144672531768
1.1436950146627567
1.1945259042033236
1.2688172043010753
1.367546432062561
1.4711632453567938
1.5835777126099706
1.721407624633431
1.873900293255132
2.0303030303030303
2.1847507331378297
2.3304007820136854
2.4613880742913
2.575757575757576
2.6715542521994133
2.748778103616813
2.809384164222874
2.854349951124145
2.8797653958944283
2.889540566959922
2.8944281524926687
2.89247311827957
2.884652981427175
2.8729227761485827
2.8582600195503423
2.8406647116324537
2.820136852394917
2.7996089931573804
2.777126099706745
2.7536656891495603
2.727272727272727
2.6989247311827955
2.667644183773216
2.635386119257087
2.601173020527859
2.563049853372434
2.5210166177908118
2.4750733137829912
2.4222873900293256
2.363636363636364
2.300097751710655
2.2297165200391005
2.15347018572825
2.0821114369501466
2.0127077223851417
1.935483870967742
1.855327468230694
1.7790811339198436
1.710654936461388
1.651026392961877
1.6001955034213098
1.560117302052786
1.5288367546432062
1.5053763440860215
1.487781036168133
1.4760508308895406
1.4682306940371457
1.4594330400782014
1.4486803519061584
1.4379276637341154
1.4271749755620724
1.414467253176931
1.3998044965786902
1.383186705767351
1.3655913978494625
1.346041055718475
1.324535679374389
1.3020527859237536
1.284457478005865
1.2697947214076246
1.2512218963831867
1.2326490713587488
1.2150537634408602
1.198435972629521
1.1827956989247312
1.1681329423264908
1.1534701857282503
1.13880742913001
1.1251221896383188
1.1133919843597262
1.1055718475073313
1.1016617790811338
1.096774193548387
1.0909090909090908
1.086021505376344
1.0821114369501466
1.0801564027370478
1.0791788856304985
1.078201368523949
1.078201368523949
1.078201368523949
1.078201368523949
1.078201368523949
1.0821114369501466
1.0869990224828934
1.0909090909090908
1.0948191593352885
1.0977517106549364
1.0987292277614855
1.099706744868035
1.104594330400782
1.1094819159335287
1.115347018572825
1.1221896383186705
1.1290322580645162
1.1368523949169111
1.1466275659824048
1.1544477028347997
1.1612903225806452
1.1671554252199414
1.1720430107526882
1.1759530791788857
1.1779081133919844
1.1798631476050832
1.1808406647116323
1.181818181818182
1.1837732160312806
1.18475073313783
1.1867057673509287
1.1906158357771262
1.1925708699902249
1.1964809384164223
1.2072336265884651
1.2297165200391007
1.270772238514174
1.3343108504398826
1.4222873900293256
1.5347018572825024
1.6686217008797657
1.8201368523949168
1.959921798631476
2.09188660801564
2.2385141739980448
2.386119257086999
2.5249266862170088
2.650048875855328
2.758553274682307
2.8484848484848486
2.919843597262952
2.972629521016618
3.0097751710654936
3.0332355816226784
3.04594330400782
3.04594330400782
3.037145650048876
3.027370478983382
3.0146627565982405
2.99902248289345
2.981427174975562
2.960899315738025
2.9374389051808407
2.911045943304008
2.881720430107527
2.8514173998044967
2.819159335288368
2.7859237536656893
2.750733137829912
2.713587487781036
2.673509286412512
2.63049853372434
2.582600195503421
2.5288367546432062
2.4682306940371457
2.39980449657869
2.324535679374389
2.242424242424242
2.155425219941349
2.067448680351906
1.9902248289345064
1.920821114369501
1.8484848484848484
1.7810361681329423
1.721407624633431
1.6715542521994136
1.6334310850439884
1.6041055718475072
1.581622678396872
1.5650048875855327
1.552297165200391
1.541544477028348
1.5347018572825024
1.5288367546432062
1.521016617790811
1.5102639296187683
1.4965786901270772
1.479960899315738
1.4613880742913
1.439882697947214
1.4164222873900294
1.3919843597262953
1.367546432062561
1.3450635386119256
1.3235581622678396
1.3069403714565004
1.2942326490713587
1.2795698924731185
1.2649071358748778
1.2512218963831867
1.2375366568914956
1.224828934506354
1.2121212121212122
1.2003910068426198
1.1915933528836755
1.18475073313783
1.1798631476050832
1.1788856304985338
1.1798631476050832
1.1798631476050832
1.1798631476050832
1.1798631476050832
1.1798631476050832
1.1798631476050832
1.1798631476050832
1.1827956989247312
1.1867057673509287
1.1915933528836755
1.1974584555229717
1.203323558162268
1.2101661779081134
1.2179863147605083
1.227761485826002
1.238514173998045
1.249266862170088
1.260019550342131
1.270772238514174
1.2834799608993157
1.295210166177908
1.305962854349951
1.3157380254154447
1.3255131964809383
1.335288367546432
1.3450635386119256
1.3528836754643203
1.3607038123167154
1.367546432062561
1.3743890518084063
1.380254154447703
1.3861192570869991
1.391006842619746
1.392961876832845
1.3958944281524928
1.401759530791789
1.4134897360703813
1.43108504398827
1.4623655913978495
1.512218963831867
1.58455522971652
1.6793743890518085
1.7947214076246334
1.9305962854349952
2.0791788856304985
2.2346041055718477
2.389051808406647
2.535679374389052
2.6695992179863146
2.773216031280548
2.854349951124145
2.932551319648094
2.99902248289345
3.0518084066471163
3.090909090909091
3.117302052785924
3.132942326490713
3.1378299120234603
3.132942326490713
3.120234604105572
3.103616813294233
3.0821114369501466
3.056695992179863
3.0303030303030303
3.002932551319648
2.9745845552297165
2.9442815249266863
2.913000977517106
2.8797653958944283
2.844574780058651
2.807429130009776
2.768328445747801
2.7262952101661777
2.6803519061583576
2.634408602150537
2.5865102639296187
2.5317693059628543
2.4711632453567938
2.403714565004888
2.3304007820136854
2.2521994134897363
2.1710654936461387
2.088954056695992
2.007820136852395
1.9305962854349952
1.8602150537634408
1.804496578690127
1.7605083088954057
1.7204301075268815
1.686217008797654
1.6578690127077225
1.6363636363636365
1.619745845552297
1.606060606060606
1.5933528836754642
1.5796676441837731
1.5650048875855327
1.5493646138807429
1.5317693059628543
1.5161290322580645
1.501466275659824
1.4809384164222874
1.458455522971652
1.435972629521017
1.412512218963832
1.3900293255131966
1.3685239491691104
1.3470185728250244
1.324535679374389
1.3020527859237536
1.2795698924731185
1.2639296187683284
1.252199413489736
1.238514173998045
1.224828934506354
1.2121212121212122
1.2003910068426198
1.1886608015640274
1.1788856304985338
1.1691104594330402
1.160312805474096
1.1515151515151516
1.142717497556207
1.133919843597263
1.1290322580645162
1.126099706744868
1.1221896383186705
1.1192570869990224
1.1163245356793745
1.1133919843597262
1.110459433040078
1.1085043988269794
1.10752688172043
1.10752688172043
1.1085043988269794
1.110459433040078
1.115347018572825
1.121212121212121
1.126099706744868
1.1300097751710656
1.133919843597263
1.13880742913001
1.144672531769306
1.1495601173020529
1.1534701857282503
1.1564027370478984
1.1593352883675463
1.1622678396871946
1.1407624633431086
1.1085043988269794
1.0948191593352885
1.0869990224828934
1.0811339198435972
1.078201368523949
1.0772238514173995
1.078201368523949
1.083088954056696
1.096774193548387
1.1251221896383188
1.1720430107526882
1.241446725317693
1.3206256109481915
1.4134897360703813
1.5347018572825024
1.675464320625611
1.827956989247312
1.9843597262952104
2.1378299120234603
2.281524926686217
2.410557184750733
2.5219941348973607
2.6158357771261
2.6930596285435
2.752688172043011
2.790811339198436
2.8132942326490715
2.83088954056696
2.841642228739003
2.8455522971652005
2.844574780058651
2.838709677419355
2.8289345063538613
2.81622678396872
2.7996089931573804
2.7810361681329425
2.7614858260019552
2.73802541544477
2.710654936461388
2.6823069403714563
2.6529814271749754
2.6207233626588464
2.5855327468230693
2.547409579667644
2.504398826979472
2.455522971652004
2.401759530791789
2.340175953079179
2.271749755620724
2.1974584555229715
2.1270772238514173
2.058651026392962
1.981427174975562
1.900293255131965
1.818181818181818
1.7390029325513197
1.667644183773216
1.6050830889540566
1.552297165200391
1.5083088954056696
1.4731182795698925
1.4467253176930597
1.4281524926686218
1.41544477028348
1.4027370478983383
1.391006842619746
1.3792766373411536
1.3665689149560116
1.3519061583577712
1.335288367546432
1.316715542521994
1.295210166177908
1.273704789833822
1.2502443792766371
1.2258064516129032
1.206256109481916
1.1915933528836755
1.173998044965787
1.1544477028347997
1.1348973607038124
1.1163245356793745
1.0987292277614855
1.083088954056696
1.0694037145650048
1.056695992179863
1.04594330400782
1.0371456500488758
1.0312805474095796
1.0283479960899315
1.0224828934506354
1.0146627565982405
1.007820136852395
1.0019550342130987
0.997067448680352
0.9941348973607038
0.9921798631476052
0.9912023460410556
0.9902248289345064
0.9902248289345064
0.9912023460410556
0.9960899315738024
1.0019550342130987
1.0058651026392962
1.0097751710654936
1.0127077223851415
1.0156402737047898
1.018572825024438
1.0224828934506354
1.0273704789833822
1.0342130987292275
1.0420332355816226
1.050830889540567
1.0606060606060606
1.0694037145650048
1.075268817204301
1.0811339198435972
1.0850439882697946
1.088954056695992
1.0928641251221896
1.0957966764418376
1.0977517106549364
1.0987292277614855
1.099706744868035
1.099706744868035
1.1016617790811338
1.1036168132942326
1.1055718475073313
1.110459433040078
1.1251221896383188
1.1544477028347997
1.203323558162268
1.2746823069403714
1.370478983382209
1.4897360703812317
1.6275659824046922
1.780058651026393
1.9393939393939397
2.078201368523949
2.20039100684262
2.3304007820136854
2.4545454545454546
2.565982404692082
2.6608015640273703
2.73802541544477
2.798631476050831
2.843597262952102
2.875855327468231
2.8963831867057674
2.906158357771261
2.905180840664712
2.8963831867057674
2.8856304985337244
2.8719452590420333
2.8563049853372435
2.8396871945259043
2.8211143695014664
2.80058651026393
2.7781036168132944
2.7536656891495603
2.7262952101661777
2.695014662756598
2.659824046920821
2.622678396871945
2.5835777126099706
2.539589442815249
2.490713587487781
2.436950146627566
2.378299120234604
2.3118279569892475
2.2385141739980448
2.158357771260997
2.0733137829912023
1.9853372434017595
1.8983382209188664
1.8240469208211143
1.7575757575757576
1.6901270772238517
1.6275659824046922
1.573802541544477
1.5288367546432062
1.4926686217008798
1.4633431085043989
1.4408602150537635
1.4222873900293256
1.4066471163245358
1.391006842619746
1.3763440860215057
1.3636363636363635
1.3519061583577712
1.3372434017595307
1.321603128054741
1.3040078201368523
1.284457478005865
1.2649071358748778
1.2443792766373412
1.2218963831867058
1.1994134897360704
1.1779081133919844
1.1573802541544478
1.141739980449658
1.1300097751710656
1.115347018572825
1.099706744868035
1.0850439882697946
1.0713587487781036
1.0596285434995112
1.0488758553274682
1.040078201368524
1.032258064516129
1.0273704789833822
1.0234604105571847
1.0195503421309873
1.0195503421309873
1.0224828934506354
1.0254154447702837
1.0273704789833822
1.0303030303030305
1.0332355816226784
1.0371456500488758
1.0420332355816226
1.0488758553274682
1.056695992179863
1.064516129032258
1.0733137829912025
1.083088954056696
1.0948191593352885
1.1065493646138806
1.118279569892473
1.1290322580645162
1.1407624633431086
1.1515151515151516
1.1612903225806452
1.1700879765395895
1.1788856304985338
1.187683284457478
1.1964809384164223
1.2043010752688172
1.2121212121212122
1.2209188660801564
1.2287390029325511
1.2355816226783969
1.2404692082111437
1.24633431085044
1.2502443792766371
1.252199413489736
1.2531769305962854
1.2551319648093842
1.2609970674486803
1.2746823069403714
1.2961876832844574
1.3284457478005864
1.3822091886608017
1.4594330400782014
1.5610948191593352
1.683284457478006
1.835777126099707
2.006842619745845
2.1730205278592374
2.3313782991202348
2.4789833822091887
2.611925708699902
2.7282502443792764
2.8132942326490715
2.874877810361681
2.9315738025415445
2.978494623655914
3.013685239491691
3.037145650048876
3.048875855327468
3.050830889540567
3.0449657869012707
3.0332355816226784
3.018572825024438
3.0009775171065494
2.978494623655914
2.9530791788856305
2.927663734115347
2.9012707722385143
2.873900293255132
2.844574780058651
2.811339198435973
2.7751710654936463
2.736070381231672
2.6940371456500487
2.6480938416422286
2.5992179863147604
2.544477028347996
2.490713587487781
2.4349951124144678
2.36950146627566
2.2961876832844577
2.2160312805474094
2.131964809384164
2.0449657869012707
1.9579667644183771
1.873900293255132
1.7956989247311828
1.7253176930596286
1.664711632453568
1.6187683284457477
1.5826001955034212
1.5513196480938416
1.525904203323558
1.5063538611925709
1.490713587487781
1.47702834799609
1.466275659824047
1.4545454545454546
1.4408602150537635
1.4252199413489737
1.4076246334310851
1.388074291300098
1.3724340175953078
1.356793743890518
1.3372434017595307
1.3157380254154447
1.2932551319648091
1.2717497556207231
1.2502443792766371
1.2297165200391007
1.2101661779081134
1.1915933528836755
1.173998044965787
1.1573802541544478
1.1456500488758554
1.1368523949169111
1.126099706744868
1.1143695014662756
1.1026392961876832
1.0918866080156402
1.0821114369501466
1.0742913000977516
1.067448680351906
1.0625610948191593
1.0586510263929618
1.053763440860215
1.0518084066471165
1.0518084066471165
1.050830889540567
1.0488758553274682
1.0478983382209188
1.0488758553274682
1.050830889540567
1.0527859237536656
1.0557184750733135
1.0586510263929618
1.06158357771261
1.064516129032258
1.067448680351906
1.072336265884653
1.078201368523949
1.083088954056696
1.0869990224828934
1.0899315738025417
1.0928641251221896
1.0957966764418376
1.0987292277614855
1.099706744868035
1.1006842619745845
1.1006842619745845
1.099706744868035
1.0987292277614855
1.0987292277614855
1.0957966764418376
1.093841642228739
1.093841642228739
1.099706744868035
1.118279569892473
1.1534701857282503
1.2082111436950147
1.2873900293255132
1.392961876832845
1.521016617790811
1.6666666666666667
