ppg
2.5718475073313782
2.4975562072336266
2.419354838709677
2.3382209188660803
2.259042033235582
2.1837732160312804
2.1192570869990224
2.0625610948191597
2.007820136852395
1.9579667644183771
1.916911045943304
1.8836754643206255
1.857282502443793
1.8377321603128052
1.823069403714565
1.8113391984359728
1.7996089931573802
1.7878787878787878
1.7761485826001957
1.7634408602150538
1.7458455522971652
1.7253176930596286
1.6950146627565983
1.6588465298142718
1.6275659824046922
1.5972629521016617
1.5669599217986314
1.5376344086021505
1.5102639296187683
1.482893450635386
1.455522971652004
1.4330400782013686
1.412512218963832
1.3890518084066472
1.3655913978494625
1.3421309872922775
1.3206256109481915
1.2991202346041055
1.2776148582600195
1.2580645161290325
1.241446725317693
1.227761485826002
1.2150537634408602
1.206256109481916
1.1994134897360704
1.1915933528836755
1.18475073313783
1.1788856304985338
1.1730205278592376
1.1671554252199414
1.1593352883675463
1.1505376344086022
1.1436950146627567
1.1378299120234605
1.1329423264907137
1.1300097751710656
1.1300097751710656
1.130987292277615
1.130987292277615
1.1300097751710656
1.1280547409579669
1.1251221896383188
1.1221896383186705
1.118279569892473
1.1173020527859236
1.1231671554252198
1.142717497556207
1.1808406647116323
1.2316715542521994
1.2981427174975562
1.3958944281524928
1.520039100684262
1.664711632453568
1.823069403714565
1.9872922776148585
2.1495601173020527
2.304007820136853
2.44672531769306
2.573802541544477
2.684261974584555
2.777126099706745
2.841642228739003
2.8885630498533725
2.932551319648094
2.9667644183773216
2.989247311827957
2.99902248289345
2.9960899315738025
2.9804496578690127
2.951124144672532
2.90811339198436
2.852394916911046
2.7859237536656893
2.718475073313783
2.6471163245356792
2.5669599217986314
2.4838709677419355
2.401759530791789
2.324535679374389
2.254154447702835
2.1915933528836757
2.136852394916911
2.088954056695992
2.048875855327468
2.0146627565982405
1.9853372434017595
1.962854349951124
1.9442815249266865
1.9257086999022484
1.90811339198436
1.8905180840664717
1.8729227761485825
1.8533724340175952
1.83088954056696
1.8054740957966764
1.7771260997067448
1.7458455522971652
1.7126099706744868
1.683284457478006
1.6549364613880744
1.6236559139784943
1.5913978494623655
1.5571847507331378
1.52297165200391
1.4897360703812317
1.456500488758553
1.4242424242424243
1.3949169110459434
1.3685239491691104
1.3440860215053765
1.3206256109481915
1.3010752688172045
1.284457478005865
1.2658846529814272
1.2473118279569892
1.2287390029325511
1.2111436950146628
1.1945259042033236
1.1798631476050832
1.166177908113392
1.152492668621701
1.1407624633431086
1.1300097751710656
1.1241446725317692
1.1202346041055715
1.1143695014662756
1.10752688172043
1.1006842619745845
1.093841642228739
1.086021505376344
1.078201368523949
1.0703812316715542
1.0625610948191593
1.053763440860215
1.04594330400782
1.0391006842619743
1.0361681329423265
1.0371456500488758
1.040078201368524
1.0498533724340176
1.0733137829912025
1.1163245356793745
1.181818181818182
1.2727272727272727
1.388074291300098
1.5239491691104594
1.6744868035190617
1.833822091886608
1.9736070381231672
2.0977517106549364
2.2267839687194524
2.3489736070381237
2.4574780058651027
2.550342130987292
2.6265884652981426
2.686217008797654
2.7311827956989245
2.7614858260019552
2.777126099706745
2.779081133919844
2.768328445747801
2.7468230694037143
2.7145650048875853
2.6695992179863146
2.611925708699902
2.5434995112414467
2.466275659824047
2.383186705767351
2.2981427174975564
2.2140762463343107
2.133919843597263
2.060606060606061
1.997067448680352
1.946236559139785
1.906158357771261
1.870967741935484
1.842619745845552
1.8191593352883677
1.8005865102639296
1.7849462365591398
1.7702834799608993
1.7556207233626588
1.7390029325513197
1.7194525904203324
1.6989247311827955
1.6764418377321604
1.6559139784946235
1.6363636363636365
1.6138807429130009
1.590420332355816
1.5650048875855327
1.5386119257087
1.5112414467253177
1.4819159335288368
1.4516129032258065
1.4222873900293256
1.3919843597262953
1.3626588465298142
1.3391984359726294
1.3186705767350928
1.295210166177908
1.2697947214076246
1.2453567937438903
1.2238514173998043
1.2043010752688172
1.1857282502443791
1.1671554252199414
1.1495601173020529
1.1329423264907137
1.118279569892473
1.1094819159335287
1.104594330400782
1.0977517106549364
1.0909090909090908
1.0840664711632453
1.078201368523949
1.0713587487781036
1.0654936461388074
1.0596285434995112
1.053763440860215
1.0478983382209188
1.0439882697947214
1.040078201368524
1.0391006842619743
1.0391006842619743
1.0371456500488758
1.035190615835777
1.035190615835777
1.040078201368524
1.0547409579667644
1.0840664711632453
1.1329423264907137
1.206256109481916
1.3069403714565004
1.4330400782013686
1.5571847507331378
1.6842619745845553
1.8347996089931573
1.994134897360704
2.1515151515151514
2.300097751710655
2.434017595307918
2.552297165200391
2.6529814271749754
2.736070381231672
2.803519061583578
2.854349951124145
2.89247311827957
2.9120234604105573
2.916911045943304
2.913978494623656
2.9012707722385143
2.878787878787879
2.844574780058651
2.7976539589442817
2.739980449657869
2.6715542521994133
2.595307917888563
2.509286412512219
2.419354838709677
2.3411534701857284
2.270772238514174
2.203323558162268
2.1417399804496577
2.0869990224828934
2.0410557184750733
2.003910068426197
1.9726295210166176
1.9472140762463344
1.9257086999022484
1.906158357771261
1.8875855327468232
1.8699902248289344
1.855327468230694
1.8416422287390029
1.826001955034213
1.8064516129032255
1.7849462365591398
1.7605083088954057
1.7331378299120237
1.7038123167155426
1.6735092864125125
1.6422287390029326
1.6099706744868034
1.5796676441837731
1.5532746823069403
1.5278592375366569
1.499511241446725
1.4711632453567938
1.4428152492668622
1.4164222873900294
1.391006842619746
1.3665689149560116
1.343108504398827
1.3206256109481915
1.300097751710655
1.2825024437927663
1.2649071358748778
1.252199413489736
1.2424242424242424
1.2316715542521994
1.2218963831867058
1.2111436950146628
1.2013685239491692
1.1925708699902249
1.1837732160312806
1.1749755620723363
1.1652003910068427
1.1573802541544478
1.1505376344086022
1.147605083088954
1.1456500488758554
1.141739980449658
1.1358748778103618
1.1270772238514175
1.1173020527859236
1.10752688172043
1.0977517106549364
1.0899315738025417
1.0840664711632453
1.0840664711632453
1.0928641251221896
1.1173020527859236
1.1534701857282503
1.2052785923753666
1.2854349951124144
1.3949169110459434
1.5288367546432062
1.683284457478006
1.8504398826979471
2.021505376344086
2.188660801564027
2.3440860215053765
2.4838709677419355
2.6050830889540566
2.6940371456500487
2.7614858260019552
2.8240469208211145
2.877810361681329
2.918866080156403
2.9472140762463344
2.962854349951124
2.9657869012707723
2.956011730205278
2.9315738025415445
2.89247311827957
2.8406647116324537
2.776148582600196
2.7096774193548385
2.6402737047898337
2.5620723362658846
2.4780058651026398
2.393939393939394
2.3118279569892475
2.2346041055718477
2.164222873900293
2.1006842619745845
2.04594330400782
1.9990224828934504
1.9589442815249267
1.927663734115347
1.902248289345064
1.878787878787879
1.8563049853372435
1.8347996089931573
1.8132942326490715
1.7917888563049853
1.7683284457478006
1.7448680351906158
1.721407624633431
1.6979472140762464
1.6735092864125125
1.6471163245356797
1.6226783968719452
1.5992179863147604
1.5708699902248289
1.5386119257087
1.5024437927663734
1.4633431085043989
1.4222873900293256
1.380254154447703
1.3391984359726294
1.2991202346041055
1.2609970674486803
1.224828934506354
1.198435972629521
1.1788856304985338
1.1573802541544478
1.1358748778103618
1.1163245356793745
1.099706744868035
1.0840664711632453
1.0713587487781036
1.0606060606060606
1.0518084066471165
1.04594330400782
1.0410557184750733
1.0361681329423265
1.0342130987292275
1.0342130987292275
1.0312805474095796
1.0273704789833822
1.0224828934506354
1.0166177908113392
1.0117302052785924
1.007820136852395
1.0048875855327468
1.0009775171065494
0.9960899315738024
0.9912023460410556
0.989247311827957
0.989247311827957
0.9863147605083088
0.9853372434017597
0.989247311827957
1.002932551319648
1.032258064516129
1.0811339198435972
1.1544477028347997
1.2531769305962854
1.375366568914956
1.517106549364614
1.6715542521994136
1.8103616813294232
1.93841642228739
2.0762463343108504
2.210166177908113
2.333333333333333
2.439882697947214
2.529814271749756
2.6021505376344085
2.658846529814272
2.701857282502444
2.730205278592375
2.744868035190616
2.7438905180840663
2.7311827956989245
2.70772238514174
2.670576735092864
2.6207233626588464
2.5591397849462365
2.487781036168133
2.410557184750733
2.3304007820136854
2.2502443792766376
2.1700879765395893
2.093841642228739
2.0303030303030303
1.9775171065493649
1.9266862170087975
1.8826979472140764
1.847507331378299
1.818181818181818
1.793743890518084
1.7741935483870968
1.7565982404692082
1.7390029325513197
1.721407624633431
1.7038123167155426
1.6852394916911049
1.6686217008797657
1.651026392961877
1.629521016617791
1.6050830889540566
1.5786901270772238
1.5503421309872922
1.521016617790811
1.490713587487781
1.4594330400782014
1.4271749755620724
1.396871945259042
1.3665689149560116
1.3411534701857282
1.3196480938416422
1.295210166177908
1.2697947214076246
1.2434017595307918
1.2189638318670577
1.198435972629521
1.1788856304985338
1.160312805474096
1.141739980449658
1.1251221896383188
1.1114369501466277
1.099706744868035
1.093841642228739
1.0899315738025417
1.083088954056696
1.075268817204301
1.067448680351906
1.06158357771261
1.056695992179863
1.0527859237536656
1.0498533724340176
1.0469208211143697
1.0439882697947214
1.040078201368524
1.0381231671554252
1.0381231671554252
1.035190615835777
1.0303030303030305
1.0254154447702837
1.0195503421309873
1.0156402737047898
1.0156402737047898
1.0224828934506354
1.0439882697947214
1.086021505376344
1.1515151515151516
1.241446725317693
1.33822091886608
1.4467253176930597
1.5865102639296187
1.7448680351906158
1.9159335288367547
2.088954056695992
2.251221896383187
2.398826979472141
2.5288367546432062
2.6402737047898337
2.7341153470185726
2.812316715542522
2.865102639296188
2.9012707722385143
2.9345063538611926
2.9589442815249267
2.970674486803519
2.970674486803519
2.956989247311828
2.930596285434995
2.889540566959922
2.8367546432062563
2.774193548387097
2.702834799608993
2.625610948191593
2.552297165200391
2.4819159335288368
2.406647116324536
2.332355816226784
2.2629521016617797
2.20039100684262
2.145650048875855
2.099706744868035
2.06158357771261
2.0303030303030303
2.004887585532747
1.9824046920821117
1.963831867057673
1.946236559139785
1.9257086999022484
1.903225806451613
1.8807429130009776
1.858260019550342
1.8347996089931573
1.8093841642228736
1.782991202346041
1.7556207233626588
1.7253176930596286
1.6930596285434996
1.6598240469208212
1.6304985337243405
1.603128054740958
1.5728250244379276
1.541544477028348
1.5102639296187683
1.4809384164222874
1.452590420332356
1.426197458455523
1.4007820136852396
1.3763440860215057
1.3519061583577712
1.3284457478005864
1.3098729227761483
1.2961876832844574
1.2825024437927663
1.267839687194526
1.2531769305962854
1.238514173998045
1.224828934506354
1.2130987292277615
1.2013685239491692
1.1915933528836755
1.1827956989247312
1.173998044965787
1.1652003910068427
1.160312805474096
1.1583577712609971
1.1544477028347997
1.1495601173020529
1.1436950146627567
1.1368523949169111
1.1290322580645162
1.1202346041055715
1.1114369501466277
1.1016617790811338
1.0918866080156402
1.0850439882697946
1.0850439882697946
1.093841642228739
1.1143695014662756
1.1515151515151516
1.2101661779081134
1.2942326490713587
1.4056695992179864
1.541544477028348
1.6959921798631477
1.86119257086999
2.0283479960899315
2.189638318670577
2.340175953079179
2.4594330400782014
2.5562072336265884
2.6510263929618767
2.7370478983382207
2.8084066471163247
2.865102639296188
2.909090909090909
2.940371456500489
2.9589442815249267
2.964809384164223
2.956989247311828
2.9345063538611926
2.9012707722385143
2.8582600195503423
2.801564027370479
2.7331378299120237
2.6559139784946235
2.5718475073313782
2.484848484848485
2.3978494623655915
2.314760508308896
2.2375366568914954
2.1681329423264906
2.10752688172043
2.0557184750733137
2.0146627565982405
1.9804496578690127
1.9501466275659824
1.9227761485826005
1.8983382209188664
1.8758553274682308
1.8533724340175952
1.8318670576735088
1.8093841642228736
1.7849462365591398
1.761485826001955
1.7360703812316716
1.7116324535679377
1.689149560117302
1.6637341153470186
1.6344086021505375
1.6021505376344083
1.5679374389051808
1.533724340175953
1.500488758553275
1.4672531769305963
1.434017595307918
1.401759530791789
1.3695014662756595
1.3372434017595307
1.3118279569892473
1.289345063538612
1.262952101661779
1.2355816226783969
1.209188660801564
1.1837732160312806
1.1573802541544478
1.1329423264907137
1.110459433040078
1.088954056695992
1.067448680351906
1.0469208211143697
1.0342130987292275
1.0263929618768328
1.0166177908113392
1.0068426197458455
0.9990224828934506
0.9921798631476052
0.9853372434017597
0.978494623655914
0.9696969696969696
0.9589442815249268
0.9472140762463344
0.9325513196480938
0.9217986314760508
0.9130009775171064
0.8993157380254154
0.8836754643206256
0.8670576735092864
0.8543499511241447
0.8484848484848485
0.8514173998044966
0.8690127077223851
0.9071358748778104
0.9696969696969696
1.056695992179863
1.1681329423264908
1.2825024437927663
1.401759530791789
1.544477028347996
1.696969696969697
1.8494623655913975
1.9960899315738023
2.1309872922776147
2.251221896383187
2.3548387096774195
2.442815249266862
2.5141739980449658
2.570869990224829
2.6080156402737047
2.631476050830889
2.649071358748778
2.6559139784946235
2.652003910068426
2.635386119257087
2.606060606060606
2.5620723362658846
2.506353861192571
2.4408602150537635
2.366568914956012
2.2883675464320627
2.210166177908113
2.1417399804496577
2.080156402737048
2.0205278592375366
1.9667644183773216
1.919843597262952
1.8807429130009776
1.8484848484848484
1.822091886608016
1.7996089931573802
1.7820136852394917
1.7673509286412512
1.75366568914956
1.7419354838709675
1.729227761485826
1.7135874877810362
1.6959921798631477
1.6764418377321604
1.653958944281525
1.6285434995112416
1.6011730205278591
1.5718475073313782
1.541544477028348
1.5102639296187683
1.478005865102639
1.4467253176930597
1.4222873900293256
1.4007820136852396
1.3773216031280548
1.3519061583577712
1.3264907135874875
1.3020527859237536
1.2776148582600195
1.2551319648093842
1.2336265884652982
1.2140762463343109
1.195503421309873
1.176930596285435
1.163245356793744
1.152492668621701
1.1407624633431086
1.1290322580645162
1.1192570869990224
1.1114369501466277
1.1055718475073313
1.1016617790811338
1.0977517106549364
1.0948191593352885
1.0899315738025417
1.121212121212121
1.1691104594330402
1.1935483870967742
1.2052785923753666
1.2072336265884651
1.2043010752688172
1.198435972629521
1.1915933528836755
1.18475073313783
1.1798631476050832
1.1788856304985338
1.1867057673509287
1.206256109481916
1.2424242424242424
1.2883675464320623
1.3499511241446724
1.4389051808406648
1.552297165200391
1.686217008797654
1.833822091886608
1.988269794721408
2.144672531769306
2.2952101661779083
2.434017595307918
2.5591397849462365
2.668621700879765
2.763440860215054
2.83088954056696
2.878787878787879
2.9237536656891496
2.960899315738025
2.986314760508309
3.0
3.002932551319648
2.994134897360704
2.9716520039100685
2.9345063538611926
2.8836754643206257
2.8240469208211145
2.763440860215054
2.699902248289345
2.627565982404692
2.5513196480938416
2.4750733137829912
2.401759530791789
2.332355816226784
2.2688172043010755
2.212121212121212
2.164222873900293
2.1251221896383186
2.0928641251221896
2.0664711632453567
2.046920821114369
2.0303030303030303
2.013685239491691
1.9960899315738023
1.9794721407624636
1.9618768328445748
1.943304007820137
1.9227761485826005
1.900293255131965
1.87683284457478
1.8514173998044965
1.8240469208211143
1.7996089931573802
1.7761485826001957
1.7487781036168133
1.7204301075268815
1.6920821114369502
1.66177908113392
1.632453567937439
1.603128054740958
1.5747800586510263
1.5483870967741935
1.5239491691104594
1.500488758553275
1.478005865102639
1.4604105571847508
1.4467253176930597
1.4320625610948192
1.4173998044965788
1.4027370478983383
1.3890518084066472
1.3743890518084063
1.3607038123167154
1.348973607038123
1.33822091886608
1.3294232649071358
1.321603128054741
1.3176930596285434
1.3147605083088951
1.3098729227761483
1.3020527859237536
1.29227761485826
1.2825024437927663
1.2727272727272727
1.2658846529814272
1.260019550342131
1.2551319648093842
1.249266862170088
1.241446725317693
1.2346041055718475
1.2316715542521994
1.2326490713587488
1.2394916911045943
1.2561094819159335
1.2903225806451613
1.3470185728250244
1.4301075268817205
1.5395894428152492
1.6705767350928642
1.8172043010752688
1.9726295210166176
2.129032258064516
2.260997067448681
2.375366568914956
2.4916911045943304
2.5992179863147604
2.6940371456500487
2.774193548387097
2.838709677419355
2.8885630498533725
2.9257086999022484
2.9501466275659824
2.961876832844575
2.960899315738025
2.946236559139785
2.920821114369501
2.884652981427175
2.8367546432062563
2.777126099706745
2.708699902248289
2.634408602150537
2.555229716520039
2.4760508308895406
2.3978494623655915
2.3225806451612905
2.2531769305962857
2.189638318670577
2.1378299120234603
2.0948191593352883
2.0557184750733137
2.022482893450636
1.994134897360704
1.9696969696969695
1.9501466275659824
1.9335288367546437
1.916911045943304
1.900293255131965
1.8807429130009776
1.8592375366568916
1.8387096774193548
1.818181818181818
1.793743890518084
1.7663734115347018
1.7380254154447703
1.7096774193548387
1.6813294232649072
1.6520039100684265
1.6226783968719452
1.5923753665689149
1.5620723362658846
1.5317693059628543
1.5024437927663734
1.478983382209189
1.4594330400782014
1.436950146627566
1.412512218963832
1.388074291300098
1.3636363636363635
1.3401759530791788
1.3186705767350928
1.2981427174975562
1.2805474095796676
1.2649071358748778
1.2512218963831867
1.2434017595307918
1.238514173998045
1.2326490713587488
1.2258064516129032
1.219941348973607
1.2140762463343109
1.2072336265884651
1.1994134897360704
1.1915933528836755
1.18475073313783
1.176930596285435
1.1700879765395895
1.164222873900293
1.1612903225806452
1.160312805474096
1.1573802541544478
1.1534701857282503
1.1485826001955035
1.1456500488758554
1.147605083088954
1.160312805474096
1.1886608015640274
1.2365591397849462
1.3079178885630498
1.401759530791789
1.500488758553275
1.607038123167155
1.7380254154447703
1.8836754643206255
2.0332355816226784
2.1788856304985336
2.313782991202346
2.434017595307918
2.539589442815249
2.627565982404692
2.699902248289345
2.757575757575758
2.80058651026393
2.8260019550342133
2.8377321603128056
2.841642228739003
2.835777126099707
2.819159335288368
2.789833822091887
2.747800586510264
2.695014662756598
2.633431085043988
2.5640273704789838
2.490713587487781
2.41544477028348
2.347018572825025
2.2854349951124147
2.2238514173998043
2.1652003910068425
2.112414467253177
2.0664711632453567
2.027370478983382
1.9960899315738023
1.970674486803519
1.951124144672532
1.9335288367546437
1.9178885630498532
1.902248289345064
1.8866080156402736
1.8729227761485825
1.857282502443793
1.8387096774193548
1.818181818181818
1.7976539589442817
1.7771260997067448
1.7546432062561097
1.7311827956989247
1.7057673509286413
1.6793743890518085
1.6520039100684265
1.6285434995112416
1.606060606060606
1.5806451612903225
1.5542521994134897
1.5288367546432062
1.4760508308895406
1.4086021505376345
1.3636363636363635
1.3313782991202343
1.3069403714565004
1.2854349951124144
1.2658846529814272
1.249266862170088
1.2375366568914956
1.2287390029325511
1.2189638318670577
1.2101661779081134
1.2023460410557183
1.195503421309873
1.1896383186705768
1.1837732160312806
1.1779081133919844
1.1720430107526882
1.1652003910068427
1.1593352883675463
1.1564027370478984
1.1544477028347997
1.1505376344086022
1.1456500488758554
1.1407624633431086
1.1358748778103618
1.130987292277615
1.1251221896383188
1.118279569892473
1.1124144672531768
1.110459433040078
1.1173020527859236
1.1378299120234605
1.1710654936461389
1.2209188660801564
1.3010752688172045
1.409579667644184
1.542521994134897
1.6950146627565983
1.8602150537634408
2.0303030303030303
2.196480938416422
2.3528836754643208
2.4946236559139785
2.6207233626588464
2.7145650048875853
2.78494623655914
2.8514173998044967
2.90811339198436
2.9530791788856305
2.9853372434017595
3.005865102639296
3.0146627565982405
3.010752688172043
2.992179863147605
2.959921798631476
2.913000977517106
2.852394916911046
2.788856304985337
2.720430107526881
2.641251221896383
2.5562072336265884
2.469208211143695
2.383186705767351
2.302052785923754
2.228739002932551
2.164222873900293
2.10752688172043
2.0576735092864125
2.01564027370479
1.9824046920821117
1.9560117302052784
1.9315738025415443
1.90811339198436
1.884652981427175
1.8631476050830889
1.8416422287390029
1.8191593352883677
1.793743890518084
1.7673509286412512
1.7390029325513197
1.7096774193548387
1.678396871945259
1.651026392961877
1.624633431085044
1.5943304007820136
1.5620723362658846
1.5298142717497556
1.498533724340176
1.4672531769305963
1.435972629521017
1.404692082111437
1.3743890518084063
1.3450635386119256
1.316715542521994
1.295210166177908
1.278592375366569
1.260019550342131
1.241446725317693
1.2228739002932552
1.2043010752688172
1.1867057673509287
1.1700879765395895
1.1534701857282503
1.13880742913001
1.126099706744868
1.115347018572825
1.1085043988269794
1.104594330400782
1.0977517106549364
1.0899315738025417
1.0821114369501466
1.0742913000977516
1.0664711632453567
1.0586510263929618
1.0498533724340176
1.0420332355816226
1.0332355816226784
1.0234604105571847
1.013685239491691
1.0087976539589445
1.0068426197458455
1.002932551319648
1.002932551319648
1.010752688172043
1.0312805474095796
1.0684261974584557
1.126099706744868
1.209188660801564
1.3176930596285434
1.4496578690127078
1.598240469208211
1.7350928641251222
1.865102639296188
2.007820136852395
2.1495601173020527
2.281524926686217
2.398826979472141
2.4995112414467253
2.58455522971652
2.6529814271749754
2.704789833822092
2.742913000977517
2.7673509286412514
2.777126099706745
2.771260997067449
2.7517106549364616
2.720430107526881
2.677419354838709
2.622678396871945
2.557184750733138
2.4838709677419355
2.404692082111437
2.324535679374389
2.244379276637341
2.167155425219941
2.0948191593352883
2.0332355816226784
1.9824046920821117
1.9335288367546437
1.8905180840664717
1.8563049853372435
1.827956989247312
1.804496578690127
1.7859237536656891
1.7702834799608993
1.75366568914956
1.737047898338221
1.7194525904203324
1.7008797653958945
1.6842619745845553
1.667644183773216
1.64613880742913
1.6226783968719452
1.5972629521016617
1.56891495601173
1.5405669599217986
1.512218963831867
1.482893450635386
1.452590420332356
1.4222873900293256
1.3919843597262953
1.367546432062561
1.346041055718475
1.3225806451612905
1.300097751710655
1.278592375366569
1.2570869990224829
1.2365591397849462
1.217008797653959
1.1994134897360704
1.1827956989247312
1.1681329423264908
1.1544477028347997
1.142717497556207
1.1348973607038124
1.1300097751710656
1.1231671554252198
1.1163245356793745
1.1114369501466277
1.10752688172043
1.1036168132942326
1.1016617790811338
1.099706744868035
