ppg
1.6177908113391983
1.6041055718475072
1.590420332355816
1.5757575757575757
1.5581622678396871
1.5395894428152492
1.52297165200391
1.5063538611925709
1.4868035190615836
1.4652981427174976
1.4418377321603129
1.418377321603128
1.393939393939394
1.370478983382209
1.348973607038123
1.3294232649071358
1.3098729227761483
1.29227761485826
1.2756598240469208
1.262952101661779
1.2531769305962854
1.249266862170088
1.2482893450635386
1.2424242424242424
1.2326490713587488
1.219941348973607
1.2052785923753666
1.187683284457478
1.1710654936461389
1.160312805474096
1.166177908113392
1.1915933528836755
1.24633431085044
1.3499511241446724
1.504398826979472
1.7038123167155426
1.932551319648094
2.1700879765395893
2.396871945259042
2.5943304007820136
2.7536656891495603
2.8719452590420333
2.9530791788856305
3.004887585532747
3.027370478983382
3.0303030303030303
3.024437927663734
3.0087976539589443
2.98435972629521
2.949169110459433
2.902248289345064
2.844574780058651
2.777126099706745
2.7008797653958942
2.6148582600195502
2.5190615835777126
2.429130009775171
2.3421309872922778
2.247311827956989
2.1515151515151514
2.060606060606061
1.9775171065493649
1.905180840664712
1.844574780058651
1.7956989247311828
1.7575757575757576
1.7282502443792769
1.7038123167155426
1.6813294232649072
1.6627565982404693
1.6471163245356797
1.629521016617791
1.6099706744868034
1.5884652981427174
1.565982404692082
1.542521994134897
1.517106549364614
1.490713587487781
1.4633431085043989
1.4349951124144673
1.4076246334310851
1.3851417399804498
1.3665689149560116
1.3450635386119256
1.3235581622678396
1.3020527859237536
1.2805474095796676
1.260019550342131
1.2404692082111437
1.2218963831867058
1.203323558162268
1.1857282502443791
1.1691104594330402
1.152492668621701
1.13880742913001
1.126099706744868
1.10752688172043
1.088954056695992
1.0801564027370478
1.093841642228739
1.144672531769306
1.2424242424242424
1.391006842619746
1.585532746823069
1.812316715542522
2.0498533724340176
2.2521994134897363
2.420332355816227
2.5806451612903225
2.713587487781036
2.8132942326490715
2.8826979472140764
2.9266862170087977
2.9501466275659824
2.9579667644183774
2.952101661779081
2.935483870967742
2.90811339198436
2.8690127077223853
2.8240469208211145
2.7702834799608995
2.704789833822092
2.6285434995112413
2.5425219941348973
2.4486803519061584
2.347996089931574
2.244379276637341
2.1407624633431084
2.0410557184750733
1.9501466275659824
1.8699902248289344
1.8084066471163245
1.7595307917888563
1.7165200391006843
1.6803519061583578
1.6520039100684265
1.6285434995112416
1.6080156402737047
1.5894428152492668
1.5698924731182795
1.5483870967741935
1.5249266862170088
1.500488758553275
1.4750733137829912
1.4545454545454546
1.435972629521017
1.412512218963832
1.3870967741935485
1.3607038123167154
1.335288367546432
1.3098729227761483
1.284457478005865
1.260019550342131
1.2365591397849462
1.2150537634408602
1.195503421309873
1.1808406647116323
1.1700879765395895
1.1583577712609971
1.1456500488758554
1.130987292277615
1.115347018572825
1.0977517106549364
1.075268817204301
1.0488758553274682
1.0234604105571847
1.0068426197458455
1.0127077223851415
1.0547409579667644
1.1241446725317692
1.2297165200391007
1.392961876832845
1.6021505376344083
1.8377321603128052
2.0772238514174
2.2991202346041058
2.487781036168133
2.636363636363636
2.7438905180840663
2.8152492668621703
2.857282502443793
2.873900293255132
2.873900293255132
2.866080156402737
2.850439882697948
2.825024437927664
2.790811339198436
2.7468230694037143
2.69208211143695
2.625610948191593
2.549364613880743
2.463343108504399
2.3685239491691106
2.2795698924731185
2.193548387096774
2.099706744868035
2.004887585532747
1.9159335288367547
1.835777126099707
1.7673509286412512
1.710654936461388
1.664711632453568
1.6275659824046922
1.598240469208211
1.5747800586510263
1.555229716520039
1.5395894428152492
1.525904203323558
1.509286412512219
1.490713587487781
1.469208211143695
1.4457478005865103
1.4193548387096775
1.3919843597262953
1.3636363636363635
1.332355816226784
1.300097751710655
1.267839687194526
1.241446725317693
1.2179863147605083
1.1906158357771262
1.163245356793744
1.1368523949169111
1.1124144672531768
1.0899315738025417
1.0703812316715542
1.0547409579667644
1.0410557184750733
1.029325513196481
1.0175953079178883
1.0058651026392962
0.997067448680352
0.989247311827957
0.981427174975562
0.9853372434017597
1.013685239491691
1.0811339198435972
1.195503421309873
1.3607038123167154
1.56891495601173
1.8054740957966764
2.047898338220919
2.274682306940372
2.452590420332356
2.58455522971652
2.6959921798631474
2.777126099706745
2.827956989247312
2.854349951124145
2.8611925708699903
2.852394916911046
2.831867057673509
2.801564027370479
2.7624633431085046
2.7145650048875853
2.6578690127077222
2.5992179863147604
2.535679374389052
2.4604105571847508
2.376344086021505
2.2873900293255134
2.193548387096774
2.099706744868035
2.0097751710654936
1.924731182795699
1.8494623655913975
1.7849462365591398
1.7302052785923754
1.689149560117302
1.6578690127077225
1.6304985337243405
1.606060606060606
1.58455522971652
1.563049853372434
1.541544477028348
1.5190615835777126
1.4965786901270772
1.474095796676442
1.452590420332356
1.4301075268817205
1.4076246334310851
1.3900293255131966
1.3743890518084063
1.356793743890518
1.3372434017595307
1.3186705767350928
1.3010752688172045
1.2834799608993157
1.2658846529814272
1.2512218963831867
1.2375366568914956
1.2238514173998043
1.2101661779081134
1.2003910068426198
1.1925708699902249
1.1827956989247312
1.1710654936461389
1.1573802541544478
1.1407624633431086
1.121212121212121
1.0987292277614855
1.0801564027370478
1.0762463343108504
1.099706744868035
1.164222873900293
1.2756598240469208
1.4086021505376345
1.5650048875855327
1.7683284457478006
1.9931573802541545
2.2160312805474094
2.41544477028348
2.581622678396872
2.710654936461388
2.803519061583578
2.865102639296188
2.903225806451613
2.9237536656891496
2.9266862170087977
2.916911045943304
2.900293255131965
2.873900293255132
2.8367546432062563
2.789833822091887
2.7331378299120237
2.665689149560117
2.5884652981427174
2.501466275659824
2.407624633431085
2.3098729227761488
2.2111436950146626
2.124144672531769
2.046920821114369
1.9696969696969695
1.8973607038123168
1.8347996089931573
1.7810361681329423
1.737047898338221
1.7018572825024438
1.6735092864125125
1.651026392961877
1.6314760508308896
1.6109481915933528
1.5943304007820136
1.5796676441837731
1.5610948191593352
1.5405669599217986
1.5190615835777126
1.4975562072336266
1.4750733137829912
1.452590420332356
1.43108504398827
1.4105571847507332
1.391006842619746
1.3734115347018572
1.3558162267839686
1.3421309872922775
1.3304007820136852
1.316715542521994
1.3010752688172045
1.2854349951124144
1.2697947214076246
1.2551319648093842
1.2404692082111437
1.2258064516129032
1.209188660801564
1.1896383186705768
1.1681329423264908
1.1534701857282503
1.1466275659824048
1.152492668621701
1.1867057673509287
1.2619745845552297
1.3861192570869991
1.5571847507331378
1.7653958944281525
1.9931573802541545
2.220918866080156
2.43108504398827
2.608993157380254
2.748778103616813
2.841642228739003
2.897360703812317
2.936461388074292
2.956989247311828
2.960899315738025
2.952101661779081
2.9315738025415445
2.9012707722385143
2.859237536656892
2.807429130009776
2.744868035190616
2.6715542521994133
2.598240469208211
2.5210166177908118
2.4301075268817205
2.3313782991202348
2.228739002932551
2.1270772238514173
2.032258064516129
1.946236559139785
1.8699902248289344
1.8054740957966764
1.7526881720430108
1.7096774193548387
1.6774193548387095
1.6529814271749756
1.6304985337243405
1.6080156402737047
1.585532746823069
1.5620723362658846
1.5386119257087
1.5151515151515151
1.490713587487781
1.466275659824047
1.4418377321603129
1.418377321603128
1.3949169110459434
1.3773216031280548
1.3616813294232648
1.3421309872922775
1.3225806451612905
1.303030303030303
1.284457478005865
1.2658846529814272
1.2482893450635386
1.23069403714565
1.2130987292277615
1.1964809384164223
1.1798631476050832
1.1681329423264908
1.155425219941349
1.1358748778103618
1.110459433040078
1.083088954056696
1.0586510263929618
1.0478983382209188
1.064516129032258
1.1221896383186705
1.2287390029325511
1.3861192570869991
1.585532746823069
1.8103616813294232
2.0127077223851417
2.1915933528836757
2.3714565004887587
2.5268817204301075
2.650048875855328
2.7370478983382207
2.792766373411535
2.823069403714565
2.834799608993157
2.831867057673509
2.81622678396872
2.790811339198436
2.7595307917888565
2.720430107526881
2.6715542521994133
2.611925708699902
2.541544477028348
2.4613880742913
2.3734115347018574
2.278592375366569
2.179863147605083
2.0821114369501466
1.9872922776148585
1.8993157380254155
1.8211143695014664
1.7605083088954057
1.7135874877810362
1.6715542521994136
1.635386119257087
1.6050830889540566
1.5806451612903225
1.5591397849462365
1.5386119257087
1.5190615835777126
1.500488758553275
1.482893450635386
1.4643206256109482
1.4486803519061584
1.4349951124144673
1.4173998044965788
1.396871945259042
1.3763440860215057
1.3548387096774193
1.3343108504398826
1.3128054740957966
1.2903225806451613
1.267839687194526
1.2473118279569892
1.227761485826002
1.2101661779081134
1.1964809384164223
1.1857282502443791
1.1730205278592376
1.1583577712609971
1.1407624633431086
1.1202346041055715
1.0957966764418376
1.0713587487781036
1.0547409579667644
1.056695992179863
1.0899315738025417
1.1681329423264908
1.2697947214076246
1.4027370478983383
1.5865102639296187
1.801564027370479
2.026392961876833
2.2385141739980448
2.421309872922776
2.565982404692082
2.6725317693059627
2.742913000977517
2.7839687194525906
2.801564027370479
2.803519061583578
2.791788856304985
2.771260997067449
2.7419354838709675
2.704789833822092
2.659824046920821
2.606060606060606
2.5425219941348973
2.4701857282502444
2.389051808406647
2.3010752688172045
2.2082111436950145
2.112414467253177
2.027370478983382
1.951124144672532
1.8748778103616808
1.8025415444770283
1.7390029325513197
1.6881720430107527
1.6480938416422288
1.6177908113391983
1.5933528836754642
1.5728250244379276
1.555229716520039
1.5376344086021505
1.520039100684262
1.5053763440860215
1.4926686217008798
1.4760508308895406
1.456500488758553
1.4349951124144673
1.4115347018572826
1.3890518084066472
1.3685239491691104
1.3479960899315735
1.3284457478005864
1.310850439882698
1.2932551319648091
1.2805474095796676
1.2688172043010753
1.2531769305962854
1.2355816226783969
1.217008797653959
1.198435972629521
1.1798631476050832
1.1612903225806452
1.141739980449658
1.1202346041055715
1.0977517106549364
1.0762463343108504
1.0625610948191593
1.064516129032258
1.0909090909090908
1.1544477028347997
1.2658846529814272
1.4281524926686218
1.6334310850439884
1.866080156402737
2.104594330400782
2.3274682306940373
2.5190615835777126
2.6715542521994133
2.782991202346041
2.8514173998044967
2.887585532746823
2.90811339198436
2.913978494623656
2.9071358748778104
2.889540566959922
2.860215053763441
2.822091886608016
2.7751710654936463
2.718475073313783
2.652003910068426
2.575757575757576
2.489736070381232
2.407624633431085
2.324535679374389
2.23069403714565
2.1309872922776147
2.0303030303030303
1.9335288367546437
1.8455522971652003
1.76930596285435
1.7057673509286413
1.653958944281525
1.611925708699902
1.5796676441837731
1.5562072336265884
1.5376344086021505
1.517106549364614
1.4965786901270772
1.474095796676442
1.4496578690127078
1.423264907135875
1.3958944281524928
1.367546432062561
1.33822091886608
1.3069403714565004
1.2746823069403714
1.2434017595307918
1.2189638318670577
1.1994134897360704
1.176930596285435
1.1544477028347997
1.1329423264907137
1.1124144672531768
1.0948191593352885
1.0791788856304985
1.064516129032258
1.0518084066471165
1.0410557184750733
1.0303030303030305
1.0234604105571847
1.0175953079178883
1.0058651026392962
0.989247311827957
0.9726295210166178
0.9667644183773216
0.9824046920821116
1.0342130987292275
1.130987292277615
1.2776148582600195
1.4672531769305963
1.6871945259042034
1.8875855327468232
2.069403714565005
2.2561094819159337
2.421309872922776
2.552297165200391
2.6471163245356792
2.7096774193548385
2.744868035190616
2.7595307917888565
2.758553274682307
2.744868035190616
2.721407624633431
2.689149560117302
2.652003910068426
2.608993157380254
2.555229716520039
2.4916911045943304
2.418377321603128
2.3362658846529816
2.24633431085044
2.1515151515151514
2.0547409579667644
1.959921798631476
1.870967741935484
1.7898338220918866
1.726295210166178
1.675464320625611
1.6275659824046922
1.585532746823069
1.5513196480938416
1.52297165200391
1.499511241446725
1.478983382209189
1.4594330400782014
1.4408602150537635
1.4203323558162269
1.396871945259042
1.3685239491691104
1.3440860215053765
1.3196480938416422
1.289345063538612
1.2551319648093842
1.2189638318670577
1.181818181818182
1.1456500488758554
1.1124144672531768
1.0811339198435972
1.053763440860215
1.0283479960899315
1.0048875855327468
0.989247311827957
0.9775171065493646
0.9618768328445748
0.946236559139785
0.9315738025415444
0.9178885630498532
0.9032258064516128
0.8866080156402737
0.8660801564027371
0.841642228739003
0.8181818181818182
0.8015640273704789
0.804496578690127
0.8299120234604106
0.8875855327468231
0.9931573802541545
1.1485826001955035
1.3440860215053765
1.5650048875855327
1.790811339198436
2.0019550342130987
2.1837732160312804
2.3284457478005867
2.4349951124144678
2.506353861192571
2.5454545454545454
2.5620723362658846
2.5669599217986314
2.5610948191593352
2.544477028347996
2.517106549364614
2.4789833822091887
2.43108504398827
2.372434017595308
2.303030303030303
2.2238514173998043
2.1378299120234603
2.04594330400782
1.9618768328445748
1.8836754643206255
1.7976539589442817
1.710654936461388
1.6285434995112416
1.5542521994134897
1.490713587487781
1.4379276637341154
1.396871945259042
1.3655913978494625
1.3421309872922775
1.324535679374389
1.313782991202346
1.3049853372434017
1.2942326490713587
1.2834799608993157
1.2727272727272727
1.260019550342131
1.2443792766373412
1.2267839687194526
1.2072336265884651
1.1867057673509287
1.166177908113392
1.144672531769306
1.1221896383186705
1.104594330400782
1.0909090909090908
1.0733137829912025
1.053763440860215
1.0342130987292275
1.0166177908113392
1.0
0.9843597262952102
0.9696969696969696
0.9560117302052786
2.589442815249267
2.5718475073313782
2.5405669599217986
2.498533724340176
2.442815249266862
2.377321603128055
2.303030303030303
2.2218963831867056
2.136852394916911
2.048875855327468
1.963831867057673
1.8826979472140764
1.8093841642228736
1.7458455522971652
1.6930596285434996
1.653958944281525
1.6256109481915937
1.6011730205278591
1.581622678396872
1.565982404692082
1.5542521994134897
1.5454545454545454
1.5376344086021505
1.5298142717497556
1.521016617790811
1.5112414467253177
1.499511241446725
1.4887585532746823
1.478005865102639
1.4633431085043989
1.447702834799609
1.4301075268817205
1.4105571847507332
1.391006842619746
1.3714565004887584
1.3528836754643203
1.3343108504398826
1.3157380254154447
1.2981427174975562
1.2805474095796676
1.2668621700879763
1.2561094819159335
1.2424242424242424
1.2287390029325511
1.2140762463343109
1.2003910068426198
1.1857282502443791
1.1691104594330402
1.152492668621701
1.1368523949169111
1.1290322580645162
1.1407624633431086
1.1700879765395895
1.2267839687194526
1.327468230694037
1.4711632453567938
1.6490713587487782
1.8465298142717497
2.04594330400782
2.23069403714565
2.388074291300098
2.5112414467253177
2.5992179863147604
2.656891495601173
2.6901270772238512
2.701857282502444
2.699902248289345
2.6881720430107525
2.6666666666666665
2.636363636363636
2.598240469208211
2.552297165200391
2.4975562072336266
2.4349951124144678
2.364613880742913
2.286412512218964
2.203323558162268
2.1280547409579667
2.056695992179863
1.978494623655914
1.8993157380254155
1.826001955034213
1.7605083088954057
1.7038123167155426
1.656891495601173
1.619745845552297
1.5913978494623655
1.56891495601173
1.552297165200391
1.541544477028348
1.533724340175953
1.5239491691104594
1.512218963831867
1.500488758553275
1.487781036168133
1.474095796676442
1.458455522971652
1.4418377321603129
1.4242424242424243
1.404692082111437
1.3851417399804498
1.3655913978494625
1.3519061583577712
1.3391984359726294
1.3225806451612905
1.3049853372434017
1.2873900293255132
1.2688172043010753
1.249266862170088
1.23069403714565
1.2121212121212122
1.1915933528836755
1.1710654936461389
1.1495601173020529
1.1329423264907137
1.1173020527859236
1.0957966764418376
1.0694037145650048
1.0391006842619743
1.0097751710654936
0.9902248289345064
0.9921798631476052
1.0273704789833822
1.1055718475073313
1.227761485826002
1.388074291300098
1.5747800586510263
1.7468230694037146
1.902248289345064
2.059628543499511
2.196480938416422
2.304007820136853
2.3822091886608017
2.434017595307918
2.4652981427174976
2.4809384164222874
2.4858260019550342
2.4819159335288368
2.4682306940371457
2.447702834799609
2.421309872922776
2.388074291300098
2.347018572825025
2.2981427174975564
2.241446725317693
2.177908113391984
2.10850439882698
2.035190615835777
1.959921798631476
1.8866080156402736
1.818181818181818
1.7556207233626588
1.7057673509286413
1.6666666666666667
1.6304985337243405
1.6001955034213098
1.576735092864125
1.5591397849462365
1.5483870967741935
1.542521994134897
1.5395894428152492
1.5366568914956011
1.5317693059628543
1.5249266862170088
1.5180840664711632
1.509286412512219
1.4946236559139785
1.47702834799609
1.457478005865103
1.435972629521017
1.412512218963832
1.388074291300098
1.3626588465298142
1.3372434017595307
1.3118279569892473
1.2864125122189638
1.2619745845552297
1.2434017595307918
1.227761485826002
1.209188660801564
1.1886608015640274
1.1691104594330402
1.1515151515151516
1.1348973607038124
1.1192570869990224
1.1036168132942326
1.088954056695992
1.0742913000977516
1.0606060606060606
1.053763440860215
1.0576735092864125
1.0762463343108504
1.121212121212121
1.2003910068426198
1.3176930596285434
1.4711632453567938
1.6480938416422288
1.8318670576735088
2.006842619745845
2.160312805474096
2.2825024437927666
2.3704789833822093
2.4242424242424243
2.452590420332356
2.4652981427174976
2.464320625610948
2.452590420332356
2.432062561094819
2.403714565004888
2.36950146627566
2.3304007820136854
2.2854349951124147
2.2355816226783967
2.1818181818181817
2.131964809384164
2.083088954056696
2.029325513196481
1.975562072336266
1.924731182795699
1.8826979472140764
1.8504398826979471
1.827956989247312
1.81524926686217
1.8103616813294232
1.812316715542522
1.818181818181818
1.8269794721407624
1.8347996089931573
1.8406647116324533
1.844574780058651
1.8465298142717497
1.8465298142717497
1.8455522971652003
1.844574780058651
1.842619745845552
1.8406647116324533
1.839687194525904
1.8406647116324533
1.8416422287390029
1.8435972629521016
1.8455522971652003
1.847507331378299
1.8484848484848484
1.8494623655913975
1.8494623655913975
1.8484848484848484
1.8465298142717497
1.842619745845552
1.8377321603128052
3.21505376344086
3.210166177908113
3.189638318670577
3.1593352883675463
3.1192570869990224
3.069403714565005
3.010752688172043
2.946236559139785
2.873900293255132
2.795698924731183
2.710654936461388
2.619745845552297
2.5239491691104594
2.4252199413489737
2.326490713587488
2.2404692082111435
2.164222873900293
2.085043988269794
2.010752688172043
1.945259042033236
1.8885630498533723
1.8406647116324533
1.801564027370479
1.7673509286412512
1.737047898338221
1.7096774193548387
1.683284457478006
1.656891495601173
1.6344086021505375
1.6138807429130009
1.5884652981427174
1.5610948191593352
1.533724340175953
1.5083088954056696
1.482893450635386
1.458455522971652
1.435972629521017
1.41544477028348
1.396871945259042
1.380254154447703
1.3695014662756595
1.3616813294232648
1.3509286412512218
1.3391984359726294
1.324535679374389
1.305962854349951
1.284457478005865
1.260019550342131
1.2336265884652982
1.2082111436950147
1.18475073313783
1.1652003910068427
1.1534701857282503
1.1466275659824048
1.1368523949169111
1.1231671554252198
1.1094819159335287
1.099706744868035
1.1026392961876832
1.1300097751710656
1.1925708699902249
1.2981427174975562
1.4486803519061584
1.635386119257087
1.8455522971652003
2.034213098729228
2.203323558162268
2.3734115347018574
2.5219941348973607
2.6392961876832843
2.721407624633431
2.771260997067449
2.795698924731183
2.7996089931573804
2.788856304985337
2.7653958944281527
2.730205278592375
2.6911045943304006
2.6471163245356792
2.592375366568915
2.5288367546432062
2.4574780058651027
2.3792766373411536
2.297165200391007
2.212121212121212
2.129032258064516
2.050830889540567
1.9794721407624636
1.9178885630498532
1.866080156402737
1.828934506353861
1.801564027370479
1.7761485826001957
1.75366568914956
1.7350928641251222
1.7204301075268815
1.7067448680351909
1.694037145650049
1.6823069403714566
1.6695992179863148
1.656891495601173
1.643206256109482
1.6314760508308896
1.619745845552297
1.6050830889540566
1.5894428152492668
1.5728250244379276
1.5571847507331378
1.541544477028348
1.525904203323558
1.5112414467253177
1.4975562072336266
1.4838709677419355
1.469208211143695
1.4535679374389052
1.4418377321603129
1.4320625610948192
1.4193548387096775
1.404692082111437
1.3900293255131966
1.3763440860215057
1.3636363636363635
1.3509286412512218
1.3362658846529814
1.3186705767350928
1.2991202346041055
1.281524926686217
1.2746823069403714
1.2864125122189638
1.324535679374389
1.4027370478983383
1.5288367546432062
1.7018572825024438
1.9090909090909087
2.132942326490713
2.3548387096774195
2.5542521994134897
2.718475073313783
2.8426197458455524
2.9266862170087977
2.9716520039100685
2.989247311827957
2.9902248289345064
2.9775171065493646
2.9530791788856305
2.918866080156403
2.877810361681329
2.8289345063538613
2.771260997067449
2.7067448680351904
2.634408602150537
2.555229716520039
2.4819159335288368
2.409579667644184
2.326490713587488
2.2404692082111435
2.156402737047898
2.0772238514174
2.005865102639296
1.945259042033236
1.8963831867057677
1.858260019550342
1.8299120234604105
1.8103616813294232
1.7996089931573802
1.793743890518084
1.7917888563049853
1.790811339198436
1.7898338220918866
1.7898338220918866
1.7888563049853372
1.7849462365591398
1.7771260997067448
1.7653958944281525
1.750733137829912
1.7331378299120237
1.7145650048875856
1.6979472140762464
1.6823069403714566
1.66177908113392
1.640273704789834
1.6177908113391983
1.595307917888563
1.5747800586510263
1.5562072336265884
1.5395894428152492
1.52297165200391
1.5083088954056696
1.4936461388074291
1.479960899315738
1.4701857282502444
1.4613880742913
1.447702834799609
1.4291300097751711
1.4076246334310851
1.3870967741935485
1.3763440860215057
1.388074291300098
1.4349951124144673
1.5278592375366569
1.6695992179863148
1.8543499511241448
2.037145650048876
2.217986314760508
2.419354838709677
2.613880742913001
2.7810361681329425
2.9120234604105573
3.004887585532747
3.0635386119257086
3.09188660801564
3.0957966764418376
3.081133919843597
3.0518084066471163
3.0087976539589443
2.960899315738025
2.906158357771261
2.8396871945259043
2.764418377321604
2.684261974584555
2.598240469208211
2.50733137829912
2.4134897360703813
2.320625610948192
2.2297165200391005
2.1436950146627565
2.065493646138808
2.004887585532747
1.9560117302052784
1.9100684261974583
1.871945259042033
1.8406647116324533
1.818181818181818
1.801564027370479
1.7888563049853372
1.780058651026393
