ppg
1.964809384164223
1.93841642228739
1.9120234604105573
1.889540566959922
1.868035190615836
1.844574780058651
1.8201368523949168
1.7947214076246334
1.7683284457478006
1.7409579667644184
1.7126099706744868
1.6842619745845553
1.656891495601173
1.6304985337243405
1.6080156402737047
1.590420332355816
1.5777126099706744
1.565982404692082
1.555229716520039
1.543499511241447
1.5298142717497556
1.512218963831867
1.4887585532746823
1.4604105571847508
1.4281524926686218
1.392961876832845
1.356793743890518
1.3235581622678396
1.2981427174975562
1.2795698924731185
1.2609970674486803
1.24633431085044
1.2355816226783969
1.2297165200391007
1.2267839687194526
1.2267839687194526
1.2287390029325511
1.2326490713587488
1.2365591397849462
1.2404692082111437
1.2443792766373412
1.249266862170088
1.2512218963831867
1.2502443792766371
1.2473118279569892
1.2424242424242424
1.2355816226783969
1.2267839687194526
1.2160312805474096
1.2052785923753666
1.1925708699902249
1.1798631476050832
1.1671554252199414
1.1573802541544478
1.1495601173020529
1.1397849462365592
1.1300097751710656
1.1231671554252198
1.121212121212121
1.1290322580645162
1.1485826001955035
1.1827956989247312
1.2365591397849462
1.3098729227761483
1.4027370478983383
1.4946236559139785
1.5894428152492668
1.7008797653958945
1.818181818181818
1.9335288367546437
2.0391006842619745
2.131964809384164
2.210166177908113
2.2737047898338223
2.32355816226784
2.3626588465298144
2.3919843597262958
2.4134897360703813
2.4252199413489737
2.43108504398827
2.4359726295210167
2.4389051808406648
2.4379276637341154
2.4330400782013686
2.421309872922776
2.40078201368524
2.3704789833822093
2.3304007820136854
2.2795698924731185
2.219941348973607
2.161290322580645
2.101661779081134
2.034213098729228
1.963831867057673
1.8944281524926687
1.8299120234604105
1.7712609970674489
1.7194525904203324
1.675464320625611
1.6383186705767352
1.6080156402737047
1.5835777126099706
1.564027370478983
1.5503421309872922
1.5395894428152492
1.5288367546432062
1.517106549364614
1.5053763440860215
1.490713587487781
1.474095796676442
1.455522971652004
1.4349951124144673
1.412512218963832
1.388074291300098
1.3626588465298142
1.3421309872922775
1.3225806451612905
1.2971652003910068
1.267839687194526
1.2375366568914956
1.2052785923753666
1.1720430107526882
1.1378299120234605
1.1016617790811338
1.064516129032258
1.0263929618768328
0.9863147605083088
0.946236559139785
0.9159335288367546
0.8905180840664711
0.863147605083089
0.8387096774193549
0.8191593352883676
0.8054740957966764
0.7976539589442815
0.793743890518084
0.7917888563049853
0.7917888563049853
0.7917888563049853
0.7917888563049853
0.7947214076246334
0.7976539589442815
0.7956989247311828
0.7898338220918866
0.7800586510263929
0.7673509286412512
0.7517106549364614
0.7350928641251222
0.7165200391006843
0.6979472140762464
0.6803519061583577
0.6647116324535679
0.656891495601173
0.6549364613880743
0.6520039100684262
0.6510263929618768
0.6520039100684262
0.6559139784946236
0.6617790811339198
0.6686217008797654
0.6764418377321603
0.6852394916911045
0.6959921798631477
0.7126099706744868
0.7370478983382209
0.7712609970674487
0.8172043010752689
0.8836754643206256
0.9736070381231672
1.0869990224828934
1.2209188660801564
1.370478983382209
1.5288367546432062
1.6901270772238517
1.8484848484848484
1.9980449657869013
2.136852394916911
2.247311827956989
2.3382209188660803
2.43108504398827
2.5190615835777126
2.6021505376344085
2.6803519061583576
2.752688172043011
2.820136852394917
2.881720430107527
2.9374389051808407
2.9853372434017595
3.024437927663734
3.053763440860215
3.0664711632453567
3.0664711632453567
3.059628543499511
3.0410557184750733
3.010752688172043
2.967741935483871
2.9149560117302054
2.855327468230694
2.790811339198436
2.724340175953079
2.658846529814272
2.5972629521016617
2.5434995112414467
2.495601173020528
2.450635386119257
2.4086021505376345
2.3704789833822093
2.334310850439883
2.2981427174975564
2.2629521016617797
2.2277614858260018
2.1925708699902247
2.155425219941349
2.117302052785924
2.078201368523949
2.043010752688172
2.0097751710654936
1.9736070381231672
1.935483870967742
1.8973607038123168
1.8602150537634408
1.8240469208211143
1.7888563049853372
1.7546432062561097
1.7233626588465298
1.6930596285434996
1.6637341153470186
1.6392961876832846
1.6177908113391983
1.595307917888563
1.5728250244379276
1.5503421309872922
1.5298142717497556
1.509286412512219
1.4897360703812317
1.4701857282502444
1.4516129032258065
1.434017595307918
1.4173998044965788
1.4027370478983383
1.3919843597262953
1.3822091886608017
1.370478983382209
1.41544477028348
1.4887585532746823
1.520039100684262
1.5298142717497556
1.5298142717497556
1.5249266862170088
1.517106549364614
1.509286412512219
1.501466275659824
1.4965786901270772
1.4926686217008798
1.487781036168133
1.4819159335288368
1.4760508308895406
1.4711632453567938
1.466275659824047
1.4613880742913
1.456500488758553
1.4516129032258065
1.447702834799609
1.4437927663734116
1.4408602150537635
1.439882697947214
1.439882697947214
1.4379276637341154
1.435972629521017
1.435972629521017
1.4408602150537635
1.4545454545454546
1.479960899315738
1.521016617790811
1.5796676441837731
1.656891495601173
1.7497556207233629
1.8406647116324533
1.9315738025415443
2.038123167155425
2.1495601173020527
2.2580645161290325
2.358748778103617
2.447702834799609
2.5249266862170088
2.591397849462365
2.6480938416422286
2.6959921798631474
2.736070381231672
2.771260997067449
2.795698924731183
2.812316715542522
2.83088954056696
2.8475073313782997
2.8611925708699903
2.8690127077223853
2.8699902248289346
2.863147605083089
2.8475073313782997
2.823069403714565
2.788856304985337
2.744868035190616
2.697947214076246
2.6480938416422286
2.590420332355816
2.529814271749756
2.469208211143695
2.409579667644184
2.35386119257087
2.302052785923754
2.2551319648093844
2.212121212121212
2.172043010752688
2.134897360703812
2.0987292277614857
2.067448680351906
2.038123167155425
2.006842619745845
1.975562072336266
1.943304007820137
1.9120234604105573
1.8807429130009776
1.8504398826979471
1.8201368523949168
1.7917888563049853
1.7644183773216031
1.737047898338221
1.7145650048875856
1.6950146627565983
1.6744868035190617
1.6529814271749756
1.632453567937439
1.6129032258064515
1.595307917888563
1.5786901270772238
1.564027370478983
1.5513196480938416
1.5405669599217986
1.530791788856305
1.521994134897361
1.517106549364614
1.5131964809384164
1.5073313782991202
1.500488758553275
1.4926686217008798
1.4848484848484849
1.4760508308895406
1.4672531769305963
1.457478005865103
1.4467253176930597
1.436950146627566
1.4271749755620724
1.4203323558162269
1.4164222873900294
1.409579667644184
1.401759530791789
1.393939393939394
1.3861192570869991
1.3782991202346042
1.370478983382209
1.3636363636363635
1.3577712609970674
1.3528836754643203
1.348973607038123
1.348973607038123
1.3519061583577712
1.35386119257087
1.356793743890518
1.359726295210166
1.3626588465298142
1.3665689149560116
1.3695014662756595
1.3734115347018572
1.3763440860215057
1.3792766373411536
1.383186705767351
1.3890518084066472
1.3978494623655917
1.4105571847507332
1.43108504398827
1.4633431085043989
1.5112414467253177
1.5757575757575757
1.6578690127077225
1.7546432062561097
1.8641251221896384
1.9794721407624636
2.0957966764418376
2.207233626588465
2.2981427174975564
2.3734115347018574
2.4486803519061584
2.5180840664711632
2.579667644183773
2.631476050830889
2.67644183773216
2.713587487781036
2.744868035190616
2.7702834799608995
2.790811339198436
2.8054740957966766
2.8152492668621703
2.8152492668621703
2.807429130009776
2.793743890518084
2.773216031280548
2.7438905180840663
2.704789833822092
2.658846529814272
2.606060606060606
2.548387096774193
2.4887585532746823
2.429130009775171
2.3714565004887587
2.3225806451612905
2.2795698924731185
2.239491691104594
2.2023460410557183
2.1700879765395893
2.1407624633431084
2.114369501466276
2.088954056695992
2.064516129032258
2.0391006842619745
2.013685239491691
1.986314760508309
1.9579667644183771
1.9315738025415443
1.9071358748778104
1.8797653958944285
1.8514173998044965
1.822091886608016
1.793743890518084
1.7663734115347018
1.739980449657869
1.7145650048875856
1.6901270772238517
1.6666666666666667
1.6441837732160314
1.6265884652981428
1.611925708699902
1.5962854349951123
1.5806451612903225
1.5650048875855327
1.5513196480938416
1.5386119257087
1.5268817204301075
1.5151515151515151
1.5034213098729228
1.4916911045943304
1.4809384164222874
1.4711632453567938
1.4643206256109482
1.458455522971652
1.4496578690127078
1.439882697947214
1.4291300097751711
1.418377321603128
1.4086021505376345
1.3998044965786902
1.3919843597262953
1.3861192570869991
1.3812316715542523
1.3773216031280548
1.3763440860215057
1.3773216031280548
1.375366568914956
1.3734115347018572
1.370478983382209
1.367546432062561
1.364613880742913
1.3626588465298142
1.3607038123167154
1.3587487781036167
1.3577712609970674
1.356793743890518
1.3558162267839686
1.3558162267839686
1.3577712609970674
1.3577712609970674
1.356793743890518
1.3558162267839686
1.3558162267839686
1.3607038123167154
1.3724340175953078
1.3949169110459434
1.4320625610948192
1.4868035190615836
1.5610948191593352
1.6383186705767352
1.7223851417399805
1.8269794721407624
1.9423264907135875
2.060606060606061
2.175953079178885
2.283479960899316
2.3812316715542523
2.4672531769305963
2.541544477028348
2.621700879765396
2.7038123167155423
2.7702834799608995
2.81622678396872
2.850439882697948
2.8856304985337244
2.918866080156403
2.948191593352884
2.972629521016618
2.9902248289345064
3.0
2.99902248289345
2.9853372434017595
2.959921798631476
2.921798631476051
2.874877810361681
2.820136852394917
2.7546432062561097
2.679374389051808
2.598240469208211
2.5141739980449658
2.43108504398827
2.3519061583577714
2.278592375366569
2.2140762463343107
2.156402737047898
2.1055718475073317
2.060606060606061
2.022482893450636
1.989247311827957
1.9550342130987293
1.919843597262952
1.8836754643206255
1.8465298142717497
1.8084066471163245
1.76930596285435
1.729227761485826
1.689149560117302
1.6490713587487782
1.6109481915933528
1.5777126099706744
1.5483870967741935
1.5161290322580645
1.4838709677419355
1.4516129032258065
1.4203323558162269
1.391006842619746
1.3626588465298142
1.335288367546432
1.3098729227761483
1.2864125122189638
1.2658846529814272
1.2473118279569892
1.2336265884652982
1.2218963831867058
1.2072336265884651
1.1915933528836755
1.1759530791788857
1.160312805474096
1.144672531769306
1.1300097751710656
1.115347018572825
1.1026392961876832
1.0909090909090908
1.0791788856304985
1.0713587487781036
1.064516129032258
1.0557184750733135
1.0449657869012707
1.0342130987292275
1.024437927663734
1.0146627565982405
1.0048875855327468
0.9941348973607038
0.9843597262952102
0.9745845552297164
0.9657869012707724
0.9579667644183774
0.9550342130987292
0.9530791788856304
0.9501466275659824
0.9452590420332356
0.9403714565004888
0.9364613880742912
0.9335288367546432
0.9315738025415444
0.9305962854349952
0.9296187683284456
0.9296187683284456
0.9315738025415444
0.93841642228739
0.9608993157380256
0.9872922776148584
1.0156402737047898
1.0654936461388074
1.1397849462365592
1.238514173998045
1.3577712609970674
1.4946236559139785
1.6412512218963833
1.7917888563049853
1.93841642228739
2.060606060606061
2.163245356793744
2.267839687194526
2.363636363636364
2.4486803519061584
2.5219941348973607
2.5835777126099706
2.636363636363636
2.6823069403714563
2.720430107526881
2.752688172043011
2.779081133919844
2.798631476050831
2.806451612903226
2.8044965786901277
2.798631476050831
2.78494623655914
2.7595307917888565
2.7233626588465296
2.674486803519061
2.613880742913001
2.544477028347996
2.469208211143695
2.391006842619746
2.314760508308896
2.2482893450635384
2.189638318670577
2.131964809384164
2.0791788856304985
2.03128054740958
1.9872922776148585
1.948191593352884
1.9130009775171064
1.8797653958944285
1.8455522971652003
1.8113391984359728
1.775171065493646
1.7380254154447703
1.704789833822092
1.6735092864125125
1.6383186705767352
1.6011730205278591
1.563049853372434
1.525904203323558
1.490713587487781
1.456500488758553
1.423264907135875
1.3919843597262953
1.3626588465298142
1.3343108504398826
1.3128054740957966
1.2942326490713587
1.273704789833822
1.2531769305962854
1.2326490713587488
1.2130987292277615
1.1945259042033236
1.176930596285435
1.160312805474096
1.144672531769306
1.1290322580645162
1.115347018572825
1.1026392961876832
1.0948191593352885
1.088954056695992
1.0811339198435972
1.0733137829912025
1.064516129032258
1.056695992179863
1.0488758553274682
1.0420332355816226
1.035190615835777
1.0283479960899315
1.0224828934506354
1.0166177908113392
1.0146627565982405
1.0146627565982405
1.0117302052785924
1.007820136852395
1.002932551319648
0.9980449657869012
0.9941348973607038
0.9912023460410556
0.9902248289345064
0.989247311827957
0.9882697947214076
0.9872922776148584
0.9853372434017597
0.9863147605083088
0.9882697947214076
0.9882697947214076
0.9882697947214076
0.989247311827957
0.9941348973607038
1.007820136852395
1.0342130987292275
1.078201368523949
1.142717497556207
1.2316715542521994
1.343108504398827
1.4545454545454546
1.5698924731182795
1.70772238514174
1.8543499511241448
2.0009775171065494
2.1388074291300097
2.264907135874878
2.376344086021505
2.472140762463343
2.5532746823069403
2.6207233626588464
2.677419354838709
2.7253176930596283
2.757575757575758
2.780058651026393
2.803519061583578
2.823069403714565
2.835777126099707
2.841642228739003
2.8396871945259043
2.8260019550342133
2.80058651026393
2.7614858260019552
2.7116324535679373
2.6510263929618767
2.589442815249267
2.525904203323558
2.4565004887585533
2.386119257086999
2.317693059628544
2.254154447702835
2.196480938416422
2.144672531769306
2.0987292277614857
2.056695992179863
2.018572825024438
1.9824046920821117
1.948191593352884
1.9178885630498532
1.8885630498533723
1.8563049853372435
1.8211143695014664
1.7839687194525904
1.7458455522971652
1.70772238514174
1.6686217008797657
1.6304985337243405
1.5923753665689149
1.555229716520039
1.5190615835777126
1.4887585532746823
1.4623655913978495
1.434017595307918
1.4056695992179864
1.3919843597262953
1.3870967741935485
1.3734115347018572
1.3558162267839686
1.3372434017595307
1.3176930596285434
1.2991202346041055
1.281524926686217
1.2649071358748778
1.2541544477028348
1.2453567937438903
1.2346041055718475
1.2228739002932552
1.2111436950146628
1.1994134897360704
1.187683284457478
1.1759530791788857
1.166177908113392
1.1564027370478984
1.147605083088954
1.13880742913001
1.133919843597263
1.1300097751710656
1.1241446725317692
1.1173020527859236
1.110459433040078
1.1036168132942326
1.096774193548387
1.0918866080156402
1.0869990224828934
1.083088954056696
1.0801564027370478
1.078201368523949
1.0762463343108504
1.0772238514173995
1.0801564027370478
1.0811339198435972
1.0811339198435972
1.0811339198435972
1.0811339198435972
1.0801564027370478
1.0791788856304985
1.0791788856304985
1.0811339198435972
1.0879765395894427
1.1016617790811338
1.1241446725317692
1.1583577712609971
1.2121212121212122
1.289345063538612
1.3900293255131966
1.5112414467253177
1.6500488758553276
1.7996089931573802
1.9530791788856303
2.103616813294233
2.244379276637341
2.372434017595308
2.484848484848485
2.56891495601173
2.634408602150537
2.6989247311827955
2.757575757575758
2.8103616813294234
2.857282502443793
2.8993157380254155
2.936461388074292
2.967741935483871
2.992179863147605
3.010752688172043
3.0205278592375366
3.0175953079178885
3.004887585532747
2.98435972629521
2.95405669599218
2.9120234604105573
2.857282502443793
2.792766373411535
2.720430107526881
2.6422287390029324
2.563049853372434
2.4858260019550342
2.412512218963832
2.3499511241446727
2.2961876832844577
2.243401759530792
2.1945259042033234
2.1495601173020527
2.10752688172043
2.0684261974584555
2.03128054740958
1.9853372434017595
1.9442815249266865
1.913978494623656
1.8797653958944285
1.836754643206256
1.7996089931573802
1.7712609970674489
1.737047898338221
1.7008797653958945
1.6627565982404693
1.6256109481915937
1.5884652981427174
1.552297165200391
1.517106549364614
1.4838709677419355
1.452590420332356
1.423264907135875
1.3998044965786902
1.380254154447703
1.3587487781036167
1.3362658846529814
1.3147605083088951
1.2942326490713587
1.2746823069403714
1.2561094819159335
1.2394916911045943
1.2228739002932552
1.2072336265884651
1.1935483870967742
1.1798631476050832
1.1710654936461389
1.164222873900293
1.155425219941349
1.144672531769306
1.133919843597263
1.1241446725317692
1.1143695014662756
1.104594330400782
1.0948191593352885
1.0850439882697946
1.0762463343108504
1.067448680351906
1.06158357771261
1.0576735092864125
1.0518084066471165
1.04594330400782
1.040078201368524
1.035190615835777
1.0312805474095796
1.0283479960899315
1.0263929618768328
1.0234604105571847
1.021505376344086
1.0195503421309873
1.0175953079178883
1.018572825024438
1.0205278592375366
1.0195503421309873
1.0175953079178883
1.0146627565982405
1.0146627565982405
1.018572825024438
1.0312805474095796
1.0576735092864125
1.1026392961876832
1.1691104594330402
1.2590420332355816
1.3548387096774193
1.4594330400782014
1.5884652981427174
1.732160312805474
1.8807429130009776
2.026392961876833
2.163245356793744
2.286412512218964
2.3949169110459434
2.487781036168133
2.567937438905181
2.635386119257087
2.6930596285435
2.7341153470185726
2.764418377321604
2.7966764418377323
2.8269794721407626
2.852394916911046
2.8719452590420333
2.8836754643206257
2.887585532746823
2.881720430107527
2.8641251221896384
2.834799608993157
2.793743890518084
2.745845552297165
2.6911045943304006
2.624633431085044
2.552297165200391
2.47702834799609
2.4027370478983383
2.332355816226784
2.267839687194526
2.210166177908113
2.158357771260997
2.113391984359726
2.074291300097752
2.038123167155425
2.007820136852395
1.9794721407624636
1.949169110459433
1.916911045943304
1.8826979472140764
1.8455522971652003
1.8064516129032255
1.7644183773216031
1.7204301075268815
1.675464320625611
1.6304985337243405
1.587487781036168
1.5513196480938416
1.520039100684262
1.4858260019550342
1.452590420332356
1.4213098729227762
1.3919843597262953
1.364613880742913
1.3391984359726294
1.3147605083088951
1.2913000977517106
1.2697947214076246
1.2482893450635386
1.2297165200391007
1.2209188660801564
1.2150537634408602
1.206256109481916
1.1994134897360704
1.1945259042033236
1.1906158357771262
1.1886608015640274
1.187683284457478
1.187683284457478
1.187683284457478
1.187683284457478
1.1867057673509287
1.187683284457478
1.1896383186705768
1.1886608015640274
1.1857282502443791
1.1808406647116323
1.1749755620723363
1.1700879765395895
1.164222873900293
1.1573802541544478
1.1505376344086022
1.1436950146627567
1.1368523949169111
1.130987292277615
1.1290322580645162
1.1280547409579669
1.1251221896383188
1.1202346041055715
1.1143695014662756
1.1085043988269794
1.1016617790811338
1.0948191593352885
1.0879765395894427
1.0762463343108504
1.0654936461388074
1.06158357771261
1.064516129032258
1.0772238514173995
1.1016617790811338
1.141739980449658
1.203323558162268
1.3206256109481915
1.4428152492668622
1.541544477028348
1.6666666666666667
1.8064516129032255
1.9501466275659824
2.089931573802541
2.220918866080156
2.324535679374389
2.4086021505376345
2.4916911045943304
2.5698924731182795
2.6402737047898337
2.702834799608993
2.7595307917888565
2.809384164222874
2.86217008797654
2.9120234604105573
2.9423264907135875
2.961876832844575
2.9716520039100685
2.972629521016618
2.970674486803519
2.961876832844575
2.9423264907135875
2.9100684261974585
2.865102639296188
2.8084066471163247
2.740957966764418
2.665689149560117
2.587487781036168
2.5083088954056696
2.421309872922776
2.3499511241446727
2.300097751710655
2.2482893450635384
2.198435972629521
2.1515151515151514
2.10850439882698
2.0664711632453567
2.026392961876833
1.986314760508309
1.946236559139785
1.906158357771261
1.866080156402737
1.83088954056696
1.7976539589442817
1.7526881720430108
1.7038123167155426
1.6705767350928642
1.6451612903225807
1.6148582600195502
1.581622678396872
1.5483870967741935
1.5161290322580645
1.4838709677419355
1.452590420332356
1.4271749755620724
1.4056695992179864
1.3763440860215057
1.3450635386119256
1.3196480938416422
1.3020527859237536
1.284457478005865
1.262952101661779
1.2453567937438903
1.2297165200391007
1.2160312805474096
1.203323558162268
1.1945259042033236
1.187683284457478
1.1788856304985338
1.1691104594330402
1.1583577712609971
1.147605083088954
1.1378299120234605
1.1300097751710656
1.121212121212121
1.110459433040078
1.1016617790811338
1.0928641251221896
1.088954056695992
1.086021505376344
1.0811339198435972
1.0762463343108504
1.0713587487781036
1.0664711632453567
1.0625610948191593
1.0596285434995112
1.056695992179863
1.053763440860215
1.0518084066471165
1.0498533724340176
1.0478983382209188
1.0498533724340176
1.0527859237536656
1.053763440860215
1.053763440860215
1.0557184750733135
1.06158357771261
1.0772238514173995
1.1065493646138806
1.1534701857282503
1.2228739002932552
1.316715542521994
1.434017595307918
1.5493646138807429
1.6666666666666667
1.8064516129032255
1.9550342130987293
2.1006842619745845
2.2385141739980448
2.3626588465298144
2.4731182795698925
2.567937438905181
2.649071358748778
2.718475073313783
2.777126099706745
2.827956989247312
2.863147605083089
2.8885630498533725
2.9159335288367547
2.9423264907135875
2.964809384164223
2.981427174975562
2.991202346041056
2.991202346041056
2.9804496578690127
2.9589442815249267
2.9266862170087977
2.8826979472140764
2.831867057673509
2.7751710654936463
2.708699902248289
2.635386119257087
2.558162267839687
2.4809384164222874
2.4056695992179864
2.335288367546432
2.269794721407625
2.2111436950146626
2.158357771260997
2.112414467253177
2.070381231671554
2.034213098729228
2.0019550342130987
1.9696969696969695
1.9364613880742916
1.902248289345064
1.866080156402737
1.8299120234604105
1.793743890518084
1.7565982404692082
1.7204301075268815
1.6852394916911049
1.6500488758553276
1.619745845552297
1.5923753665689149
1.563049853372434
1.5327468230694037
1.5034213098729228
1.4750733137829912
1.447702834799609
1.4222873900293256
1.3988269794721409
1.3773216031280548
1.3577712609970674
1.3411534701857282
1.3255131964809383
1.3147605083088951
1.305962854349951
1.2942326490713587
1.2825024437927663
1.2697947214076246
1.2570869990224829
1.2443792766373412
1.2316715542521994
1.219941348973607
1.2082111436950147
1.198435972629521
1.1886608015640274
1.1827956989247312
1.1788856304985338
1.1720430107526882
1.1652003910068427
1.1593352883675463
1.1534701857282503
1.1485826001955035
1.1436950146627567
1.1397849462365592
1.1368523949169111
1.133919843597263
1.130987292277615
1.1270772238514175
1.1270772238514175
1.1270772238514175
1.1251221896383188
1.1221896383186705
1.118279569892473
1.1143695014662756
1.1114369501466277
1.1085043988269794
1.1055718475073313
1.1026392961876832
1.1016617790811338
1.1036168132942326
1.110459433040078
1.1251221896383188
1.1495601173020529
1.1906158357771262
1.252199413489736
1.3362658846529814
1.4418377321603129
1.5669599217986314
1.7057673509286413
1.8533724340175952
2.0009775171065494
2.142717497556207
2.2737047898338223
2.376344086021505
2.458455522971652
2.539589442815249
2.6129032258064515
2.677419354838709
2.7331378299120237
2.780058651026393
2.819159335288368
2.8514173998044967
2.877810361681329
2.897360703812317
2.911045943304008
2.913978494623656
