ppg
2.5669599217986314
2.484848484848485
2.398826979472141
2.3098729227761488
2.220918866080156
2.131964809384164
2.0439882697947214
1.956989247311828
1.870967741935484
1.7869012707722385
1.7038123167155426
1.632453567937439
1.5679374389051808
1.4965786901270772
1.4242424242424243
1.3548387096774193
1.2913000977517106
1.2365591397849462
1.1915933528836755
1.1593352883675463
1.1397849462365592
1.1329423264907137
1.1368523949169111
1.1495601173020529
1.1681329423264908
1.1935483870967742
1.2218963831867058
1.2512218963831867
1.278592375366569
1.3020527859237536
1.3206256109481915
1.3343108504398826
1.3411534701857282
1.343108504398827
1.3391984359726294
1.3313782991202343
1.3225806451612905
1.3128054740957966
1.2981427174975562
1.278592375366569
1.2570869990224829
1.2336265884652982
1.2082111436950147
1.1798631476050832
1.147605083088954
1.1124144672531768
1.078201368523949
1.0527859237536656
1.04594330400782
1.0664711632453567
1.1280547409579669
1.2404692082111437
1.4066471163245358
1.6177908113391983
1.857282502443793
2.103616813294233
2.335288367546432
2.535679374389052
2.695014662756598
2.8084066471163247
2.878787878787879
2.909090909090909
2.909090909090909
2.887585532746823
2.8475073313782997
2.790811339198436
2.721407624633431
2.644183773216031
2.5620723362658846
2.4780058651026398
2.3929618768328447
2.3088954056695994
2.2248289345063537
2.150537634408602
2.081133919843597
2.005865102639296
1.9266862170087975
1.8455522971652003
1.7634408602150538
1.6803519061583578
1.598240469208211
1.5190615835777126
1.444770283479961
1.3763440860215057
1.316715542521994
1.2688172043010753
1.2375366568914956
1.219941348973607
1.2101661779081134
1.2111436950146628
1.2228739002932552
1.2434017595307918
1.2697947214076246
1.2991202346041055
1.3284457478005864
1.3558162267839686
1.3792766373411536
1.396871945259042
1.409579667644184
1.4173998044965788
1.4193548387096775
1.41544477028348
1.4066471163245358
1.393939393939394
1.3763440860215057
1.3548387096774193
1.3313782991202343
1.3069403714565004
1.2805474095796676
1.2512218963831867
1.2179863147605083
1.1896383186705768
1.1622678396871946
1.1300097751710656
1.1055718475073313
1.1026392961876832
1.1358748778103618
1.2189638318670577
1.3587487781036167
1.5513196480938416
1.782991202346041
2.034213098729228
2.283479960899316
2.484848484848485
2.643206256109482
2.7839687194525906
2.8914956011730206
2.960899315738025
2.994134897360704
2.9960899315738025
2.972629521016618
2.927663734115347
2.8670576735092865
2.793743890518084
2.713587487781036
2.627565982404692
2.5464320625610948
2.4682306940371457
2.383186705767351
2.2952101661779083
2.207233626588465
2.120234604105572
2.034213098729228
1.9501466275659824
1.866080156402737
1.7839687194525904
1.7028347996089932
1.6236559139784943
1.5562072336265884
1.4975562072336266
1.436950146627566
1.380254154447703
1.332355816226784
1.295210166177908
1.2697947214076246
1.2580645161290325
1.2580645161290325
1.267839687194526
1.2854349951124144
1.3079178885630498
1.332355816226784
1.3558162267839686
1.3763440860215057
1.3949169110459434
1.409579667644184
1.4193548387096775
1.4242424242424243
1.423264907135875
1.418377321603128
1.4086021505376345
1.3949169110459434
1.3773216031280548
1.3577712609970674
1.3411534701857282
1.3264907135874875
1.3069403714565004
1.284457478005865
1.2590420332355816
1.2287390029325511
1.195503421309873
1.1652003910068427
1.1466275659824048
1.155425219941349
1.206256109481916
1.3098729227761483
1.4701857282502444
1.6451612903225807
1.836754643206256
2.070381231671554
2.312805474095797
2.5317693059628543
2.7116324535679373
2.852394916911046
2.9501466275659824
3.006842619745845
3.027370478983382
3.0175953079178885
2.983382209188661
2.936461388074292
2.878787878787879
2.807429130009776
2.727272727272727
2.641251221896383
2.550342130987292
2.4574780058651027
2.364613880742913
2.2737047898338223
2.1837732160312804
2.0948191593352883
2.006842619745845
1.9305962854349952
1.86119257086999
1.7859237536656891
1.70772238514174
1.629521016617791
1.552297165200391
1.478983382209189
1.4105571847507332
1.3509286412512218
1.3010752688172045
1.2639296187683284
1.2394916911045943
1.2267839687194526
1.2258064516129032
1.2336265884652982
1.2482893450635386
1.267839687194526
1.2903225806451613
1.3118279569892473
1.3313782991202343
1.3479960899315735
1.359726295210166
1.3665689149560116
1.367546432062561
1.3636363636363635
1.3577712609970674
1.348973607038123
1.3343108504398826
1.3157380254154447
1.2932551319648091
1.2688172043010753
1.2434017595307918
1.217008797653959
1.1896383186705768
1.1593352883675463
1.1251221896383188
1.0879765395894427
1.050830889540567
1.0254154447702837
1.0166177908113392
1.032258064516129
1.088954056695992
1.198435972629521
1.3616813294232648
1.5718475073313782
1.8103616813294232
2.056695992179863
2.2883675464320627
2.4887585532746823
2.6471163245356792
2.750733137829912
2.811339198435973
2.8455522971652005
2.8533724340175954
2.835777126099707
2.7976539589442817
2.7419354838709675
2.673509286412512
2.595307917888563
2.5112414467253177
2.423264907135875
2.333333333333333
2.242424242424242
2.1622678396871944
2.0879765395894427
2.007820136852395
1.9257086999022484
1.842619745845552
1.7605083088954057
1.678396871945259
1.5972629521016617
1.5180840664711632
1.4418377321603129
1.370478983382209
1.3049853372434017
1.2551319648093842
1.2179863147605083
1.18475073313783
1.1612903225806452
1.1495601173020529
1.1495601173020529
1.160312805474096
1.1808406647116323
1.2072336265884651
1.2365591397849462
1.2658846529814272
1.2932551319648091
1.3157380254154447
1.3333333333333333
1.3450635386119256
1.3509286412512218
1.3509286412512218
1.346041055718475
1.3372434017595307
1.3235581622678396
1.3069403714565004
1.2873900293255132
1.2658846529814272
1.2434017595307918
1.2189638318670577
1.198435972629521
1.1788856304985338
1.1515151515151516
1.1192570869990224
1.0850439882697946
1.056695992179863
1.0478983382209188
1.0713587487781036
1.1407624633431086
1.2649071358748778
1.4418377321603129
1.6608015640273706
1.902248289345064
2.1163245356793743
2.302052785923754
2.4858260019550342
2.643206256109482
2.7624633431085046
2.841642228739003
2.881720430107527
2.889540566959922
2.870967741935484
2.8299120234604107
2.7722385141739982
2.701857282502444
2.63049853372434
2.557184750733138
2.4750733137829912
2.388074291300098
2.2981427174975564
2.2082111436950145
2.118279569892473
2.029325513196481
1.9413489736070384
1.8543499511241448
1.7683284457478006
1.6842619745845553
1.6001955034213098
1.5288367546432062
1.4652981427174976
1.396871945259042
1.3304007820136852
1.270772238514174
1.219941348973607
1.1808406647116323
1.1544477028347997
1.141739980449658
1.141739980449658
1.1534701857282503
1.1730205278592376
1.1964809384164223
1.2228739002932552
1.2512218963831867
1.2776148582600195
1.3010752688172045
1.3196480938416422
1.3313782991202343
1.3372434017595307
1.3372434017595307
1.3313782991202343
1.3196480938416422
1.3040078201368523
1.284457478005865
1.267839687194526
1.252199413489736
1.23069403714565
1.206256109481916
1.1798631476050832
1.1495601173020529
1.115347018572825
1.0791788856304985
1.04594330400782
1.0254154447702837
1.032258064516129
1.0801564027370478
1.1583577712609971
1.273704789833822
1.4496578690127078
1.6705767350928642
1.9149560117302051
2.160312805474096
2.386119257086999
2.575757575757576
2.721407624633431
2.822091886608016
2.8807429130009776
2.902248289345064
2.89345063538612
2.865102639296188
2.822091886608016
2.764418377321604
2.6940371456500487
2.6158357771261
2.5317693059628543
2.443792766373412
2.3548387096774195
2.264907135874878
2.175953079178885
2.088954056695992
2.003910068426197
1.9296187683284456
1.86119257086999
1.7869012707722385
1.7086999022482894
1.629521016617791
1.5503421309872922
1.4731182795698925
1.4007820136852396
1.335288367546432
1.278592375366569
1.2346041055718475
1.203323558162268
1.1867057673509287
1.181818181818182
1.187683284457478
1.2013685239491692
1.2218963831867058
1.24633431085044
1.2727272727272727
1.2981427174975562
1.3206256109481915
1.33822091886608
1.3499511241446724
1.356793743890518
1.3577712609970674
1.3558162267839686
1.3519061583577712
1.3440860215053765
1.3313782991202343
1.3157380254154447
1.2971652003910068
1.2776148582600195
1.2570869990224829
1.2355816226783969
1.2111436950146628
1.1827956989247312
1.1505376344086022
1.1241446725317692
1.104594330400782
1.0948191593352885
1.1114369501466277
1.1681329423264908
1.2766373411534702
1.436950146627566
1.6422287390029326
1.8778103616813293
2.121212121212121
2.350928641251222
2.550342130987292
2.708699902248289
2.8132942326490715
2.873900293255132
2.90811339198436
2.913978494623656
2.8944281524926687
2.8533724340175954
2.7966764418377323
2.727272727272727
2.649071358748778
2.5650048875855327
2.47702834799609
2.388074291300098
2.30791788856305
2.232649071358749
2.1524926686217007
2.070381231671554
1.988269794721408
1.9071358748778104
1.8269794721407624
1.7487781036168133
1.6715542521994136
1.5943304007820136
1.5190615835777126
1.4457478005865103
1.3782991202346042
1.3255131964809383
1.284457478005865
1.2453567937438903
1.2140762463343109
1.1935483870967742
1.1837732160312806
1.18475073313783
1.1945259042033236
1.2111436950146628
1.2316715542521994
1.2541544477028348
1.2746823069403714
1.29227761485826
1.305962854349951
1.3147605083088951
1.3176930596285434
1.3147605083088951
1.3069403714565004
1.295210166177908
1.278592375366569
1.2590420332355816
1.2375366568914956
1.2130987292277615
1.187683284457478
1.1612903225806452
1.1397849462365592
1.1192570869990224
1.0918866080156402
1.0596285434995112
1.024437927663734
0.9902248289345064
0.9687194525904204
0.9726295210166178
1.0156402737047898
1.1094819159335287
1.2570869990224829
1.452590420332356
1.6471163245356797
1.8416422287390029
2.059628543499511
2.269794721407625
2.452590420332356
2.595307917888563
2.695014662756598
2.752688172043011
2.774193548387097
2.7653958944281527
2.732160312805474
2.679374389051808
2.6129032258064515
2.5454545454545454
2.4750733137829912
2.3958944281524928
2.3118279569892475
2.225806451612903
2.1388074291300097
2.0527859237536656
1.9687194525904204
1.8856304985337244
1.8054740957966764
1.726295210166178
1.6471163245356797
1.5796676441837731
1.517106549364614
1.4486803519061584
1.3792766373411536
1.3128054740957966
1.252199413489736
1.2003910068426198
1.160312805474096
1.1319648093841643
1.1163245356793745
1.1124144672531768
1.1202346041055715
1.1378299120234605
1.1593352883675463
1.1837732160312806
1.2111436950146628
1.2394916911045943
1.2649071358748778
1.2864125122189638
1.3020527859237536
1.3118279569892473
1.3157380254154447
1.3128054740957966
1.3049853372434017
1.2932551319648091
1.281524926686217
1.2688172043010753
1.2512218963831867
1.2316715542521994
1.2101661779081134
1.1857282502443791
1.1583577712609971
1.1280547409579669
1.093841642228739
1.0596285434995112
1.0332355816226784
1.0254154447702837
1.0518084066471165
1.1065493646138806
1.1974584555229717
1.3450635386119256
1.5405669599217986
1.76930596285435
2.0097751710654936
2.241446725317693
2.4457478005865103
2.610948191593353
2.7331378299120237
2.8132942326490715
2.855327468230694
2.866080156402737
2.852394916911046
2.820136852394917
2.7722385141739982
2.7116324535679373
2.6402737047898337
2.5610948191593352
2.4760508308895406
2.3870967741935485
2.2961876832844577
2.204301075268817
2.112414467253177
2.021505376344086
1.9423264907135875
1.8699902248289344
1.790811339198436
1.7086999022482894
1.6265884652981428
1.544477028347996
1.4652981427174976
1.3890518084066472
1.3196480938416422
1.2580645161290325
1.206256109481916
1.1671554252199414
1.144672531769306
1.133919843597263
1.1319648093841643
1.1397849462365592
1.1573802541544478
1.1808406647116323
1.2082111436950147
1.2355816226783969
1.2619745845552297
1.284457478005865
1.3010752688172045
1.3128054740957966
1.3186705767350928
1.321603128054741
1.3206256109481915
1.313782991202346
1.3020527859237536
1.2864125122189638
1.2668621700879763
1.2443792766373412
1.2209188660801564
1.195503421309873
1.1691104594330402
1.13880742913001
1.104594330400782
1.075268817204301
1.0498533724340176
1.0263929618768328
1.0195503421309873
1.04594330400782
1.1192570869990224
1.2473118279569892
1.4271749755620724
1.6480938416422288
1.8905180840664717
2.133919843597263
2.356793743890518
2.5268817204301075
2.6510263929618767
2.752688172043011
2.8211143695014664
2.8563049853372435
2.8611925708699903
2.8406647116324537
2.7996089931573804
2.7419354838709675
2.6725317693059627
2.5943304007820136
2.5112414467253177
2.4242424242424243
2.343108504398827
2.2668621700879767
2.1837732160312804
2.0987292277614857
2.0127077223851417
1.9266862170087975
1.8416422287390029
1.758553274682307
1.6764418377321604
1.5943304007820136
1.5151515151515151
1.4389051808406648
1.3763440860215057
1.324535679374389
1.2717497556207231
1.224828934506354
1.1867057673509287
1.160312805474096
1.1466275659824048
1.144672531769306
1.152492668621701
1.1681329423264908
1.1886608015640274
1.2130987292277615
1.2365591397849462
1.2570869990224829
1.2746823069403714
1.2883675464320623
1.2971652003910068
1.3010752688172045
1.313782991202346
1.3284457478005864
1.3294232649071358
1.321603128054741
1.3079178885630498
1.2913000977517106
1.2717497556207231
1.2561094819159335
1.2424242424242424
1.2228739002932552
1.198435972629521
1.1691104594330402
1.1378299120234605
1.1114369501466277
1.1006842619745845
1.121212121212121
1.1857282502443791
1.3040078201368523
1.4760508308895406
1.6930596285434996
1.903225806451613
2.1055718475073317
2.3255131964809386
2.5317693059628543
2.705767350928641
2.8377321603128056
2.9266862170087977
2.9765395894428157
2.992179863147605
2.9804496578690127
2.9472140762463344
2.8963831867057674
2.8377321603128056
2.773216031280548
2.696969696969697
2.613880742913001
2.525904203323558
2.436950146627566
2.347996089931574
2.260019550342131
2.1730205278592374
2.0879765395894427
2.003910068426197
1.921798631476051
1.839687194525904
1.76930596285435
1.704789833822092
1.6344086021505375
1.563049853372434
1.4936461388074291
1.4301075268817205
1.3743890518084063
1.3294232649071358
1.295210166177908
1.273704789833822
1.2639296187683284
1.2649071358748778
1.2727272727272727
1.2864125122189638
1.3040078201368523
1.3235581622678396
1.343108504398827
1.3587487781036167
1.3714565004887584
1.3792766373411536
1.3812316715542523
1.3782991202346042
1.370478983382209
1.3587487781036167
1.343108504398827
1.3294232649071358
1.3157380254154447
1.2961876832844574
1.273704789833822
1.2482893450635386
1.2218963831867058
1.1935483870967742
1.1612903225806452
1.126099706744868
1.0879765395894427
1.0547409579667644
1.0361681329423265
1.0391006842619743
1.0733137829912025
1.1544477028347997
1.2903225806451613
1.47702834799609
1.7018572825024438
1.946236559139785
2.187683284457478
2.4056695992179864
2.5865102639296187
2.7233626588465296
2.814271749755621
2.865102639296188
2.8807429130009776
2.870967741935484
2.841642228739003
2.7947214076246336
2.7331378299120237
2.66177908113392
2.581622678396872
2.496578690127077
2.407624633431085
2.3167155425219943
2.2248289345063537
2.134897360703812
2.0557184750733137
1.9833822091886608
1.906158357771261
1.826001955034213
1.7458455522971652
1.664711632453568
1.5835777126099706
1.5053763440860215
1.4301075268817205
1.3607038123167154
1.2991202346041055
1.2482893450635386
1.2082111436950147
1.1837732160312806
1.1720430107526882
1.1681329423264908
1.173998044965787
1.1896383186705768
1.2130987292277615
1.2404692082111437
1.2697947214076246
1.2971652003910068
1.321603128054741
1.3411534701857282
1.35386119257087
1.3626588465298142
1.3665689149560116
1.364613880742913
1.356793743890518
1.3450635386119256
1.3294232649071358
1.3098729227761483
1.289345063538612
1.2668621700879763
1.2434017595307918
1.2179863147605083
1.1906158357771262
1.1583577712609971
1.1300097751710656
1.104594330400782
1.0762463343108504
1.0596285434995112
1.0684261974584557
1.1192570869990224
1.2218963831867058
1.380254154447703
1.5865102639296187
1.825024437927664
2.074291300097752
2.3118279569892475
2.4975562072336266
2.6392961876832843
2.7614858260019552
2.849462365591398
2.9012707722385143
2.918866080156403
2.90811339198436
2.874877810361681
2.8240469208211145
2.758553274682307
2.6823069403714563
2.598240469208211
2.5102639296187683
2.429130009775171
2.350928641251222
2.2668621700879767
2.179863147605083
2.0928641251221896
2.006842619745845
1.920821114369501
1.835777126099707
1.7517106549364614
1.6686217008797657
1.5865102639296187
1.5073313782991202
1.4418377321603129
1.3861192570869991
1.3294232649071358
1.2776148582600195
1.2355816226783969
1.2052785923753666
1.187683284457478
1.1827956989247312
1.1886608015640274
1.203323558162268
1.2238514173998043
1.249266862170088
1.2746823069403714
1.2991202346041055
1.3225806451612905
1.343108504398827
1.3577712609970674
1.367546432062561
1.370478983382209
1.3665689149560116
1.3577712609970674
1.3450635386119256
1.327468230694037
1.3069403714565004
1.2834799608993157
1.2639296187683284
1.24633431085044
1.2218963831867058
1.1925708699902249
1.1583577712609971
1.121212121212121
1.086021505376344
1.0625610948191593
1.0654936461388074
1.1085043988269794
1.203323558162268
1.3548387096774193
1.52297165200391
1.7096774193548387
1.9403714565004888
2.1837732160312804
2.4134897360703813
2.611925708699902
2.7673509286412514
2.87683284457478
2.943304007820137
2.970674486803519
2.9667644183773216
2.93841642228739
2.889540566959922
2.832844574780059
2.76930596285435
2.6930596285435
2.6099706744868034
2.5219941348973607
2.43108504398827
2.3391984359726297
2.2482893450635384
2.157380254154448
2.0684261974584555
1.9804496578690127
1.8934506353861196
1.818181818181818
1.7497556207233629
1.6744868035190617
1.5962854349951123
1.520039100684262
1.447702834799609
1.3812316715542523
1.3235581622678396
1.2766373411534702
1.2424242424242424
1.2209188660801564
1.2130987292277615
1.2130987292277615
1.219941348973607
1.2355816226783969
1.2570869990224829
1.281524926686217
1.3049853372434017
1.327468230694037
1.346041055718475
1.359726295210166
1.3685239491691104
1.3714565004887584
1.3685239491691104
1.359726295210166
1.3509286412512218
1.3411534701857282
1.3264907135874875
1.3079178885630498
1.2883675464320623
1.267839687194526
1.2453567937438903
1.2209188660801564
1.1915933528836755
1.1593352883675463
1.1270772238514175
1.1036168132942326
1.1016617790811338
1.1241446725317692
1.181818181818182
1.295210166177908
1.4652981427174976
1.683284457478006
1.9335288367546437
2.1925708699902247
2.436950146627566
2.6480938416422286
2.814271749755621
2.9335288367546437
3.006842619745845
3.038123167155425
3.037145650048876
3.01564027370479
2.9745845552297165
2.916911045943304
2.84652981427175
2.7673509286412514
2.681329423264907
2.590420332355816
2.4975562072336266
2.403714565004888
2.310850439882698
2.218963831867057
2.1388074291300097
2.064516129032258
1.9843597262952104
1.902248289345064
1.8191593352883677
1.737047898338221
1.6549364613880744
1.5757575757575757
1.499511241446725
1.4281524926686218
1.3655913978494625
1.3128054740957966
1.2756598240469208
1.252199413489736
1.2365591397849462
1.2297165200391007
1.2326490713587488
1.2434017595307918
1.2609970674486803
1.281524926686217
1.303030303030303
1.3235581622678396
1.3401759530791788
1.3519061583577712
1.3587487781036167
1.3616813294232648
1.3607038123167154
1.35386119257087
1.3421309872922775
1.3255131964809383
1.305962854349951
1.2834799608993157
1.2580645161290325
1.2316715542521994
1.2043010752688172
1.1759530791788857
1.1456500488758554
1.118279569892473
1.0918866080156402
1.0586510263929618
1.0273704789833822
1.010752688172043
1.024437927663734
1.083088954056696
1.1964809384164223
1.3655913978494625
1.5826001955034212
1.828934506353861
2.0821114369501466
2.320625610948192
2.506353861192571
2.6451612903225805
2.760508308895406
2.841642228739003
2.886608015640274
2.8993157380254155
2.884652981427175
2.8475073313782997
2.793743890518084
2.7262952101661777
2.6480938416422286
2.5620723362658846
2.4809384164222874
2.401759530791789
2.314760508308896
2.225806451612903
2.1358748778103616
2.04594330400782
1.9579667644183771
1.870967741935484
1.7849462365591398
1.7008797653958945
1.616813294232649
1.533724340175953
1.4545454545454546
1.3900293255131966
1.335288367546432
1.2805474095796676
1.2326490713587488
1.1945259042033236
1.1691104594330402
1.1564027370478984
1.155425219941349
1.1652003910068427
1.1827956989247312
1.206256109481916
1.2336265884652982
1.2590420332355816
1.2825024437927663
1.3040078201368523
1.321603128054741
1.3333333333333333
1.3391984359726294
1.3391984359726294
1.3343108504398826
1.324535679374389
1.310850439882698
1.2932551319648091
1.2727272727272727
1.2512218963831867
1.2336265884652982
1.217008797653959
1.195503421309873
1.1691104594330402
1.1378299120234605
1.1036168132942326
1.0713587487781036
1.0518084066471165
1.056695992179863
1.1016617790811338
1.198435972629521
1.3509286412512218
1.520039100684262
1.7067448680351909
1.9374389051808407
2.179863147605083
2.4086021505376345
2.6050830889540566
2.7595307917888565
2.868035190615836
2.9335288367546437
2.959921798631476
2.9550342130987293
2.9257086999022484
2.881720430107527
2.8260019550342133
2.7565982404692084
2.67644183773216
2.590420332355816
2.4995112414467253
2.406647116324536
2.313782991202346
2.220918866080156
2.129032258064516
2.0391006842619745
1.951124144672532
1.8641251221896384
1.7888563049853372
1.7194525904203324
1.6422287390029326
1.5620723362658846
1.4838709677419355
1.409579667644184
1.343108504398827
1.2854349951124144
1.2394916911045943
1.206256109481916
1.1867057673509287
1.1788856304985338
1.181818181818182
1.1935483870967742
1.2111436950146628
1.2336265884652982
1.2590420332355816
1.2825024437927663
1.303030303030303
1.3206256109481915
1.332355816226784
1.33822091886608
1.3391984359726294
1.335288367546432
1.3264907135874875
1.3176930596285434
1.3079178885630498
1.2913000977517106
1.2717497556207231
1.2502443792766371
1.2267839687194526
1.2003910068426198
1.1710654936461389
1.1368523949169111
1.099706744868035
1.0635386119257086
1.0371456500488758
1.0303030303030305
1.0498533724340176
1.1114369501466277
1.2267839687194526
1.3978494623655917
1.6158357771260996
1.8631476050830889
2.118279569892473
2.357771260997068
2.5640273704789838
2.7262952101661777
2.841642228739003
2.911045943304008
2.9393939393939394
2.9374389051808407
2.913000977517106
2.8699902248289346
2.812316715542522
2.7419354838709675
2.6637341153470184
2.578690127077224
2.489736070381232
2.398826979472141
2.3069403714565007
2.2170087976539588
2.1378299120234603
2.064516129032258
1.9853372434017595
1.9042033235581624
1.823069403714565
1.7419354838709675
1.6578690127077225
1.573802541544477
1.495601173020528
1.4242424242424243
1.359726295210166
1.3040078201368523
1.2590420332355816
1.2297165200391007
1.2121212121212122
1.2013685239491692
1.2003910068426198
1.209188660801564
1.2238514173998043
1.2424242424242424
1.2639296187683284
1.284457478005865
1.303030303030303
1.3176930596285434
1.3284457478005864
1.3362658846529814
1.3401759530791788
1.3391984359726294
1.332355816226784
1.3225806451612905
1.3098729227761483
1.295210166177908
1.278592375366569
1.2609970674486803
1.2424242424242424
1.2228739002932552
1.1994134897360704
1.1730205278592376
1.1485826001955035
1.126099706744868
1.1006842619745845
1.0850439882697946
