ppg
1.4301075268817205
1.4056695992179864
1.380254154447703
1.3558162267839686
1.332355816226784
1.3088954056695992
1.2854349951124144
1.262952101661779
1.2404692082111437
1.2179863147605083
1.2453567937438903
1.3040078201368523
1.3294232649071358
1.335288367546432
1.3333333333333333
1.3264907135874875
1.316715542521994
1.305962854349951
1.2942326490713587
1.2834799608993157
1.2727272727272727
1.2609970674486803
1.249266862170088
1.2355816226783969
1.224828934506354
1.2150537634408602
1.203323558162268
1.1945259042033236
1.195503421309873
1.2111436950146628
1.2482893450635386
1.3088954056695992
1.392961876832845
1.498533724340176
1.616813294232649
1.7419354838709675
1.8514173998044965
1.9501466275659824
2.053763440860215
2.15347018572825
2.244379276637341
2.326490713587488
2.39980449657869
2.4652981427174976
2.52297165200391
2.573802541544477
2.618768328445748
2.656891495601173
2.689149560117302
2.7096774193548385
2.721407624633431
2.7331378299120237
2.739980449657869
2.7390029325513194
2.730205278592375
2.7126099706744866
2.6852394916911044
2.649071358748778
2.606060606060606
2.558162267839687
2.506353861192571
2.458455522971652
2.4134897360703813
2.367546432062561
2.32355816226784
2.283479960899316
2.24633431085044
2.212121212121212
2.1808406647116323
2.150537634408602
2.120234604105572
2.089931573802541
2.06158357771261
2.0332355816226784
2.0087976539589443
1.9853372434017595
1.959921798631476
1.932551319648094
1.905180840664712
1.8778103616813293
1.8504398826979471
1.8240469208211143
1.7986314760508308
1.7741935483870968
1.750733137829912
1.7272727272727273
1.7067448680351909
1.6881720430107527
1.6666666666666667
1.6451612903225807
1.6226783968719452
1.6021505376344083
1.5826001955034212
1.564027370478983
1.5454545454545454
1.525904203323558
1.5073313782991202
1.4887585532746823
1.4701857282502444
1.4545454545454546
1.4428152492668622
1.4291300097751711
1.4164222873900294
1.4037145650048877
1.391006842619746
1.3792766373411536
1.367546432062561
1.356793743890518
1.346041055718475
1.3362658846529814
1.3255131964809383
1.3176930596285434
1.310850439882698
1.3020527859237536
1.29227761485826
1.2825024437927663
1.2727272727272727
1.262952101661779
1.2512218963831867
1.2394916911045943
1.227761485826002
1.2189638318670577
1.2189638318670577
1.2355816226783969
1.2649071358748778
1.3118279569892473
1.3861192570869991
1.4848484848484849
1.603128054740958
1.732160312805474
1.866080156402737
1.9960899315738023
2.1192570869990224
2.231671554252199
2.332355816226784
2.4222873900293256
2.490713587487781
2.5454545454545454
2.6021505376344085
2.6559139784946235
2.704789833822092
2.748778103616813
2.7869012707722387
2.819159335288368
2.844574780058651
2.86217008797654
2.8719452590420333
2.8729227761485827
2.865102639296188
2.8484848484848486
2.822091886608016
2.7869012707722387
2.742913000977517
2.69208211143695
2.636363636363636
2.578690127077224
2.5210166177908118
2.466275659824047
2.4144672531769307
2.366568914956012
2.3225806451612905
2.2854349951124147
2.2521994134897363
2.218963831867057
2.185728250244379
2.1524926686217007
2.1192570869990224
2.0869990224828934
2.0547409579667644
2.0234604105571847
1.9931573802541545
1.963831867057673
1.9345063538611929
1.905180840664712
1.8797653958944285
1.8563049853372435
1.83088954056696
1.804496578690127
1.7771260997067448
1.7487781036168133
1.7204301075268815
1.6930596285434996
1.6666666666666667
1.6412512218963833
1.6158357771260996
1.590420332355816
1.5698924731182795
1.5513196480938416
1.530791788856305
1.5102639296187683
1.4897360703812317
1.4701857282502444
1.4506353861192571
1.4320625610948192
1.414467253176931
1.3958944281524928
1.3782991202346042
1.3626588465298142
1.3479960899315735
1.3391984359726294
1.332355816226784
1.3235581622678396
1.3147605083088951
1.3049853372434017
1.295210166177908
1.2864125122189638
1.278592375366569
1.270772238514174
1.262952101661779
1.2541544477028348
1.2443792766373412
1.2365591397849462
1.23069403714565
1.2209188660801564
1.2082111436950147
1.1964809384164223
1.1915933528836755
1.1994134897360704
1.2258064516129032
1.2766373411534702
1.3528836754643203
1.4535679374389052
1.5728250244379276
1.6852394916911049
1.793743890518084
1.913978494623656
2.034213098729228
2.147605083088954
2.2502443792766376
2.3421309872922778
2.4242424242424243
2.4975562072336266
2.563049853372434
2.622678396871945
2.67644183773216
2.724340175953079
2.758553274682307
2.782991202346041
2.809384164222874
2.832844574780059
2.850439882697948
2.860215053763441
2.8611925708699903
2.852394916911046
2.831867057673509
2.7996089931573804
2.757575757575758
2.7067448680351904
2.653958944281525
2.60019550342131
2.541544477028348
2.479960899315738
2.420332355816227
2.3655913978494625
2.315738025415445
2.269794721407625
2.2297165200391005
2.193548387096774
2.158357771260997
2.124144672531769
2.089931573802541
2.059628543499511
2.03128054740958
1.9990224828934504
1.9657869012707725
1.932551319648094
1.8826979472140764
1.8240469208211143
1.7771260997067448
1.7360703812316716
1.6979472140762464
1.66177908113392
1.6256109481915937
1.5972629521016617
1.5708699902248289
1.541544477028348
1.5112414467253177
1.478983382209189
1.4467253176930597
1.414467253176931
1.3841642228739004
1.3558162267839686
1.327468230694037
1.3010752688172045
1.2766373411534702
1.2512218963831867
1.2316715542521994
1.2150537634408602
1.1945259042033236
1.1720430107526882
1.1495601173020529
1.1290322580645162
1.110459433040078
1.093841642228739
1.0772238514173995
1.06158357771261
1.0469208211143697
1.032258064516129
1.0234604105571847
1.0175953079178883
1.0087976539589445
0.9980449657869012
0.9872922776148584
0.9736070381231672
0.959921798631476
0.946236559139785
0.9315738025415444
0.916911045943304
0.9002932551319648
0.8817204301075269
0.863147605083089
0.8514173998044966
0.8465298142717498
0.8475073313782991
0.8651026392961877
0.906158357771261
0.9736070381231672
1.0684261974584557
1.1886608015640274
1.3264907135874875
1.4711632453567938
1.616813294232649
1.7565982404692082
1.870967741935484
1.9687194525904204
2.0664711632453567
2.158357771260997
2.241446725317693
2.3167155425219943
2.383186705767351
2.441837732160313
2.493646138807429
2.5376344086021505
2.576735092864125
2.608993157380254
2.634408602150537
2.6471163245356792
2.650048875855328
2.6480938416422286
2.6373411534701856
2.6158357771261
2.5835777126099706
2.541544477028348
2.4916911045943304
2.4349951124144678
2.3743890518084068
2.313782991202346
2.254154447702835
2.203323558162268
2.158357771260997
2.114369501466276
2.0733137829912023
2.0361681329423265
2.0
1.9657869012707725
1.9305962854349952
1.8963831867057677
1.8621700879765395
1.828934506353861
1.7956989247311828
1.7644183773216031
1.7380254154447703
1.7126099706744868
1.6842619745845553
1.6549364613880744
1.6236559139784943
1.5933528836754642
1.563049853372434
1.533724340175953
1.5053763440860215
1.4760508308895406
1.4467253176930597
1.418377321603128
1.3949169110459434
1.375366568914956
1.3519061583577712
1.327468230694037
1.3040078201368523
1.2825024437927663
1.2609970674486803
1.2404692082111437
1.2209188660801564
1.2003910068426198
1.1798631476050832
1.160312805474096
1.142717497556207
1.1300097751710656
1.1202346041055715
1.10752688172043
1.093841642228739
1.0791788856304985
1.064516129032258
1.0498533724340176
1.035190615835777
1.0224828934506354
1.0097751710654936
0.997067448680352
0.9853372434017597
0.9775171065493646
0.9726295210166178
0.9638318670576737
0.9530791788856304
0.9423264907135877
0.9296187683284456
0.9159335288367546
0.9012707722385142
0.8875855327468231
0.8778103616813294
0.8807429130009775
0.9032258064516128
0.9511241446725318
1.0156402737047898
1.0977517106549364
1.2082111436950147
1.3401759530791788
1.482893450635386
1.6275659824046922
1.7673509286412512
1.8973607038123168
2.01564027370479
2.1221896383186705
2.2170087976539588
2.302052785923754
2.367546432062561
2.420332355816227
2.4760508308895406
2.5288367546432062
2.575757575757576
2.6177908113391983
2.6529814271749754
2.681329423264907
2.7008797653958942
2.7126099706744866
2.7145650048875853
2.704789833822092
2.6832844574780057
2.653958944281525
2.616813294232649
2.5698924731182795
2.5161290322580645
2.455522971652004
2.3919843597262958
2.329423264907136
2.269794721407625
2.2160312805474094
2.167155425219941
2.12316715542522
2.083088954056696
2.048875855327468
2.0175953079178885
1.9833822091886608
1.948191593352884
1.913978494623656
1.8797653958944285
1.8465298142717497
1.8142717497556209
1.782991202346041
1.7517106549364614
1.7194525904203324
1.6871945259042034
1.6588465298142718
1.632453567937439
1.603128054740958
1.573802541544477
1.544477028347996
1.5141739980449658
1.4838709677419355
1.4535679374389052
1.4242424242424243
1.3958944281524928
1.3685239491691104
1.3421309872922775
1.3176930596285434
1.2991202346041055
1.2834799608993157
1.2639296187683284
1.2424242424242424
1.2209188660801564
1.1994134897360704
1.1798631476050832
1.160312805474096
1.142717497556207
1.126099706744868
1.110459433040078
1.0948191593352885
1.0840664711632453
1.0762463343108504
1.0654936461388074
1.0527859237536656
1.040078201368524
1.029325513196481
1.0175953079178883
1.0058651026392962
0.9941348973607038
0.9824046920821116
0.9696969696969696
0.9579667644183774
0.946236559139785
0.9393939393939394
0.9335288367546432
0.9237536656891496
0.9110459433040078
0.8983382209188661
0.8885630498533724
0.8895405669599218
0.9071358748778104
0.9472140762463344
1.0146627565982405
1.110459433040078
1.2297165200391007
1.3470185728250244
1.4643206256109482
1.5972629521016617
1.732160312805474
1.86119257086999
1.9804496578690127
2.0879765395894427
2.1847507331378297
2.272727272727273
2.350928641251222
2.420332355816227
2.482893450635386
2.6050830889540566
2.745845552297165
2.8269794721407626
2.8856304985337244
2.9286412512218964
2.959921798631476
2.9804496578690127
2.991202346041056
2.9902248289345064
2.975562072336266
2.9472140762463344
2.9071358748778104
2.857282502443793
2.803519061583578
2.748778103616813
2.686217008797654
2.6207233626588464
2.5562072336265884
2.495601173020528
2.4408602150537635
2.391006842619746
2.347018572825025
2.30791788856305
2.269794721407625
2.231671554252199
2.193548387096774
2.1593352883675463
2.1280547409579667
2.0948191593352883
2.060606060606061
2.026392961876833
1.9931573802541545
1.9589442815249267
1.9237536656891496
1.889540566959922
1.8543499511241448
1.8201368523949168
1.7869012707722385
1.7595307917888563
1.7341153470185728
1.7067448680351909
1.678396871945259
1.6480938416422288
1.616813294232649
1.58455522971652
1.5532746823069403
1.5239491691104594
1.495601173020528
1.4701857282502444
1.444770283479961
1.4203323558162269
1.4037145650048877
1.3900293255131966
1.3743890518084063
1.356793743890518
1.3372434017595307
1.316715542521994
1.2981427174975562
1.281524926686217
1.2649071358748778
1.2482893450635386
1.2326490713587488
1.217008797653959
1.2072336265884651
1.2013685239491692
1.1945259042033236
1.1867057673509287
1.1798631476050832
1.1720430107526882
1.164222873900293
1.1544477028347997
1.142717497556207
1.130987292277615
1.118279569892473
1.1055718475073313
1.0918866080156402
1.083088954056696
1.0762463343108504
1.067448680351906
1.0635386119257086
1.0733137829912025
1.1036168132942326
1.160312805474096
1.2473118279569892
1.3607038123167154
1.4946236559139785
1.6392961876832846
1.7859237536656891
1.911045943304008
2.0205278592375366
2.131964809384164
2.236559139784946
2.333333333333333
2.420332355816227
2.4995112414467253
2.570869990224829
2.634408602150537
2.6911045943304006
2.739980449657869
2.7810361681329425
2.81622678396872
2.838709677419355
2.8514173998044967
2.8611925708699903
2.863147605083089
2.855327468230694
2.835777126099707
2.8044965786901277
2.763440860215054
2.713587487781036
2.6559139784946235
2.592375366568915
2.5268817204301075
2.4682306940371457
2.41544477028348
2.3626588465298144
2.313782991202346
2.2688172043010755
2.2277614858260018
2.189638318670577
2.1515151515151514
2.114369501466276
2.078201368523949
2.043010752688172
2.007820136852395
1.9716520039100685
1.9393939393939397
1.9120234604105573
1.881720430107527
1.8504398826979471
1.8201368523949168
1.7888563049853372
1.7565982404692082
1.7253176930596286
1.694037145650049
1.66177908113392
1.629521016617791
1.5972629521016617
1.5718475073313782
1.5513196480938416
1.5288367546432062
1.5063538611925709
1.4838709677419355
1.4613880742913
1.4389051808406648
1.4173998044965788
1.396871945259042
1.3782991202346042
1.3607038123167154
1.3421309872922775
1.327468230694037
1.316715542521994
1.303030303030303
1.2883675464320623
1.273704789833822
1.2609970674486803
1.249266862170088
1.2394916911045943
1.2297165200391007
1.219941348973607
1.2111436950146628
1.203323558162268
1.1964809384164223
1.195503421309873
1.195503421309873
1.1925708699902249
1.187683284457478
1.181818181818182
1.1759530791788857
1.1681329423264908
1.1573802541544478
1.144672531769306
1.1280547409579669
1.1114369501466277
1.0977517106549364
1.0928641251221896
1.099706744868035
1.121212121212121
1.166177908113392
1.238514173998045
1.3411534701857282
1.469208211143695
1.6138807429130009
1.7653958944281525
1.9149560117302051
2.0576735092864125
2.189638318670577
2.3098729227761488
2.404692082111437
2.4809384164222874
2.5591397849462365
2.634408602150537
2.702834799608993
2.7653958944281527
2.8211143695014664
2.8699902248289346
2.911045943304008
2.943304007820137
2.967741935483871
2.983382209188661
2.986314760508309
2.9804496578690127
2.9696969696969697
2.949169110459433
2.916911045943304
2.874877810361681
2.823069403714565
2.764418377321604
2.7008797653958942
2.635386119257087
2.5718475073313782
2.5112414467253177
2.4565004887585533
2.4115347018572826
2.372434017595308
2.3362658846529816
2.303030303030303
2.269794721407625
2.236559139784946
2.204301075268817
2.172043010752688
2.1388074291300097
2.1055718475073317
2.072336265884653
2.0391006842619745
2.0097751710654936
1.9833822091886608
1.95405669599218
1.924731182795699
1.8944281524926687
1.8621700879765395
1.828934506353861
1.796676441837732
1.7644183773216031
1.7331378299120237
1.7028347996089932
1.6744868035190617
1.6480938416422288
1.6256109481915937
1.6050830889540566
1.5826001955034212
1.5581622678396871
1.533724340175953
1.5112414467253177
1.4897360703812317
1.469208211143695
1.4506353861192571
1.43108504398827
1.412512218963832
1.3958944281524928
1.383186705767351
1.3724340175953078
1.3577712609970674
1.343108504398827
1.3294232649071358
1.316715542521994
1.29227761485826
1.2639296187683284
1.2443792766373412
1.2297165200391007
1.2179863147605083
1.2072336265884651
1.1964809384164223
1.1906158357771262
1.1867057673509287
1.1798631476050832
1.1710654936461389
1.1622678396871946
1.1515151515151516
1.1397849462365592
1.1270772238514175
1.1143695014662756
1.10752688172043
1.1143695014662756
1.142717497556207
1.1867057673509287
1.2502443792766371
1.3470185728250244
1.4711632453567938
1.6158357771260996
1.772238514173998
1.9296187683284456
2.080156402737048
2.220918866080156
2.3499511241446727
2.464320625610948
2.565982404692082
2.6559139784946235
2.724340175953079
2.779081133919844
2.8377321603128056
2.8944281524926687
2.946236559139785
2.992179863147605
3.032258064516129
3.0635386119257086
3.086021505376344
3.0987292277614857
3.099706744868035
3.0869990224828934
3.0625610948191597
3.0283479960899315
2.98435972629521
2.932551319648094
2.870967741935484
2.803519061583578
2.735092864125122
2.667644183773216
2.6041055718475072
2.544477028347996
2.490713587487781
2.441837732160313
2.3978494623655915
2.358748778103617
2.3225806451612905
2.286412512218964
2.249266862170088
2.2111436950146626
2.172043010752688
2.132942326490713
2.0928641251221896
2.0527859237536656
2.0146627565982405
1.978494623655914
1.9413489736070384
1.90811339198436
1.8778103616813293
1.8465298142717497
1.8142717497556209
1.7810361681329423
1.747800586510264
1.7145650048875856
1.683284457478006
1.6520039100684265
1.6217008797653958
1.5923753665689149
1.563049853372434
1.5356793743890518
1.5141739980449658
1.495601173020528
1.47702834799609
1.4594330400782014
1.4408602150537635
1.4213098729227762
1.401759530791789
1.3812316715542523
1.3616813294232648
1.3421309872922775
1.3235581622678396
1.305962854349951
1.29227761485826
1.2825024437927663
1.2697947214076246
1.2570869990224829
1.24633431085044
1.2355816226783969
1.2258064516129032
1.2160312805474096
1.206256109481916
1.1964809384164223
1.1867057673509287
1.176930596285435
1.1671554252199414
1.1612903225806452
1.1564027370478984
1.147605083088954
1.1358748778103618
1.1231671554252198
1.110459433040078
1.1016617790811338
1.1026392961876832
1.121212121212121
1.164222873900293
1.2346041055718475
1.332355816226784
1.435972629521017
1.547409579667644
1.6813294232649072
1.825024437927664
1.967741935483871
2.1006842619745845
2.2218963831867056
2.3304007820136854
2.4271749755620724
2.5141739980449658
2.592375366568915
2.6637341153470184
2.717497556207233
2.760508308895406
2.8044965786901277
2.84652981427175
2.8826979472140764
2.9100684261974585
2.929618768328446
2.940371456500489
2.940371456500489
2.929618768328446
2.9071358748778104
2.8719452590420333
2.825024437927664
2.773216031280548
2.717497556207233
2.6529814271749754
2.5865102639296187
2.5210166177908118
2.458455522971652
2.401759530791789
2.350928641251222
2.304985337243402
2.2629521016617797
2.2218963831867056
2.182795698924731
2.147605083088954
2.114369501466276
2.078201368523949
2.043010752688172
2.007820136852395
1.9736070381231672
1.9403714565004888
1.9071358748778104
1.8758553274682308
1.8455522971652003
1.8132942326490715
1.780058651026393
1.747800586510264
1.7194525904203324
1.6950146627565983
1.6695992179863148
1.6441837732160314
1.616813294232649
1.5884652981427174
1.5610948191593352
1.5347018572825024
1.5083088954056696
1.482893450635386
1.4594330400782014
1.4379276637341154
1.4213098729227762
1.4066471163245358
1.388074291300098
1.3685239491691104
1.3479960899315735
1.3294232649071358
1.3118279569892473
1.2942326490713587
1.278592375366569
1.2649071358748778
1.2531769305962854
1.2424242424242424
1.2326490713587488
1.2267839687194526
1.2228739002932552
1.2160312805474096
1.2072336265884651
1.198435972629521
1.1906158357771262
1.181818181818182
1.1720430107526882
1.1622678396871946
1.1534701857282503
1.144672531769306
1.1348973607038124
1.1280547409579669
1.1221896383186705
1.1124144672531768
1.1016617790811338
1.0948191593352885
1.1016617790811338
1.1280547409579669
1.1798631476050832
1.2619745845552297
1.3734115347018572
1.5083088954056696
1.6588465298142718
1.81524926686217
1.951124144672532
2.072336265884653
2.19941348973607
2.320625610948192
2.432062561094819
2.532746823069404
2.624633431085044
2.70772238514174
2.7810361681329425
2.8455522971652005
2.902248289345064
2.952101661779081
2.986314760508309
3.010752688172043
3.0361681329423265
3.0547409579667644
3.064516129032258
3.064516129032258
3.0527859237536656
3.027370478983382
2.989247311827957
2.941348973607038
2.884652981427175
2.820136852394917
2.752688172043011
2.6901270772238512
2.631476050830889
2.570869990224829
2.5131964809384164
2.4604105571847508
2.4134897360703813
2.3704789833822093
2.329423264907136
2.291300097751711
2.254154447702835
2.2170087976539588
2.1818181818181817
2.1251221896383186
2.056695992179863
2.003910068426197
1.959921798631476
1.919843597262952
1.8826979472140764
1.8484848484848484
1.81524926686217
1.782991202346041
1.7517106549364614
1.7174975562072337
1.683284457478006
1.6500488758553276
1.6226783968719452
1.598240469208211
1.5718475073313782
1.544477028347996
1.5180840664711632
1.4916911045943304
1.4652981427174976
1.439882697947214
1.4134897360703813
1.388074291300098
1.364613880742913
1.3421309872922775
1.3264907135874875
1.3128054740957966
1.2942326490713587
1.2766373411534702
1.260019550342131
1.2443792766373412
1.2287390029325511
1.2140762463343109
1.2003910068426198
1.187683284457478
1.1759530791788857
1.1652003910068427
1.1544477028347997
1.1485826001955035
1.144672531769306
1.1378299120234605
1.1300097751710656
1.121212121212121
1.1124144672531768
1.104594330400782
1.096774193548387
1.0879765395894427
1.078201368523949
1.0664711632453567
1.053763440860215
1.0469208211143697
1.04594330400782
1.050830889540567
1.072336265884653
1.1173020527859236
1.1915933528836755
1.295210166177908
1.4252199413489737
1.5728250244379276
1.7282502443792769
1.8826979472140764
2.0303030303030303
2.167155425219941
2.2766373411534704
2.366568914956012
2.458455522971652
2.5464320625610948
2.6285434995112413
2.704789833822092
2.773216031280548
2.834799608993157
2.889540566959922
2.936461388074292
2.975562072336266
3.004887585532747
3.0195503421309877
3.022482893450636
3.0205278592375366
3.0117302052785924
2.992179863147605
2.9589442815249267
2.9159335288367547
2.8641251221896384
2.8025415444770285
2.735092864125122
2.6666666666666665
2.5992179863147604
2.535679374389052
2.4809384164222874
2.4330400782013686
2.3851417399804498
2.3382209188660803
2.2932551319648096
2.2502443792766376
2.2082111436950145
2.167155425219941
2.126099706744868
2.086021505376344
2.046920821114369
2.0087976539589443
1.9765395894428155
1.945259042033236
1.911045943304008
1.8758553274682308
1.839687194525904
1.8035190615835777
1.76930596285435
1.7360703812316716
1.7028347996089932
1.6695992179863148
1.6373411534701858
1.606060606060606
1.5806451612903225
1.5581622678396871
1.5317693059628543
1.504398826979472
1.47702834799609
1.4506353861192571
1.4252199413489737
1.4007820136852396
1.3773216031280548
1.3558162267839686
1.335288367546432
1.313782991202346
1.2932551319648091
1.2776148582600195
1.2649071358748778
1.249266862170088
1.2336265884652982
1.2189638318670577
1.2043010752688172
1.1896383186705768
1.176930596285435
1.1652003910068427
1.1544477028347997
1.144672531769306
1.133919843597263
1.1270772238514175
1.121212121212121
1.1133919843597262
1.1026392961876832
1.088954056695992
1.075268817204301
1.06158357771261
1.0488758553274682
1.0342130987292275
1.0175953079178883
0.9990224828934506
0.981427174975562
0.9696969696969696
0.9687194525904204
0.981427174975562
1.0117302052785924
1.0664711632453567
1.1495601173020529
1.2619745845552297
1.3988269794721409
1.5493646138807429
1.704789833822092
1.8592375366568916
2.006842619745845
2.142717497556207
2.2502443792766376
2.337243401759531
2.423264907135875
2.501466275659824
2.5698924731182795
2.6285434995112413
2.679374389051808
2.721407624633431
2.755620723362659
2.78494623655914
2.8084066471163247
2.8260019550342133
2.8377321603128056
2.838709677419355
2.8299120234604107
2.814271749755621
2.790811339198436
2.757575757575758
2.7155425219941347
2.6637341153470184
2.603128054740958
2.5386119257087
2.472140762463343
2.407624633431085
2.346041055718475
2.2932551319648096
2.247311827956989
2.2023460410557183
2.1593352883675463
2.117302052785924
2.0772238514174
2.038123167155425
2.0019550342130987
1.967741935483871
1.9345063538611929
1.9012707722385145
1.869012707722385
1.836754643206256
1.8074291300097751
1.7790811339198436
1.747800586510264
1.7145650048875856
1.6803519061583578
1.6471163245356797
1.6148582600195502
1.5835777126099706
1.5542521994134897
1.5288367546432062
1.5063538611925709
1.487781036168133
1.4750733137829912
1.4643206256109482
1.4496578690127078
1.4330400782013686
