ppg
1.6989247311827955
1.7869012707722385
1.8885630498533723
1.9951124144672527
2.101661779081134
2.203323558162268
2.297165200391007
2.383186705767351
2.4613880742913
2.5288367546432062
2.5855327468230693
2.631476050830889
2.66177908113392
2.679374389051808
2.6911045943304006
2.6940371456500487
2.687194525904203
2.6715542521994133
2.6480938416422286
2.6158357771261
2.576735092864125
2.5317693059628543
2.4838709677419355
2.432062561094819
2.3841642228739004
2.340175953079179
2.294232649071359
2.249266862170088
2.206256109481916
2.1681329423264906
2.133919843597263
2.103616813294233
2.0772238514174
2.0527859237536656
2.0283479960899315
2.002932551319648
1.9775171065493649
1.95405669599218
1.9305962854349952
1.903225806451613
1.871945259042033
1.839687194525904
1.8064516129032255
1.772238514173998
1.7380254154447703
1.7038123167155426
1.6695992179863148
1.6344086021505375
1.5992179863147604
1.5698924731182795
1.542521994134897
1.5112414467253177
1.478983382209189
1.4457478005865103
1.412512218963832
1.3812316715542523
1.3519061583577712
1.3235581622678396
1.2961876832844574
1.2697947214076246
1.2453567937438903
1.2238514173998043
1.2082111436950147
1.1964809384164223
1.181818181818182
1.166177908113392
1.1495601173020529
1.1319648093841643
1.115347018572825
1.1016617790811338
1.0899315738025417
1.0801564027370478
1.072336265884653
1.067448680351906
1.0664711632453567
1.0694037145650048
1.072336265884653
1.075268817204301
1.078201368523949
1.0811339198435972
1.0850439882697946
1.0909090909090908
1.0977517106549364
1.104594330400782
1.1133919843597262
1.126099706744868
1.144672531769306
1.1691104594330402
1.1994134897360704
1.2394916911045943
1.2903225806451613
1.35386119257087
1.4301075268817205
1.517106549364614
1.6138807429130009
1.7194525904203324
1.83088954056696
1.945259042033236
2.0625610948191597
2.164222873900293
2.2551319648093844
2.3548387096774195
2.4565004887585533
2.5532746823069403
2.643206256109482
2.7223851417399803
2.789833822091887
2.84652981427175
2.8905180840664717
2.921798631476051
2.943304007820137
2.95405669599218
2.9530791788856305
2.9423264907135875
2.9237536656891496
2.897360703812317
2.8641251221896384
2.823069403714565
2.7751710654936463
2.7223851417399803
2.664711632453568
2.6050830889540566
2.5454545454545454
2.4858260019550342
2.4330400782013686
2.3841642228739004
2.334310850439883
2.286412512218964
2.241446725317693
2.201368523949169
2.1652003910068425
2.131964809384164
2.0987292277614857
2.065493646138808
2.0332355816226784
2.0
1.9657869012707725
1.9345063538611929
1.903225806451613
1.8670576735092863
1.827956989247312
1.7878787878787878
1.7468230694037146
1.7038123167155426
1.6764418377321604
1.6578690127077225
1.6265884652981428
1.5884652981427174
1.5493646138807429
1.517106549364614
1.4887585532746823
1.457478005865103
1.4252199413489737
1.392961876832845
1.3636363636363635
1.33822091886608
1.3157380254154447
1.2942326490713587
1.2746823069403714
1.2551319648093842
1.2336265884652982
1.2130987292277615
1.1974584555229717
1.18475073313783
1.1691104594330402
1.152492668621701
1.1368523949169111
1.1221896383186705
1.110459433040078
1.1016617790811338
1.0948191593352885
1.0909090909090908
1.088954056695992
1.0879765395894427
1.0909090909090908
1.096774193548387
1.1006842619745845
1.104594330400782
1.1094819159335287
1.1163245356793745
1.1270772238514175
1.1436950146627567
1.1691104594330402
1.2052785923753666
1.2551319648093842
1.3186705767350928
1.3978494623655917
1.478005865102639
1.5620723362658846
1.6637341153470186
1.7771260997067448
1.8983382209188664
2.022482893450636
2.142717497556207
2.257086999022483
2.363636363636364
2.4594330400782014
2.5434995112414467
2.6148582600195502
2.667644183773216
2.705767350928641
2.740957966764418
2.771260997067449
2.7947214076246336
2.8103616813294234
2.8181818181818183
2.8181818181818183
2.809384164222874
2.792766373411535
2.768328445747801
2.7370478983382207
2.699902248289345
2.6608015640273703
2.619745845552297
2.573802541544477
2.5249266862170088
2.4750733137829912
2.4242424242424243
2.376344086021505
2.329423264907136
2.2854349951124147
2.244379276637341
2.2052785923753664
2.1681329423264906
2.136852394916911
2.10850439882698
2.080156402737048
2.053763440860215
2.0283479960899315
2.004887585532747
1.9843597262952104
1.963831867057673
1.9423264907135875
1.920821114369501
1.8993157380254155
1.8778103616813293
1.8533724340175952
1.83088954056696
1.8093841642228736
1.7839687194525904
1.7546432062561097
1.7243401759530792
1.6920821114369502
1.6588465298142718
1.6256109481915937
1.5913978494623655
1.5581622678396871
1.5268817204301075
1.495601173020528
1.4711632453567938
1.4516129032258065
1.4291300097751711
1.404692082111437
1.380254154447703
1.3577712609970674
1.3362658846529814
1.3157380254154447
1.2961876832844574
1.2795698924731185
1.2658846529814272
1.2531769305962854
1.24633431085044
1.2434017595307918
1.2394916911045943
1.2365591397849462
1.2346041055718475
1.2355816226783969
1.238514173998045
1.2434017595307918
1.2502443792766371
1.2590420332355816
1.2688172043010753
1.281524926686217
1.2981427174975562
1.3196480938416422
1.346041055718475
1.3822091886608017
1.4291300097751711
1.4868035190615836
1.5571847507331378
1.6392961876832846
1.732160312805474
1.8328445747800584
1.9393939393939397
2.0498533724340176
2.161290322580645
2.2561094819159337
2.3411534701857284
2.4330400782013686
2.5249266862170088
2.6148582600195502
2.6989247311827955
2.7751710654936463
2.841642228739003
2.898338220918866
2.9442815249266863
2.978494623655914
3.0009775171065494
3.0117302052785924
3.010752688172043
3.0
2.9824046920821115
2.9579667644183774
2.9266862170087977
2.886608015640274
2.8396871945259043
2.7859237536656893
2.727272727272727
2.665689149560117
2.603128054740958
2.541544477028348
2.486803519061584
2.4379276637341154
2.389051808406647
2.343108504398827
2.300097751710655
2.260997067448681
2.2248289345063537
2.189638318670577
2.156402737047898
2.126099706744868
2.0957966764418376
2.065493646138808
2.035190615835777
2.006842619745845
1.9794721407624636
1.948191593352884
1.9130009775171064
1.8748778103616808
1.8347996089931573
1.7927663734115349
1.7497556207233629
1.70772238514174
1.6666666666666667
1.6265884652981428
1.587487781036168
1.5562072336265884
1.5288367546432062
1.4975562072336266
1.466275659824047
1.435972629521017
1.4076246334310851
1.380254154447703
1.35386119257087
1.327468230694037
1.3020527859237536
1.278592375366569
1.2551319648093842
1.2326490713587488
1.2160312805474096
1.2023460410557183
1.1867057673509287
1.1700879765395895
1.1544477028347997
1.1397849462365592
1.1251221896383188
1.1124144672531768
1.1026392961876832
1.0948191593352885
1.0879765395894427
1.083088954056696
1.0840664711632453
1.0879765395894427
1.0899315738025417
1.0918866080156402
1.0957966764418376
1.1036168132942326
1.1192570869990224
1.142717497556207
1.176930596285435
1.2238514173998043
1.2834799608993157
1.356793743890518
1.4428152492668622
1.525904203323558
1.6109481915933528
1.7126099706744868
1.822091886608016
1.9345063538611929
2.046920821114369
2.156402737047898
2.260019550342131
2.355816226783969
2.444770283479961
2.525904203323558
2.5992179863147604
2.653958944281525
2.6959921798631474
2.7390029325513194
2.7781036168132944
2.811339198435973
2.838709677419355
2.859237536656892
2.8729227761485827
2.8797653958944283
2.877810361681329
2.868035190615836
2.849462365591398
2.823069403714565
2.791788856304985
2.7468230694037143
2.6911045943304006
2.635386119257087
2.578690127077224
2.5219941348973607
2.466275659824047
2.4134897360703813
2.3626588465298144
2.312805474095797
2.264907135874878
2.219941348973607
2.182795698924731
2.1485826001955037
2.113391984359726
2.078201368523949
2.043010752688172
2.006842619745845
1.970674486803519
1.9345063538611929
1.8983382209188664
1.86119257086999
1.8240469208211143
1.7869012707722385
1.7487781036168133
1.715542521994135
1.6842619745845553
1.6480938416422288
1.608993157380254
1.5679374389051808
1.5249266862170088
1.4819159335288368
1.4389051808406648
1.3978494623655917
1.359726295210166
1.3235581622678396
1.289345063538612
1.262952101661779
1.2404692082111437
1.2150537634408602
1.1906158357771262
1.1671554252199414
1.1436950146627567
1.121212121212121
1.099706744868035
1.0811339198435972
1.064516129032258
1.0498533724340176
1.0371456500488758
1.0273704789833822
1.0254154447702837
1.0263929618768328
1.0254154447702837
1.024437927663734
1.024437927663734
1.0254154447702837
1.0273704789833822
1.0312805474095796
1.0381231671554252
1.04594330400782
1.0547409579667644
1.0664711632453567
1.0811339198435972
1.1006842619745845
1.1290322580645162
1.166177908113392
1.2150537634408602
1.2795698924731185
1.3607038123167154
1.456500488758553
1.5669599217986314
1.6881720430107527
1.8162267839687196
1.945259042033236
2.056695992179863
2.157380254154448
2.264907135874878
2.3704789833822093
2.469208211143695
2.5591397849462365
2.638318670576735
2.7067448680351904
2.764418377321604
2.812316715542522
2.849462365591398
2.875855327468231
2.8905180840664717
2.89345063538612
2.8885630498533725
2.87683284457478
2.8563049853372435
2.8289345063538613
2.7947214076246336
2.7546432062561097
2.708699902248289
2.6578690127077222
2.6050830889540566
2.550342130987292
2.495601173020528
2.44672531769306
2.401759530791789
2.3548387096774195
2.3088954056695994
2.2668621700879767
2.228739002932551
2.1945259042033234
2.1652003910068425
2.136852394916911
2.110459433040078
2.086021505376344
2.06158357771261
2.0361681329423265
2.013685239491691
1.992179863147605
1.967741935483871
1.9403714565004888
1.9100684261974583
1.87683284457478
1.8416422287390029
1.8054740957966764
1.7673509286412512
1.7282502443792769
1.689149560117302
1.651026392961877
1.6187683284457477
1.5894428152492668
1.5571847507331378
1.52297165200391
1.490713587487781
1.4604105571847508
1.4320625610948192
1.4076246334310851
1.3870967741935485
1.367546432062561
1.3499511241446724
1.335288367546432
1.3235581622678396
1.3176930596285434
1.3176930596285434
1.3235581622678396
1.3391984359726294
1.3655913978494625
1.4027370478983383
1.4516129032258065
1.512218963831867
1.58455522971652
1.6656891495601174
1.75366568914956
1.8494623655913975
1.9364613880742916
2.016617790811339
2.1065493646138806
2.19941348973607
2.289345063538612
2.3734115347018574
2.4486803519061584
2.5131964809384164
2.5640273704789838
2.601173020527859
2.625610948191593
2.6373411534701856
2.6373411534701856
2.627565982404692
2.608993157380254
2.581622678396872
2.5464320625610948
2.504398826979472
2.455522971652004
2.401759530791789
2.345063538611926
2.2883675464320627
2.233626588465298
2.1818181818181817
2.132942326490713
2.0928641251221896
2.058651026392962
2.0254154447702835
1.9951124144672527
1.967741935483871
1.9413489736070384
1.9159335288367547
1.8905180840664717
1.865102639296188
1.8406647116324533
1.8162267839687196
1.7917888563049853
1.7673509286412512
1.7468230694037146
1.7272727272727273
1.7038123167155426
1.6764418377321604
1.6471163245356797
1.616813294232649
1.5865102639296187
1.5571847507331378
1.5268817204301075
1.495601173020528
1.4643206256109482
1.4330400782013686
1.4076246334310851
1.3851417399804498
1.3607038123167154
1.3362658846529814
1.310850439882698
1.2864125122189638
1.2619745845552297
1.2365591397849462
1.2121212121212122
1.187683284457478
1.164222873900293
1.142717497556207
1.1241446725317692
1.1124144672531768
1.104594330400782
1.0928641251221896
1.0811339198435972
1.0703812316715542
1.0606060606060606
1.0518084066471165
1.0449657869012707
1.040078201368524
1.0342130987292275
1.029325513196481
1.0254154447702837
1.0254154447702837
1.0283479960899315
1.0303030303030305
1.0342130987292275
1.0410557184750733
1.0498533724340176
1.0606060606060606
1.0733137829912025
1.0909090909090908
1.115347018572825
1.1495601173020529
1.195503421309873
1.2561094819159335
1.321603128054741
1.3958944281524928
1.490713587487781
1.6021505376344083
1.7253176930596286
1.857282502443793
1.9951124144672527
2.136852394916911
2.27761485826002
2.4134897360703813
2.5425219941348973
2.659824046920821
2.750733137829912
2.825024437927664
2.898338220918866
2.9657869012707723
3.022482893450636
3.0684261974584555
3.102639296187683
3.126099706744868
3.101661779081134
3.046920821114369
3.0097751710654936
2.9765395894428157
2.940371456500489
2.9012707722385143
2.859237536656892
2.811339198435973
2.7595307917888565
2.7038123167155423
2.64613880742913
2.587487781036168
2.5288367546432062
2.4711632453567938
2.4164222873900294
2.363636363636364
2.314760508308896
2.272727272727273
2.2346041055718477
2.196480938416422
2.160312805474096
2.126099706744868
2.09188660801564
2.0576735092864125
2.0234604105571847
1.989247311827957
1.95405669599218
1.916911045943304
1.878787878787879
1.8406647116324533
1.8064516129032255
1.7732160312805474
1.7360703812316716
1.6959921798631477
1.6549364613880744
1.6129032258064515
1.56891495601173
1.525904203323558
1.4848484848484849
1.444770283479961
1.4066471163245358
1.370478983382209
1.343108504398827
1.3186705767350928
1.2913000977517106
1.262952101661779
1.2336265884652982
1.2052785923753666
1.1788856304985338
1.1534701857282503
1.1300097751710656
1.1085043988269794
1.0899315738025417
1.072336265884653
1.0606060606060606
1.0527859237536656
1.0420332355816226
1.029325513196481
1.0166177908113392
1.0048875855327468
0.9931573802541545
0.9833822091886608
0.975562072336266
0.9696969696969696
0.9648093841642228
0.9628543499511242
0.9638318670576737
0.9706744868035192
0.9824046920821116
0.9951124144672532
1.0127077223851415
1.0381231671554252
1.0742913000977516
1.121212121212121
1.1827956989247312
1.2590420332355816
1.348973607038123
1.4506353861192571
1.5610948191593352
1.6637341153470186
1.761485826001955
1.873900293255132
1.992179863147605
2.1094819159335287
2.222873900293255
2.329423264907136
2.426197458455523
2.512218963831867
2.5855327468230693
2.64613880742913
2.6940371456500487
2.730205278592375
2.750733137829912
2.760508308895406
2.383186705767351
2.4780058651026398
2.5640273704789838
2.638318670576735
2.7008797653958942
2.7536656891495603
2.795698924731183
2.820136852394917
2.833822091886608
2.841642228739003
2.841642228739003
2.834799608993157
2.819159335288368
2.795698924731183
2.764418377321604
2.7262952101661777
2.6823069403714563
2.634408602150537
2.58455522971652
2.5376344086021505
2.4916911045943304
2.458455522971652
2.4330400782013686
2.3949169110459434
2.3528836754643208
2.312805474095797
2.274682306940372
2.2404692082111435
2.210166177908113
2.179863147605083
2.150537634408602
2.1221896383186705
2.0957966764418376
2.070381231671554
2.043010752688172
2.01564027370479
1.986314760508309
1.9550342130987293
1.924731182795699
1.89247311827957
1.858260019550342
1.823069403714565
1.7869012707722385
1.7497556207233629
1.7174975562072337
1.686217008797654
1.651026392961877
1.6129032258064515
1.573802541544477
1.533724340175953
1.4946236559139785
1.457478005865103
1.4222873900293256
1.388074291300098
1.3558162267839686
1.324535679374389
1.295210166177908
1.2746823069403714
1.2580645161290325
1.2404692082111437
1.2228739002932552
1.206256109481916
1.1906158357771262
1.1759530791788857
1.164222873900293
1.1544477028347997
1.1466275659824048
1.141739980449658
1.13880742913001
1.1407624633431086
1.147605083088954
1.1534701857282503
1.1583577712609971
1.1652003910068427
1.173998044965787
1.1867057673509287
1.2043010752688172
1.2267839687194526
1.2541544477028348
1.2903225806451613
1.3362658846529814
1.393939393939394
1.4545454545454546
1.521016617790811
1.606060606060606
1.7057673509286413
1.8172043010752688
1.9374389051808407
2.06158357771261
2.187683284457478
2.312805474095797
2.4330400782013686
2.5454545454545454
2.649071358748778
2.729227761485826
2.792766373411535
2.8563049853372435
2.9159335288367547
2.9657869012707723
3.003910068426197
3.03128054740958
3.048875855327468
3.0576735092864125
3.0576735092864125
3.047898338220919
3.0283479960899315
2.99902248289345
2.962854349951124
2.920821114369501
2.870967741935484
2.812316715542522
2.748778103616813
2.681329423264907
2.610948191593353
2.539589442815249
2.4701857282502444
2.403714565004888
2.340175953079179
2.281524926686217
2.233626588465298
2.190615835777126
2.1485826001955037
2.1094819159335287
2.071358748778104
2.037145650048876
2.005865102639296
1.9745845552297163
1.943304007820137
1.9120234604105573
1.881720430107527
1.8504398826979471
1.818181818181818
1.7898338220918866
1.7634408602150538
1.7350928641251222
1.7057673509286413
1.675464320625611
1.6441837732160314
1.6109481915933528
1.5777126099706744
1.544477028347996
1.5112414467253177
1.478005865102639
1.4467253176930597
1.4213098729227762
1.3978494623655917
1.370478983382209
1.3421309872922775
1.3157380254154447
1.289345063538612
1.2639296187683284
1.2404692082111437
1.2179863147605083
1.1964809384164223
1.1749755620723363
1.155425219941349
1.1358748778103618
1.1221896383186705
1.1114369501466277
1.0977517106549364
1.083088954056696
1.0703812316715542
1.0586510263929618
1.0498533724340176
1.043010752688172
1.0381231671554252
1.035190615835777
1.035190615835777
1.0381231671554252
1.0449657869012707
1.0557184750733135
1.067448680351906
1.0821114369501466
1.1036168132942326
1.133919843597263
1.1759530791788857
1.2316715542521994
1.3020527859237536
1.388074291300098
1.4868035190615836
1.5962854349951123
1.6979472140762464
1.7976539589442817
1.9130009775171064
2.0361681329423265
2.160312805474096
2.280547409579668
2.3958944281524928
2.5034213098729228
2.6021505376344085
2.6901270772238512
2.766373411534702
2.8299120234604107
2.8797653958944283
2.9120234604105573
2.930596285434995
2.9423264907135875
2.945259042033236
2.9393939393939394
2.9227761485826003
2.8963831867057674
2.860215053763441
2.814271749755621
2.7614858260019552
2.701857282502444
2.6373411534701856
2.576735092864125
2.520039100684262
2.4604105571847508
2.401759530791789
2.3440860215053765
2.290322580645161
2.2404692082111435
2.1955034213098727
2.155425219941349
2.120234604105572
2.0869990224828934
2.056695992179863
2.0283479960899315
2.003910068426197
1.9804496578690127
1.9550342130987293
1.9286412512218964
1.900293255131965
1.870967741935484
1.8406647116324533
1.8084066471163245
1.7761485826001957
1.7429130009775171
1.70772238514174
1.672531769305963
1.643206256109482
1.616813294232649
1.5865102639296187
1.5542521994134897
1.520039100684262
1.4868035190615836
1.4535679374389052
1.4213098729227762
1.3900293255131966
1.3616813294232648
1.335288367546432
1.3098729227761483
1.284457478005865
1.2658846529814272
1.2512218963831867
1.2326490713587488
1.2130987292277615
1.1915933528836755
1.1691104594330402
1.147605083088954
1.1280547409579669
1.1085043988269794
1.0909090909090908
1.075268817204301
1.0635386119257086
1.0576735092864125
1.0576735092864125
1.0557184750733135
1.053763440860215
1.053763440860215
1.0557184750733135
1.0576735092864125
1.06158357771261
1.067448680351906
1.0762463343108504
1.0909090909090908
1.115347018572825
1.1495601173020529
1.1906158357771262
1.241446725317693
1.3098729227761483
1.3958944281524928
1.4975562072336266
1.6129032258064515
1.7390029325513197
1.871945259042033
1.9960899315738023
2.113391984359726
2.236559139784946
2.357771260997068
2.4565004887585533
2.539589442815249
2.625610948191593
2.705767350928641
2.776148582600196
2.834799608993157
2.881720430107527
2.917888563049853
2.943304007820137
2.9579667644183774
2.960899315738025
2.9530791788856305
2.936461388074292
2.911045943304008
2.877810361681329
2.835777126099707
2.787878787878788
2.736070381231672
2.679374389051808
2.619745845552297
2.558162267839687
2.498533724340176
2.4408602150537635
2.3851417399804498
2.332355816226784
2.2873900293255134
2.249266862170088
2.2130987292277613
2.179863147605083
2.1495601173020527
2.120234604105572
2.0928641251221896
2.067448680351906
2.042033235581622
2.016617790811339
1.9902248289345064
1.963831867057673
1.9364613880742916
1.9120234604105573
1.8885630498533723
1.8602150537634408
1.827956989247312
1.793743890518084
1.7556207233626588
1.715542521994135
1.6744868035190617
1.6334310850439884
1.5933528836754642
1.555229716520039
1.5190615835777126
1.490713587487781
1.466275659824047
1.4389051808406648
1.4115347018572826
1.3841642228739004
1.356793743890518
1.3313782991202343
1.3118279569892473
1.2991202346041055
1.2942326490713587
1.300097751710655
1.3186705767350928
1.3509286412512218
1.3900293255131966
1.4379276637341154
1.501466275659824
1.5796676441837731
1.6686217008797657
1.7673509286412512
1.8729227761485825
1.9804496578690127
2.086021505376344
2.185728250244379
2.27761485826002
2.357771260997068
2.4164222873900294
2.4613880742913
2.5024437927663734
2.533724340175953
2.555229716520039
2.5669599217986314
2.567937438905181
2.558162267839687
2.5376344086021505
2.50733137829912
2.469208211143695
2.4252199413489737
2.3743890518084068
2.3255131964809386
2.27761485826002
2.2248289345063537
2.172043010752688
2.120234604105572
2.071358748778104
2.027370478983382
1.988269794721408
1.9530791788856303
1.9227761485826005
1.895405669599218
1.8729227761485825
1.8543499511241448
1.836754643206256
1.818181818181818
1.7976539589442817
1.7771260997067448
1.7556207233626588
1.7350928641251222
1.7135874877810362
1.6911045943304008
1.6686217008797657
1.643206256109482
1.6158357771260996
1.5865102639296187
1.5591397849462365
1.5327468230694037
1.501466275659824
1.4672531769305963
1.4330400782013686
1.3988269794721409
1.3655913978494625
1.332355816226784
1.3010752688172045
1.2697947214076246
1.2404692082111437
1.2121212121212122
1.1906158357771262
1.1720430107526882
1.1515151515151516
1.130987292277615
1.1114369501466277
1.0918866080156402
1.0733137829912025
1.0557184750733135
1.040078201368524
1.0254154447702837
1.0117302052785924
1.0009775171065494
0.9951124144672532
0.9931573802541545
0.9902248289345064
0.9872922776148584
0.9843597262952102
0.9804496578690128
0.978494623655914
0.9794721407624634
0.981427174975562
0.9853372434017597
0.9902248289345064
0.997067448680352
1.0058651026392962
1.0166177908113392
1.029325513196481
1.0439882697947214
1.0654936461388074
1.0948191593352885
1.1358748778103618
1.1896383186705768
1.2580645161290325
1.3421309872922775
1.4389051808406648
1.5483870967741935
1.6686217008797657
1.7790811339198436
1.8856304985337244
2.007820136852395
2.136852394916911
2.264907135874878
2.3900293255131966
2.509286412512219
2.619745845552297
2.718475073313783
2.8025415444770285
2.874877810361681
2.936461388074292
2.9853372434017595
3.01564027370479
3.032258064516129
3.046920821114369
3.0547409579667644
3.0518084066471163
3.038123167155425
3.0146627565982405
2.979472140762464
2.9345063538611926
2.8797653958944283
2.8181818181818183
2.7497556207233624
2.684261974584555
2.621700879765396
2.555229716520039
2.487781036168133
2.4222873900293256
2.360703812316716
2.304007820136853
2.2531769305962857
2.207233626588465
2.164222873900293
2.1251221896383186
2.088954056695992
2.0557184750733137
2.027370478983382
2.0
1.9696969696969695
1.93841642228739
1.906158357771261
1.873900293255132
1.839687194525904
1.804496578690127
1.7683284457478006
1.7311827956989247
1.6930596285434996
1.6529814271749756
1.619745845552297
1.5894428152492668
1.5542521994134897
1.517106549364614
1.478983382209189
1.4408602150537635
1.4037145650048877
