ppg
1.881720430107527
2.0664711632453567
2.241446725317693
2.43108504398827
2.6080156402737047
2.755620723362659
2.865102639296188
2.9335288367546437
2.962854349951124
2.9579667644183774
2.9227761485826003
2.865102639296188
2.788856304985337
2.7096774193548385
2.6265884652981426
2.5317693059628543
2.43108504398827
2.3274682306940373
2.222873900293255
2.121212121212121
2.022482893450636
1.9266862170087975
1.833822091886608
1.7448680351906158
1.6588465298142718
1.576735092864125
1.509286412512219
1.4516129032258065
1.3919843597262953
1.3362658846529814
1.2873900293255132
1.2473118279569892
1.217008797653959
1.1964809384164223
1.1857282502443791
1.1837732160312806
1.1886608015640274
1.1994134897360704
1.2130987292277615
1.2287390029325511
1.24633431085044
1.2649071358748778
1.2834799608993157
1.3010752688172045
1.3176930596285434
1.3333333333333333
1.3470185728250244
1.3577712609970674
1.3665689149560116
1.3724340175953078
1.3763440860215057
1.3792766373411536
1.3812316715542523
1.3812316715542523
1.3792766373411536
1.375366568914956
1.370478983382209
1.3665689149560116
1.3616813294232648
1.3548387096774193
1.3450635386119256
1.3333333333333333
1.3235581622678396
1.321603128054741
1.3333333333333333
1.3685239491691104
1.4389051808406648
1.5513196480938416
1.7057673509286413
1.8944281524926687
2.102639296187683
2.313782991202346
2.509286412512219
2.675464320625611
2.8044965786901277
2.89345063538612
2.940371456500489
2.95405669599218
2.943304007820137
2.909090909090909
2.855327468230694
2.7859237536656893
2.704789833822092
2.6158357771261
2.5219941348973607
2.426197458455523
2.3304007820136854
2.236559139784946
2.155425219941349
2.0821114369501466
2.004887585532747
1.927663734115347
1.8523949169110456
1.780058651026393
1.710654936461388
1.6441837732160314
1.5806451612903225
1.520039100684262
1.4633431085043989
1.4105571847507332
1.364613880742913
1.3304007820136852
1.305962854349951
1.2864125122189638
1.2746823069403714
1.270772238514174
1.2756598240469208
1.2883675464320623
1.3079178885630498
1.3313782991202343
1.3577712609970674
1.3851417399804498
1.4115347018572826
1.4349951124144673
1.4535679374389052
1.4701857282502444
1.482893450635386
1.490713587487781
1.4926686217008798
1.490713587487781
1.4848484848484849
1.47702834799609
1.469208211143695
1.4623655913978495
1.456500488758553
1.4535679374389052
1.452590420332356
1.4496578690127078
1.4457478005865103
1.4408602150537635
1.439882697947214
1.4486803519061584
1.47702834799609
1.5366568914956011
1.635386119257087
1.7781036168132942
1.9618768328445748
2.1739980449657867
2.366568914956012
2.539589442815249
2.717497556207233
2.8719452590420333
2.988269794721408
3.058651026392962
3.0840664711632453
3.069403714565005
3.021505376344086
2.9472140762463344
2.854349951124145
2.748778103616813
2.6471163245356792
2.547409579667644
2.436950146627566
2.3225806451612905
2.209188660801564
2.0977517106549364
1.9902248289345064
1.8856304985337244
1.7849462365591398
1.6871945259042034
1.5913978494623655
1.499511241446725
1.4115347018572826
1.3401759530791788
1.2776148582600195
1.2130987292277615
1.1515151515151516
1.0957966764418376
1.0488758553274682
1.0117302052785924
0.9843597262952102
0.9657869012707724
0.9560117302052786
0.9550342130987292
0.9608993157380256
0.9726295210166178
0.9882697947214076
1.0068426197458455
1.0283479960899315
1.0518084066471165
1.0762463343108504
1.099706744868035
1.121212121212121
1.141739980449658
1.1593352883675463
1.1749755620723363
1.187683284457478
1.198435972629521
1.2082111436950147
1.217008797653959
1.2228739002932552
1.227761485826002
1.2316715542521994
1.2346041055718475
1.2375366568914956
1.2404692082111437
1.2404692082111437
1.2375366568914956
1.2316715542521994
1.2287390029325511
1.2336265884652982
1.2531769305962854
1.2991202346041055
1.3812316715542523
1.5053763440860215
1.6705767350928642
1.857282502443793
2.050830889540567
2.247311827956989
2.4301075268817205
2.5855327468230693
2.705767350928641
2.787878787878788
2.8289345063538613
2.8377321603128056
2.8240469208211145
2.7869012707722387
2.730205278592375
2.658846529814272
2.576735092864125
2.487781036168133
2.3949169110459434
2.2991202346041058
2.203323558162268
2.10850439882698
2.0254154447702835
1.9501466275659824
1.869012707722385
1.7878787878787878
1.70772238514174
1.6304985337243405
1.5562072336265884
1.4858260019550342
1.4203323558162269
1.3607038123167154
1.3088954056695992
1.2639296187683284
1.2267839687194526
1.2023460410557183
1.1867057673509287
1.1759530791788857
1.1720430107526882
1.173998044965787
1.1808406647116323
1.1925708699902249
1.2082111436950147
1.2258064516129032
1.2443792766373412
1.262952101661779
1.2805474095796676
1.2961876832844574
1.3098729227761483
1.321603128054741
1.3304007820136852
1.3362658846529814
1.3401759530791788
1.3411534701857282
1.3411534701857282
1.3401759530791788
1.3391984359726294
1.33822091886608
1.33822091886608
1.3391984359726294
1.3401759530791788
1.3411534701857282
1.3391984359726294
1.335288367546432
1.3313782991202343
1.3304007820136852
1.3411534701857282
1.3743890518084063
1.4379276637341154
1.5386119257087
1.6774193548387095
1.8484848484848484
2.0117302052785924
2.16911045943304
2.343108504398827
2.509286412512219
2.650048875855328
2.7565982404692084
2.825024437927664
2.8563049853372435
2.855327468230694
2.8260019550342133
2.774193548387097
2.705767350928641
2.625610948191593
2.547409579667644
2.469208211143695
2.3812316715542523
2.289345063538612
2.196480938416422
2.1065493646138806
2.018572825024438
1.9345063538611929
1.8523949169110456
1.7732160312805474
1.6979472140762464
1.624633431085044
1.563049853372434
1.509286412512219
1.452590420332356
1.3978494623655917
1.3470185728250244
1.303030303030303
1.2658846529814272
1.2365591397849462
1.2160312805474096
1.203323558162268
1.198435972629521
1.2003910068426198
1.209188660801564
1.2218963831867058
1.2365591397849462
1.2541544477028348
1.273704789833822
1.2942326490713587
1.3157380254154447
1.335288367546432
1.35386119257087
1.3695014662756595
1.380254154447703
1.388074291300098
1.3919843597262953
1.393939393939394
1.393939393939394
1.3900293255131966
1.3841642228739004
1.3773216031280548
1.3695014662756595
1.359726295210166
1.348973607038123
1.33822091886608
1.324535679374389
1.3069403714565004
1.289345063538612
1.2776148582600195
1.2766373411534702
1.2942326490713587
1.3421309872922775
1.4301075268817205
1.560117302052786
1.7272727272727273
1.920821114369501
2.124144672531769
2.318670576735093
2.489736070381232
2.627565982404692
2.727272727272727
2.78494623655914
2.8084066471163247
2.8084066471163247
2.7859237536656893
2.742913000977517
2.6832844574780057
2.6099706744868034
2.5288367546432062
2.4408602150537635
2.3499511241446727
2.2580645161290325
2.167155425219941
2.0879765395894427
2.016617790811339
1.9413489736070384
1.868035190615836
1.7986314760508308
1.7341153470185728
1.6735092864125125
1.616813294232649
1.5650048875855327
1.5180840664711632
1.4760508308895406
1.439882697947214
1.409579667644184
1.3890518084066472
1.3743890518084063
1.3626588465298142
1.35386119257087
1.3479960899315735
1.346041055718475
1.3470185728250244
1.3509286412512218
1.3577712609970674
1.364613880742913
1.3724340175953078
1.3782991202346042
1.383186705767351
1.3870967741935485
1.388074291300098
1.3861192570869991
1.3822091886608017
1.375366568914956
1.3665689149560116
1.3558162267839686
1.3450635386119256
1.335288367546432
1.3255131964809383
1.3157380254154447
1.3088954056695992
1.3049853372434017
1.3020527859237536
1.2971652003910068
1.289345063538612
1.2795698924731185
1.270772238514174
1.2697947214076246
1.2864125122189638
1.3313782991202343
1.412512218963832
1.5317693059628543
1.6871945259042034
1.8416422287390029
1.997067448680352
2.1739980449657867
2.347996089931574
2.501466275659824
2.622678396871945
2.70772238514174
2.7546432062561097
2.7673509286412514
2.750733137829912
2.7096774193548385
2.650048875855328
2.576735092864125
2.5034213098729228
2.429130009775171
2.345063538611926
2.2561094819159337
2.1652003910068425
2.075268817204301
1.9872922776148585
1.903225806451613
1.8211143695014664
1.7429130009775171
1.667644183773216
1.595307917888563
1.5356793743890518
1.4819159335288368
1.423264907135875
1.3636363636363635
1.3069403714565004
1.2541544477028348
1.2072336265884651
1.1681329423264908
1.1378299120234605
1.1143695014662756
1.099706744868035
1.0928641251221896
1.0928641251221896
1.0987292277614855
1.110459433040078
1.126099706744868
1.1456500488758554
1.1681329423264908
1.1915933528836755
1.2150537634408602
1.2375366568914956
1.2570869990224829
1.273704789833822
1.2864125122189638
1.2942326490713587
1.2834799608993157
1.262952101661779
1.2502443792766371
1.2404692082111437
1.2316715542521994
1.224828934506354
1.2209188660801564
1.2189638318670577
1.2179863147605083
1.2179863147605083
1.2179863147605083
1.219941348973607
1.2297165200391007
1.2482893450635386
1.2854349951124144
1.3548387096774193
1.4623655913978495
1.6109481915933528
1.793743890518084
2.0009775171065494
2.2160312805474094
2.4222873900293256
2.603128054740958
2.748778103616813
2.854349951124145
2.913978494623656
2.9374389051808407
2.9345063538611926
2.906158357771261
2.854349951124145
2.7839687194525906
2.6989247311827955
2.6050830889540566
2.505376344086021
2.401759530791789
2.297165200391007
2.193548387096774
2.0928641251221896
2.005865102639296
1.927663734115347
1.8435972629521016
1.758553274682307
1.675464320625611
1.595307917888563
1.5190615835777126
1.4486803519061584
1.3861192570869991
1.3304007820136852
1.2834799608993157
1.2443792766373412
1.217008797653959
1.198435972629521
1.181818181818182
1.1691104594330402
1.1612903225806452
1.1583577712609971
1.160312805474096
1.166177908113392
1.1759530791788857
1.187683284457478
1.2023460410557183
1.2189638318670577
1.2355816226783969
1.252199413489736
1.2688172043010753
1.284457478005865
1.2981427174975562
1.3098729227761483
1.3196480938416422
1.3264907135874875
1.3304007820136852
1.3313782991202343
1.3313782991202343
1.3294232649071358
1.327468230694037
1.3264907135874875
1.3264907135874875
1.3235581622678396
1.3176930596285434
1.3079178885630498
1.295210166177908
1.2834799608993157
1.281524926686217
1.2991202346041055
1.348973607038123
1.439882697947214
1.5747800586510263
1.7497556207233629
1.921798631476051
2.090909090909091
2.280547409579668
2.463343108504399
2.6207233626588464
2.740957966764418
2.8211143695014664
2.86217008797654
2.868035190615836
2.843597262952102
2.795698924731183
2.730205278592375
2.6608015640273703
2.5865102639296187
2.5024437927663734
2.4134897360703813
2.32355816226784
2.236559139784946
2.15347018572825
2.0772238514174
2.007820136852395
1.9442815249266865
1.8875855327468232
1.8377321603128052
1.796676441837732
1.7624633431085044
1.7282502443792769
1.6959921798631477
1.6666666666666667
1.6412512218963833
1.6187683284457477
1.5992179863147604
1.5826001955034212
1.56891495601173
1.5571847507331378
1.5454545454545454
1.5347018572825024
1.5268817204301075
1.520039100684262
1.5102639296187683
1.498533724340176
1.4848484848484849
1.4701857282502444
1.4535679374389052
1.435972629521017
1.4173998044965788
1.3988269794721409
1.3792766373411536
1.359726295210166
1.3450635386119256
1.332355816226784
1.316715542521994
1.300097751710655
1.284457478005865
1.270772238514174
1.2580645161290325
1.24633431085044
1.2355816226783969
1.224828934506354
1.2121212121212122
1.198435972629521
1.1896383186705768
1.1896383186705768
1.206256109481916
1.249266862170088
1.3284457478005864
1.4506353861192571
1.6138807429130009
1.8084066471163245
2.0195503421309877
2.2297165200391005
2.4222873900293256
2.5835777126099706
2.704789833822092
2.7781036168132944
2.812316715542522
2.819159335288368
2.798631476050831
2.752688172043011
2.686217008797654
2.6041055718475072
2.5102639296187683
2.409579667644184
2.3059628543499517
2.201368523949169
2.0987292277614857
1.9990224828934504
1.913978494623656
1.836754643206256
1.7556207233626588
1.6744868035190617
1.5943304007820136
1.5151515151515151
1.4389051808406648
1.3655913978494625
1.2971652003910068
1.2336265884652982
1.176930596285435
1.1270772238514175
1.0909090909090908
1.0654936461388074
1.043010752688172
1.0273704789833822
1.0205278592375366
1.021505376344086
1.0303030303030305
1.04594330400782
1.067448680351906
1.0928641251221896
1.121212121212121
1.1515151515151516
1.181818181818182
1.209188660801564
1.2336265884652982
1.2580645161290325
1.2805474095796676
1.3010752688172045
1.3186705767350928
1.332355816226784
1.343108504398827
1.3509286412512218
1.3577712609970674
1.3626588465298142
1.3665689149560116
1.3714565004887584
1.375366568914956
1.3773216031280548
1.3773216031280548
1.375366568914956
1.3714565004887584
1.3714565004887584
1.3841642228739004
1.418377321603128
1.4858260019550342
1.5923753665689149
1.739980449657869
1.9227761485826005
2.096774193548387
2.264907135874878
2.4516129032258065
2.63049853372434
2.782991202346041
2.898338220918866
2.973607038123167
3.0097751710654936
3.010752688172043
2.981427174975562
2.927663734115347
2.854349951124145
2.776148582600196
2.69208211143695
2.5962854349951123
2.493646138807429
2.389051808406647
2.2844574780058653
2.1818181818181817
2.0821114369501466
1.9853372434017595
1.89247311827957
1.8025415444770283
1.715542521994135
1.632453567937439
1.563049853372434
1.5024437927663734
1.4389051808406648
1.3782991202346042
1.3235581622678396
1.2766373411534702
1.2355816226783969
1.2023460410557183
1.181818181818182
1.1700879765395895
1.166177908113392
1.1681329423264908
1.1759530791788857
1.1867057673509287
1.2003910068426198
1.2160312805474096
1.2336265884652982
1.2512218963831867
1.267839687194526
1.2825024437927663
1.295210166177908
1.305962854349951
1.3128054740957966
1.3157380254154447
1.3157380254154447
1.3157380254154447
1.3147605083088951
1.3118279569892473
1.3069403714565004
1.3010752688172045
1.2942326490713587
1.2864125122189638
1.278592375366569
1.2697947214076246
1.2580645161290325
1.2434017595307918
1.2287390029325511
1.219941348973607
1.2209188660801564
1.238514173998045
1.2854349951124144
1.3714565004887584
1.499511241446725
1.6666666666666667
1.8602150537634408
2.065493646138808
2.2639296187683287
2.4408602150537635
2.58455522971652
2.6901270772238512
2.7517106549364616
2.7781036168132944
2.7810361681329425
2.7595307917888565
2.7155425219941347
2.653958944281525
2.579667644183773
2.495601173020528
2.404692082111437
2.3118279569892475
2.217986314760508
2.1251221896383186
2.0449657869012707
1.9716520039100685
1.8944281524926687
1.8172043010752688
1.7419354838709675
1.667644183773216
1.5962854349951123
1.5278592375366569
1.4623655913978495
1.3998044965786902
1.3421309872922775
1.29227761485826
1.2551319648093842
1.2287390029325511
1.2052785923753666
1.1896383186705768
1.1827956989247312
1.18475073313783
1.195503421309873
1.2130987292277615
1.2355816226783969
1.262952101661779
1.2932551319648091
1.324535679374389
1.3548387096774193
1.380254154447703
1.401759530791789
1.4193548387096775
1.4330400782013686
1.4408602150537635
1.4437927663734116
1.4418377321603129
1.436950146627566
1.43108504398827
1.4242424242424243
1.418377321603128
1.4134897360703813
1.4115347018572826
1.4105571847507332
1.4086021505376345
1.4056695992179864
1.4007820136852396
1.3958944281524928
1.3958944281524928
1.409579667644184
1.447702834799609
1.521994134897361
1.640273704789834
1.8025415444770283
2.0
2.185728250244379
2.361681329423265
2.5513196480938416
2.7262952101661777
2.866080156402737
2.962854349951124
3.0127077223851417
3.0205278592375366
2.992179863147605
2.9345063538611926
2.855327468230694
2.760508308895406
2.6666666666666665
2.572825024437928
2.4672531769305963
2.356793743890518
2.2453567937438903
2.134897360703812
2.0283479960899315
1.9257086999022484
1.8269794721407624
1.732160312805474
1.640273704789834
1.552297165200391
1.4672531769305963
1.3978494623655917
1.3372434017595307
1.2727272727272727
1.2111436950146628
1.155425219941349
1.1065493646138806
1.0664711632453567
1.035190615835777
1.0117302052785924
0.997067448680352
0.9912023460410556
0.9912023460410556
0.997067448680352
1.007820136852395
1.0224828934506354
1.040078201368524
1.0596285434995112
1.0811339198435972
1.1026392961876832
1.1241446725317692
1.144672531769306
1.164222873900293
1.181818181818182
1.1974584555229717
1.2101661779081134
1.2209188660801564
1.23069403714565
1.2375366568914956
1.2424242424242424
1.24633431085044
1.249266862170088
1.252199413489736
1.2531769305962854
1.252199413489736
1.2473118279569892
1.2394916911045943
1.2326490713587488
1.2326490713587488
1.2434017595307918
1.2756598240469208
1.3401759530791788
1.444770283479961
1.590420332355816
1.7702834799608993
1.9726295210166176
2.1788856304985336
2.3734115347018574
2.5405669599217986
2.6725317693059627
2.763440860215054
2.812316715542522
2.8269794721407626
2.81622678396872
2.782013685239492
2.7253176930596283
2.6529814271749754
2.567937438905181
2.4750733137829912
2.378299120234604
2.2795698924731185
2.1818181818181817
2.085043988269794
2.0009775171065494
1.924731182795699
1.8435972629521016
1.761485826001955
1.6803519061583578
1.6011730205278591
1.5239491691104594
1.4506353861192571
1.380254154447703
1.3157380254154447
1.2580645161290325
1.2072336265884651
1.1652003910068427
1.1358748778103618
1.1163245356793745
1.099706744868035
1.088954056695992
1.0850439882697946
1.0869990224828934
1.0948191593352885
1.1065493646138806
1.1221896383186705
1.1397849462365592
1.1593352883675463
1.1788856304985338
1.1974584555229717
1.2140762463343109
1.2297165200391007
1.2434017595307918
1.2551319648093842
1.262952101661779
1.267839687194526
1.270772238514174
1.2717497556207231
1.270772238514174
1.2697947214076246
1.2697947214076246
1.2688172043010753
1.2697947214076246
1.2697947214076246
1.267839687194526
1.2619745845552297
1.2541544477028348
1.249266862170088
1.2541544477028348
1.2795698924731185
1.335288367546432
1.4301075268817205
1.565982404692082
1.7390029325513197
1.9071358748778104
2.071358748778104
2.2561094819159337
2.434017595307918
2.587487781036168
2.705767350928641
2.7839687194525906
2.822091886608016
2.825024437927664
2.798631476050831
2.748778103616813
2.679374389051808
2.598240469208211
2.50733137829912
2.4134897360703813
2.318670576735093
2.2248289345063537
2.132942326490713
2.042033235581622
1.95405669599218
1.868035190615836
1.7849462365591398
1.7057673509286413
1.629521016617791
1.5562072336265884
1.4946236559139785
1.4418377321603129
1.3870967741935485
1.3343108504398826
1.2864125122189638
1.2453567937438903
1.2101661779081134
1.1808406647116323
1.1593352883675463
1.1456500488758554
1.1397849462365592
1.1407624633431086
1.1466275659824048
1.1573802541544478
1.1730205278592376
1.1915933528836755
1.2130987292277615
1.2365591397849462
1.260019550342131
1.281524926686217
1.3010752688172045
1.3176930596285434
1.3313782991202343
1.3411534701857282
1.3479960899315735
1.3528836754643203
1.3548387096774193
1.35386119257087
1.3499511241446724
1.3440860215053765
1.3372434017595307
1.3284457478005864
1.3186705767350928
1.305962854349951
1.2913000977517106
1.2746823069403714
1.2609970674486803
1.2561094819159335
1.2649071358748778
1.2981427174975562
1.3665689149560116
1.47702834799609
1.629521016617791
1.8162267839687196
2.022482893450636
2.228739002932551
2.419354838709677
2.579667644183773
2.7008797653958942
2.7810361681329425
2.820136852394917
2.8269794721407626
2.8103616813294234
2.771260997067449
2.713587487781036
2.641251221896383
2.558162267839687
2.4682306940371457
2.375366568914956
2.2795698924731185
2.1837732160312804
2.088954056695992
2.005865102639296
1.9296187683284456
1.8484848484848484
1.7653958944281525
1.6852394916911049
1.6080156402737047
1.5347018572825024
1.4672531769305963
1.4066471163245358
1.3528836754643203
1.3069403714565004
1.2688172043010753
1.2404692082111437
1.2218963831867058
1.2121212121212122
1.2052785923753666
1.203323558162268
1.206256109481916
1.2130987292277615
1.2228739002932552
1.2355816226783969
1.2502443792766371
1.2649071358748778
1.2795698924731185
1.2932551319648091
1.305962854349951
1.316715542521994
1.3255131964809383
1.332355816226784
1.3362658846529814
1.33822091886608
1.33822091886608
1.3362658846529814
1.3313782991202343
1.3255131964809383
1.3196480938416422
1.3128054740957966
1.3049853372434017
1.2991202346041055
1.2932551319648091
1.2834799608993157
1.270772238514174
1.2580645161290325
1.252199413489736
1.2609970674486803
1.295210166177908
1.364613880742913
1.4750733137829912
1.624633431085044
1.8035190615835777
1.9716520039100685
2.129032258064516
2.2981427174975564
2.453567937438905
2.5806451612903225
2.6725317693059627
2.7262952101661777
2.745845552297165
2.7341153470185726
2.696969696969697
2.6402737047898337
2.5698924731182795
2.4887585532746823
2.410557184750733
2.333333333333333
2.247311827956989
2.157380254154448
2.067448680351906
1.9794721407624636
1.8934506353861196
1.8084066471163245
1.7272727272727273
1.6490713587487782
1.5728250244379276
1.500488758553275
1.439882697947214
1.3870967741935485
1.3313782991202343
1.278592375366569
1.2297165200391007
1.187683284457478
1.152492668621701
1.1251221896383188
1.104594330400782
1.0909090909090908
1.0840664711632453
1.0840664711632453
1.088954056695992
1.0977517106549364
1.110459433040078
1.1251221896383188
1.141739980449658
1.1593352883675463
1.176930596285435
1.1925708699902249
1.2082111436950147
1.2218963831867058
1.2326490713587488
1.2404692082111437
1.2473118279569892
1.2531769305962854
1.2590420332355816
1.2619745845552297
1.2639296187683284
1.2658846529814272
1.267839687194526
1.267839687194526
1.2658846529814272
1.2609970674486803
1.2541544477028348
1.2482893450635386
1.2502443792766371
1.2697947214076246
1.3040078201368523
1.3626588465298142
1.4613880742913
1.6001955034213098
1.7732160312805474
1.967741935483871
2.1681329423264906
2.356793743890518
2.5210166177908118
2.650048875855328
2.739980449657869
2.790811339198436
2.806451612903226
2.7947214076246336
2.7595307917888565
2.704789833822092
2.635386119257087
2.5542521994134897
2.466275659824047
2.372434017595308
2.2766373411534704
2.1808406647116323
2.085043988269794
1.991202346041056
1.8993157380254155
1.8211143695014664
1.7497556207233629
1.6735092864125125
1.5972629521016617
1.52297165200391
1.4516129032258065
1.3851417399804498
1.324535679374389
1.270772238514174
1.224828934506354
1.187683284457478
1.1593352883675463
1.142717497556207
1.133919843597263
1.1290322580645162
1.1290322580645162
1.133919843597263
1.1436950146627567
1.1573802541544478
1.1730205278592376
1.1906158357771262
1.2082111436950147
1.224828934506354
1.2404692082111437
1.2541544477028348
1.2658846529814272
1.2756598240469208
1.2825024437927663
1.2864125122189638
1.289345063538612
1.289345063538612
1.2883675464320623
1.2864125122189638
1.2854349951124144
1.284457478005865
1.284457478005865
1.2834799608993157
1.2825024437927663
1.2805474095796676
1.2746823069403714
1.2658846529814272
1.2580645161290325
1.2590420332355816
1.281524926686217
1.327468230694037
1.412512218963832
1.5532746823069403
1.737047898338221
1.949169110459433
2.1700879765395893
2.3548387096774195
2.50733137829912
2.650048875855328
2.763440860215054
2.838709677419355
2.875855327468231
2.877810361681329
2.8514173998044967
2.8025415444770285
2.736070381231672
2.656891495601173
2.56891495601173
2.4858260019550342
2.403714565004888
