ppg
1.409579667644184
1.3890518084066472
1.3695014662756595
1.3519061583577712
1.335288367546432
1.3196480938416422
1.3088954056695992
1.3010752688172045
1.29227761485826
1.2825024437927663
1.273704789833822
1.2658846529814272
1.2590420332355816
1.2531769305962854
1.2482893450635386
1.2443792766373412
1.2424242424242424
1.241446725317693
1.2424242424242424
1.2443792766373412
1.2443792766373412
1.2443792766373412
1.2443792766373412
1.2443792766373412
1.2443792766373412
1.2443792766373412
1.2453567937438903
1.24633431085044
1.24633431085044
1.24633431085044
1.2453567937438903
1.24633431085044
1.2482893450635386
1.2482893450635386
1.2473118279569892
1.24633431085044
1.2453567937438903
1.2453567937438903
1.2453567937438903
1.2453567937438903
1.2453567937438903
1.2453567937438903
1.2453567937438903
1.24633431085044
1.2473118279569892
1.24633431085044
1.2443792766373412
1.2434017595307918
1.2453567937438903
1.2551319648093842
1.2756598240469208
1.3128054740957966
1.370478983382209
1.4516129032258065
1.5562072336265884
1.6823069403714566
1.8054740957966764
1.9296187683284456
2.0762463343108504
2.23069403714565
2.3841642228739004
2.527859237536657
2.656891495601173
2.768328445747801
2.860215053763441
2.932551319648094
2.986314760508309
3.0234604105571847
3.0410557184750733
3.0439882697947214
3.040078201368524
3.0283479960899315
3.0087976539589443
2.979472140762464
2.9423264907135875
2.8963831867057674
2.841642228739003
2.779081133919844
2.7096774193548385
2.635386119257087
2.557184750733138
2.482893450635386
2.4115347018572826
2.3362658846529816
2.260019550342131
2.187683284457478
2.120234604105572
2.059628543499511
2.006842619745845
1.959921798631476
1.919843597262952
1.8856304985337244
1.855327468230694
1.8299120234604105
1.8084066471163245
1.7869012707722385
1.7653958944281525
1.7458455522971652
1.726295210166178
1.7067448680351909
1.6881720430107527
1.6686217008797657
1.6480938416422288
1.6256109481915937
1.6021505376344083
1.576735092864125
1.555229716520039
1.5347018572825024
1.5112414467253177
1.4858260019550342
1.4594330400782014
1.4330400782013686
1.4076246334310851
1.3822091886608017
1.3577712609970674
1.335288367546432
1.3147605083088951
1.2961876832844574
1.2834799608993157
1.273704789833822
1.2619745845552297
1.2512218963831867
1.241446725317693
1.2326490713587488
1.2238514173998043
1.2160312805474096
1.2082111436950147
1.2003910068426198
1.1925708699902249
1.1867057673509287
1.181818181818182
1.1798631476050832
1.1808406647116323
1.1798631476050832
1.1788856304985338
1.1788856304985338
1.1788856304985338
1.1798631476050832
1.1808406647116323
1.1798631476050832
1.1788856304985338
1.1788856304985338
1.1788856304985338
1.1798631476050832
1.181818181818182
1.1827956989247312
1.1827956989247312
1.181818181818182
1.1808406647116323
1.1788856304985338
1.176930596285435
1.1749755620723363
1.1730205278592376
1.1720430107526882
1.1720430107526882
1.1720430107526882
1.1749755620723363
1.1788856304985338
1.181818181818182
1.1827956989247312
1.1827956989247312
1.1827956989247312
1.1837732160312806
1.1857282502443791
1.1915933528836755
1.206256109481916
1.2346041055718475
1.2805474095796676
1.3362658846529814
1.4056695992179864
1.504398826979472
1.6285434995112416
1.7712609970674489
1.9257086999022484
2.085043988269794
2.242424242424242
2.3919843597262958
2.527859237536657
2.6471163245356792
2.747800586510264
2.827956989247312
2.8807429130009776
2.913000977517106
2.93841642228739
2.9530791788856305
2.9579667644183774
2.95405669599218
2.941348973607038
2.920821114369501
2.89247311827957
2.854349951124145
2.807429130009776
2.750733137829912
2.6911045943304006
2.6285434995112413
2.557184750733138
2.479960899315738
2.39980449657869
2.320625610948192
2.242424242424242
2.167155425219941
2.0977517106549364
2.035190615835777
1.978494623655914
1.9296187683284456
1.8866080156402736
1.8533724340175952
1.826001955034213
1.801564027370479
1.7790811339198436
1.7595307917888563
1.7419354838709675
1.7253176930596286
1.7096774193548387
1.694037145650049
1.6774193548387095
1.6598240469208212
1.640273704789834
1.6226783968719452
1.6050830889540566
1.5835777126099706
1.5591397849462365
1.5347018572825024
1.5102639296187683
1.4858260019550342
1.4613880742913
1.4379276637341154
1.41544477028348
1.393939393939394
1.3743890518084063
1.3587487781036167
1.346041055718475
1.3313782991202343
1.3147605083088951
1.2991202346041055
1.284457478005865
1.2697947214076246
1.2570869990224829
1.24633431085044
1.1945259042033236
1.1231671554252198
1.083088954056696
1.0596285434995112
1.0469208211143697
1.0410557184750733
1.0361681329423265
1.0312805474095796
1.0263929618768328
1.021505376344086
1.0166177908113392
1.0127077223851415
1.0087976539589445
1.0058651026392962
1.0039100684261977
1.0019550342130987
1.0019550342130987
1.0039100684261977
1.0039100684261977
1.002932551319648
1.0009775171065494
0.9990224828934506
0.9980449657869012
0.9960899315738024
0.9951124144672532
0.9951124144672532
0.9951124144672532
0.9960899315738024
0.9960899315738024
0.9990224828934506
1.002932551319648
1.0058651026392962
1.007820136852395
1.0087976539589445
1.007820136852395
1.0068426197458455
1.0048875855327468
1.002932551319648
1.002932551319648
1.0087976539589445
1.024437927663734
1.0478983382209188
1.0840664711632453
1.1436950146627567
1.2287390029325511
1.3411534701857282
1.4760508308895406
1.629521016617791
1.793743890518084
1.9618768328445748
2.126099706744868
2.280547409579668
2.420332355816227
2.5425219941348973
2.631476050830889
2.696969696969697
2.7565982404692084
2.803519061583578
2.8367546432062563
2.8563049853372435
2.863147605083089
2.857282502443793
2.8396871945259043
2.811339198435973
2.773216031280548
2.7262952101661777
2.675464320625611
2.619745845552297
2.555229716520039
2.482893450635386
2.4056695992179864
2.324535679374389
2.2404692082111435
2.157380254154448
2.0772238514174
2.0019550342130987
1.9335288367546437
1.8729227761485825
1.818181818181818
1.775171065493646
1.7409579667644184
1.7086999022482894
1.6813294232649072
1.6578690127077225
1.6383186705767352
1.6217008797653958
1.606060606060606
1.5923753665689149
1.5777126099706744
1.5620723362658846
1.5454545454545454
1.5298142717497556
1.5131964809384164
1.4936461388074291
1.4711632453567938
1.4467253176930597
1.4213098729227762
1.3949169110459434
1.3665689149560116
1.33822091886608
1.310850439882698
1.2854349951124144
1.2619745845552297
1.238514173998045
1.2209188660801564
1.206256109481916
1.1896383186705768
1.1730205278592376
1.1564027370478984
1.1407624633431086
1.126099706744868
1.1114369501466277
1.096774193548387
1.083088954056696
1.0694037145650048
1.056695992179863
1.0478983382209188
1.043010752688172
1.0361681329423265
1.029325513196481
1.0234604105571847
1.018572825024438
1.013685239491691
1.0097751710654936
1.0068426197458455
1.0039100684261977
1.0019550342130987
1.0009775171065494
1.0009775171065494
1.0039100684261977
1.0068426197458455
1.0087976539589445
1.0087976539589445
1.0087976539589445
1.007820136852395
1.0068426197458455
1.0068426197458455
1.0068426197458455
1.0068426197458455
1.0058651026392962
1.0048875855327468
1.0068426197458455
1.0087976539589445
1.0097751710654936
1.0097751710654936
1.010752688172043
1.0127077223851415
1.013685239491691
1.0146627565982405
1.0146627565982405
1.0146627565982405
1.0146627565982405
1.0146627565982405
1.0166177908113392
1.0224828934506354
1.035190615835777
1.0586510263929618
1.099706744868035
1.1622678396871946
1.249266862170088
1.3626588465298142
1.499511241446725
1.6559139784946235
1.825024437927664
1.9990224828934504
2.16911045943304
2.3088954056695994
2.4252199413489737
2.5425219941348973
2.6480938416422286
2.73802541544477
2.809384164222874
2.8641251221896384
2.9012707722385143
2.9227761485826003
2.9315738025415445
2.9286412512218964
2.913978494623656
2.887585532746823
2.8533724340175954
2.812316715542522
2.763440860215054
2.705767350928641
2.6392961876832843
2.5650048875855327
2.484848484848485
2.40078201368524
2.314760508308896
2.2297165200391005
2.147605083088954
2.070381231671554
2.004887585532747
1.949169110459433
1.8973607038123168
1.8514173998044965
1.812316715542522
1.7790811339198436
1.7517106549364614
1.729227761485826
1.7096774193548387
1.6920821114369502
1.675464320625611
1.6598240469208212
1.643206256109482
1.6275659824046922
1.6129032258064515
1.595307917888563
1.5757575757575757
1.5542521994134897
1.530791788856305
1.5053763440860215
1.479960899315738
1.4545454545454546
1.4301075268817205
1.4066471163245358
1.383186705767351
1.3636363636363635
1.346041055718475
1.3255131964809383
1.3040078201368523
1.2834799608993157
1.2639296187683284
1.2443792766373412
1.2258064516129032
1.209188660801564
1.1945259042033236
1.181818181818182
1.1691104594330402
1.1593352883675463
1.1515151515151516
1.1436950146627567
1.1368523949169111
1.1300097751710656
1.1241446725317692
1.1192570869990224
1.1143695014662756
1.110459433040078
1.1065493646138806
1.1026392961876832
1.099706744868035
1.096774193548387
1.096774193548387
1.0977517106549364
1.0977517106549364
1.0957966764418376
1.093841642228739
1.0918866080156402
1.0899315738025417
1.0879765395894427
1.086021505376344
1.0840664711632453
1.0821114369501466
1.0811339198435972
1.0821114369501466
1.083088954056696
1.083088954056696
1.0840664711632453
1.0869990224828934
1.0879765395894427
1.088954056695992
1.088954056695992
1.088954056695992
1.088954056695992
1.088954056695992
1.088954056695992
1.0879765395894427
1.088954056695992
1.0899315738025417
1.0909090909090908
1.096774193548387
1.1124144672531768
1.142717497556207
1.1906158357771262
1.2619745845552297
1.359726295210166
1.482893450635386
1.6275659824046922
1.7898338220918866
1.9374389051808407
2.075268817204301
2.228739002932551
2.3822091886608017
2.5239491691104594
2.649071358748778
2.7546432062561097
2.8396871945259043
2.9042033235581624
2.952101661779081
2.983382209188661
3.0009775171065494
3.004887585532747
2.995112414467253
2.975562072336266
2.949169110459433
2.916911045943304
2.875855327468231
2.8260019550342133
2.7673509286412514
2.6989247311827955
2.6236559139784945
2.5425219941348973
2.4565004887585533
2.3685239491691106
2.2883675464320627
2.2140762463343107
2.1358748778103616
2.059628543499511
1.9872922776148585
1.921798631476051
1.865102639296188
1.8172043010752688
1.7761485826001957
1.7429130009775171
1.715542521994135
1.6920821114369502
1.6715542521994136
1.6529814271749756
1.6373411534701858
1.6207233626588464
1.603128054740958
1.5826001955034212
1.560117302052786
1.5366568914956011
1.5112414467253177
1.4858260019550342
1.4594330400782014
1.4320625610948192
1.404692082111437
1.3812316715542523
1.3607038123167154
1.3372434017595307
1.3128054740957966
1.2873900293255132
1.2609970674486803
1.2355816226783969
1.2121212121212122
1.1896383186705768
1.1681329423264908
1.1485826001955035
1.1319648093841643
1.118279569892473
1.1094819159335287
1.1016617790811338
1.0918866080156402
1.0821114369501466
1.072336265884653
1.0635386119257086
1.0547409579667644
1.04594330400782
1.0381231671554252
1.0312805474095796
1.0254154447702837
1.0205278592375366
1.018572825024438
1.018572825024438
1.0166177908113392
1.013685239491691
1.010752688172043
1.007820136852395
1.0048875855327468
1.0019550342130987
1.0
0.9980449657869012
0.9960899315738024
0.9951124144672532
0.9951124144672532
0.9980449657869012
1.0019550342130987
1.0039100684261977
1.0039100684261977
1.002932551319648
1.0009775171065494
0.9990224828934506
0.997067448680352
0.9951124144672532
0.9941348973607038
0.9941348973607038
0.9951124144672532
0.9980449657869012
1.002932551319648
1.0058651026392962
1.0068426197458455
1.0068426197458455
1.0058651026392962
1.0048875855327468
1.0058651026392962
1.013685239491691
1.0342130987292275
1.0713587487781036
1.1290322580645162
1.2111436950146628
1.3010752688172045
1.4027370478983383
1.5356793743890518
1.6911045943304008
1.86119257086999
2.035190615835777
2.2052785923753664
2.364613880742913
2.50733137829912
2.631476050830889
2.7331378299120237
2.814271749755621
2.8670576735092865
2.8993157380254155
2.924731182795699
2.9393939393939394
2.9423264907135875
2.9345063538611926
2.9159335288367547
2.887585532746823
2.849462365591398
2.8025415444770285
2.747800586510264
2.684261974584555
2.611925708699902
2.5405669599217986
2.4682306940371457
2.388074291300098
2.302052785923754
2.21505376344086
2.1309872922776147
2.050830889540567
1.9765395894428155
1.9090909090909087
1.8494623655913975
1.7986314760508308
1.7565982404692082
1.7233626588465298
1.6979472140762464
1.675464320625611
1.6549364613880744
1.6373411534701858
1.6217008797653958
1.606060606060606
1.5884652981427174
1.5708699902248289
1.552297165200391
1.5317693059628543
1.509286412512219
1.4887585532746823
1.469208211143695
1.4467253176930597
1.4213098729227762
1.3949169110459434
1.3685239491691104
1.3421309872922775
1.316715542521994
1.2913000977517106
1.2668621700879763
1.2424242424242424
1.2189638318670577
1.1964809384164223
1.1788856304985338
1.164222873900293
1.1466275659824048
1.1290322580645162
1.1133919843597262
1.0987292277614855
1.0869990224828934
1.0772238514173995
1.067448680351906
1.0586510263929618
1.0498533724340176
1.0410557184750733
1.0361681329423265
1.0342130987292275
1.0303030303030305
1.0263929618768328
1.0234604105571847
1.018572825024438
1.013685239491691
1.007820136852395
1.002932551319648
0.9990224828934506
0.9960899315738024
0.9931573802541545
0.9921798631476052
0.9951124144672532
1.0
1.0019550342130987
1.002932551319648
1.002932551319648
1.0019550342130987
1.0009775171065494
0.9990224828934506
0.997067448680352
0.9951124144672532
0.9931573802541545
0.9912023460410556
0.9912023460410556
0.9941348973607038
0.9960899315738024
0.9980449657869012
1.0
1.0019550342130987
1.0039100684261977
1.0058651026392962
1.0058651026392962
1.0048875855327468
1.0039100684261977
1.0048875855327468
1.0097751710654936
1.021505376344086
1.043010752688172
1.0801564027370478
1.1378299120234605
1.2189638318670577
1.324535679374389
1.4535679374389052
1.603128054740958
1.7673509286412512
1.9374389051808407
2.1065493646138806
2.269794721407625
2.40078201368524
2.50733137829912
2.6129032258064515
2.705767350928641
2.782013685239492
2.841642228739003
2.8836754643206257
2.911045943304008
2.924731182795699
2.9257086999022484
2.9159335288367547
2.8944281524926687
2.86217008797654
2.823069403714565
2.7781036168132944
2.7233626588465296
2.659824046920821
2.5884652981427174
2.5102639296187683
2.4271749755620724
2.340175953079179
2.254154447702835
2.1700879765395893
2.089931573802541
2.01564027370479
1.9550342130987293
1.9042033235581624
1.855327468230694
1.8113391984359728
1.7732160312805474
1.7409579667644184
1.7135874877810362
1.6901270772238517
1.6695992179863148
1.651026392961877
1.6334310850439884
1.6158357771260996
1.5992179863147604
1.58455522971652
1.5708699902248289
1.555229716520039
1.5356793743890518
1.5131964809384164
1.4887585532746823
1.4623655913978495
1.434017595307918
1.404692082111437
1.3743890518084063
1.3450635386119256
1.3176930596285434
1.2961876832844574
1.2776148582600195
1.2570869990224829
1.2365591397849462
1.2160312805474096
1.195503421309873
1.1759530791788857
1.1583577712609971
1.142717497556207
1.1280547409579669
1.115347018572825
1.104594330400782
1.0957966764418376
1.0909090909090908
1.0869990224828934
1.0811339198435972
1.0742913000977516
1.0664711632453567
1.0586510263929618
1.0518084066471165
1.0449657869012707
1.0391006842619743
1.035190615835777
1.032258064516129
1.029325513196481
1.029325513196481
1.0312805474095796
1.0312805474095796
1.0312805474095796
1.0303030303030305
1.0303030303030305
1.0303030303030305
1.0312805474095796
1.032258064516129
1.032258064516129
1.032258064516129
1.032258064516129
1.0312805474095796
1.032258064516129
1.0332355816226784
1.0332355816226784
1.0332355816226784
1.0332355816226784
1.0332355816226784
1.0332355816226784
1.0332355816226784
1.0332355816226784
1.0332355816226784
1.0332355816226784
1.032258064516129
1.0332355816226784
1.035190615835777
1.0371456500488758
1.0410557184750733
1.0498533724340176
1.0694037145650048
1.1036168132942326
1.1583577712609971
1.2375366568914956
1.3411534701857282
1.4682306940371457
1.616813294232649
1.780058651026393
1.927663734115347
2.065493646138808
2.217986314760508
2.3704789833822093
2.512218963831867
2.638318670576735
2.744868035190616
2.831867057673509
2.898338220918866
2.945259042033236
2.975562072336266
2.991202346041056
2.9902248289345064
2.978494623655914
2.960899315738025
2.9345063538611926
2.900293255131965
2.8563049853372435
2.8025415444770285
2.739980449657869
2.668621700879765
2.591397849462365
2.5083088954056696
2.4222873900293256
2.3362658846529816
2.259042033235582
2.188660801564027
2.1163245356793743
2.047898338220919
1.986314760508309
1.9315738025415443
1.884652981427175
1.844574780058651
1.8113391984359728
1.782991202346041
1.758553274682307
1.7360703812316716
1.7174975562072337
1.7008797653958945
1.683284457478006
1.664711632453568
1.64613880742913
1.6265884652981428
1.606060606060606
1.58455522971652
1.5620723362658846
1.5395894428152492
1.5151515151515151
1.490713587487781
1.469208211143695
1.4506353861192571
1.4291300097751711
1.4066471163245358
1.3851417399804498
1.3636363636363635
1.343108504398827
1.3235581622678396
1.3040078201368523
1.2864125122189638
1.2697947214076246
1.2531769305962854
1.2375366568914956
1.2267839687194526
1.2179863147605083
1.2072336265884651
1.195503421309873
1.18475073313783
1.1749755620723363
1.1671554252199414
1.1593352883675463
1.152492668621701
1.1456500488758554
1.1397849462365592
1.1348973607038124
1.1329423264907137
1.1329423264907137
1.130987292277615
1.1270772238514175
1.1231671554252198
1.1192570869990224
1.1143695014662756
1.1114369501466277
1.1085043988269794
1.1065493646138806
1.104594330400782
1.1026392961876832
1.1006842619745845
1.1016617790811338
1.1026392961876832
1.1026392961876832
1.1016617790811338
1.1006842619745845
1.099706744868035
1.099706744868035
1.099706744868035
1.099706744868035
1.099706744868035
1.099706744868035
1.099706744868035
1.1006842619745845
1.1026392961876832
1.1026392961876832
1.1016617790811338
1.1006842619745845
1.1006842619745845
1.1036168132942326
1.1133919843597262
1.1348973607038124
1.1730205278592376
1.2326490713587488
1.3157380254154447
1.4242424242424243
1.5347018572825024
1.6520039100684265
1.7976539589442817
1.9579667644183771
2.1221896383186705
2.283479960899316
2.434017595307918
2.56891495601173
2.684261974584555
2.780058651026393
2.8563049853372435
2.9149560117302054
2.949169110459433
2.9657869012707723
2.9775171065493646
2.981427174975562
2.9765395894428157
2.960899315738025
2.935483870967742
2.900293255131965
2.857282502443793
2.8054740957966766
2.744868035190616
2.67644183773216
2.601173020527859
2.5268817204301075
2.452590420332356
2.3704789833822093
2.2795698924731185
2.185728250244379
2.0977517106549364
2.0175953079178885
1.946236559139785
1.8836754643206255
1.828934506353861
1.782991202346041
1.7448680351906158
1.715542521994135
1.6920821114369502
1.6695992179863148
1.6490713587487782
1.629521016617791
1.6109481915933528
1.5923753665689149
1.5747800586510263
1.5571847507331378
1.5386119257087
1.5180840664711632
1.495601173020528
1.4711632453567938
1.4486803519061584
1.4271749755620724
1.401759530791789
1.375366568914956
1.3479960899315735
1.3186705767350928
1.2903225806451613
1.262952101661779
1.2375366568914956
1.2130987292277615
1.1906158357771262
1.1691104594330402
1.1534701857282503
1.1407624633431086
1.126099706744868
1.1114369501466277
1.096774193548387
1.083088954056696
1.072336265884653
1.0625610948191593
1.053763440860215
1.0449657869012707
1.0371456500488758
1.0303030303030305
1.024437927663734
1.0224828934506354
1.021505376344086
1.0195503421309873
1.0156402737047898
1.010752688172043
1.0058651026392962
1.0009775171065494
0.9960899315738024
0.9921798631476052
0.989247311827957
0.9872922776148584
0.9843597262952102
0.9843597262952102
0.9872922776148584
0.9882697947214076
0.989247311827957
0.9902248289345064
0.9912023460410556
0.9912023460410556
0.9902248289345064
0.9882697947214076
0.9863147605083088
0.9843597262952102
0.9824046920821116
0.9804496578690128
0.9804496578690128
0.9833822091886608
0.9853372434017597
0.9872922776148584
0.9882697947214076
0.9882697947214076
0.9882697947214076
0.9872922776148584
0.9872922776148584
0.989247311827957
0.9951124144672532
1.0097751710654936
1.0332355816226784
1.0684261974584557
1.1251221896383188
1.2052785923753666
1.3098729227761483
1.439882697947214
1.590420332355816
1.7556207233626588
1.927663734115347
2.099706744868035
2.2658846529814274
2.419354838709677
2.555229716520039
2.6559139784946235
2.7311827956989245
2.7996089931573804
2.855327468230694
2.897360703812317
2.924731182795699
2.93841642228739
2.940371456500489
2.9315738025415445
2.9120234604105573
2.8826979472140764
2.844574780058651
2.7996089931573804
2.7468230694037143
2.6832844574780057
2.6099706744868034
2.5288367546432062
2.441837732160313
2.3519061583577714
2.260997067448681
2.172043010752688
2.0869990224828934
2.006842619745845
1.9345063538611929
1.8748778103616808
1.825024437927664
1.780058651026393
1.739980449657869
1.7067448680351909
1.6793743890518085
1.6559139784946235
1.6363636363636365
1.6187683284457477
1.6021505376344083
1.585532746823069
1.56891495601173
1.552297165200391
1.5376344086021505
1.521994134897361
1.5024437927663734
1.479960899315738
1.456500488758553
1.4320625610948192
1.4056695992179864
1.3792766373411536
1.3528836754643203
1.3264907135874875
1.2991202346041055
1.2727272727272727
1.2502443792766371
1.2316715542521994
1.2121212121212122
1.1915933528836755
1.1720430107526882
1.1544477028347997
1.1378299120234605
1.1221896383186705
1.10752688172043
1.0948191593352885
1.0821114369501466
1.0703812316715542
1.0606060606060606
1.0547409579667644
1.050830889540567
1.0449657869012707
1.0371456500488758
1.029325513196481
1.0234604105571847
1.018572825024438
1.0146627565982405
1.010752688172043
1.007820136852395
1.0039100684261977
1.0009775171065494
1.0009775171065494
1.0019550342130987
1.0019550342130987
1.0009775171065494
1.0
1.0
1.0
1.0
0.9990224828934506
0.997067448680352
0.9951124144672532
0.9931573802541545
0.9912023460410556
0.9912023460410556
0.9931573802541545
0.9941348973607038
0.9960899315738024
0.9980449657869012
1.0
1.0019550342130987
1.0039100684261977
1.0058651026392962
1.0068426197458455
1.0058651026392962
1.0048875855327468
1.0048875855327468
1.0058651026392962
1.0068426197458455
1.010752688172043
1.021505376344086
1.0439882697947214
1.0821114369501466
1.141739980449658
1.2267839687194526
1.3391984359726294
1.4750733137829912
1.6304985337243405
1.7986314760508308
1.948191593352884
2.086021505376344
2.2375366568914954
2.3851417399804498
2.520039100684262
2.636363636363636
2.732160312805474
2.8084066471163247
2.866080156402737
2.906158357771261
2.9315738025415445
2.943304007820137
2.9393939393939394
2.924731182795699
2.9042033235581624
2.874877810361681
2.8367546432062563
2.788856304985337
2.7311827956989245
2.665689149560117
2.592375366568915
2.512218963831867
2.4271749755620724
2.340175953079179
2.2531769305962857
2.174975562072336
2.103616813294233
2.0303030303030303
1.9608993157380252
1.8973607038123168
1.8416422287390029
1.7947214076246334
1.7565982404692082
1.7243401759530792
