ppg
1.8113391984359728
1.9364613880742916
2.053763440860215
2.1593352883675463
2.251221896383187
2.329423264907136
2.3949169110459434
2.441837732160313
2.4780058651026398
2.512218963831867
2.5434995112414467
2.572825024437928
2.5992179863147604
2.622678396871945
2.643206256109482
2.659824046920821
2.673509286412512
2.6823069403714563
2.6852394916911044
2.684261974584555
2.67644183773216
2.662756598240469
2.6451612903225805
2.619745845552297
2.5865102639296187
2.5464320625610948
2.498533724340176
2.442815249266862
2.383186705767351
2.321603128054741
2.2580645161290325
2.193548387096774
2.136852394916911
2.085043988269794
2.0332355816226784
1.9833822091886608
1.9374389051808407
1.8983382209188664
1.8641251221896384
1.8328445747800584
1.804496578690127
1.7761485826001957
1.7468230694037146
1.7174975562072337
1.6881720430107527
1.66177908113392
1.6373411534701858
1.608993157380254
1.5786901270772238
1.5483870967741935
1.5190615835777126
1.4897360703812317
1.4613880742913
1.4320625610948192
1.401759530791789
1.3714565004887584
1.3440860215053765
1.3225806451612905
1.305962854349951
1.2864125122189638
1.2668621700879763
1.2482893450635386
1.2297165200391007
1.2111436950146628
1.1925708699902249
1.176930596285435
1.1652003910068427
1.1593352883675463
1.1622678396871946
1.1788856304985338
1.2052785923753666
1.2453567937438903
1.3049853372434017
1.3841642228739004
1.478005865102639
1.5835777126099706
1.6959921798631477
1.8113391984359728
1.924731182795699
2.03128054740958
2.1300097751710654
2.218963831867057
2.2873900293255134
2.340175953079179
2.3900293255131966
2.434017595307918
2.4711632453567938
2.501466275659824
2.527859237536657
2.550342130987292
2.5698924731182795
2.5865102639296187
2.598240469208211
2.608993157380254
2.616813294232649
2.6177908113391983
2.613880742913001
2.6080156402737047
2.5992179863147604
2.58455522971652
2.5620723362658846
2.530791788856305
2.49266862170088
2.44672531769306
2.393939393939394
2.335288367546432
2.2737047898338223
2.217986314760508
2.167155425219941
2.1114369501466275
2.056695992179863
2.003910068426197
1.9550342130987293
1.9100684261974583
1.8699902248289344
1.8328445747800584
1.7996089931573802
1.7683284457478006
1.7390029325513197
1.710654936461388
1.6871945259042034
1.664711632453568
1.640273704789834
1.6138807429130009
1.585532746823069
1.5562072336265884
1.5268817204301075
1.4965786901270772
1.466275659824047
1.436950146627566
1.409579667644184
1.383186705767351
1.3636363636363635
1.3479960899315735
1.3284457478005864
1.3069403714565004
1.284457478005865
1.262952101661779
1.241446725317693
1.2209188660801564
1.2003910068426198
1.1808406647116323
1.1622678396871946
1.1456500488758554
1.130987292277615
1.1221896383186705
1.1163245356793745
1.10752688172043
1.10752688172043
1.1133919843597262
1.1114369501466277
1.1055718475073313
1.0977517106549364
1.088954056695992
1.0791788856304985
1.0694037145650048
1.0606060606060606
1.0576735092864125
1.056695992179863
1.0527859237536656
1.0478983382209188
1.043010752688172
1.0381231671554252
1.0342130987292275
1.0312805474095796
1.0283479960899315
1.0273704789833822
1.0263929618768328
1.0263929618768328
1.0263929618768328
1.029325513196481
1.0332355816226784
1.0332355816226784
1.032258064516129
1.0303030303030305
1.0283479960899315
1.0273704789833822
1.0254154447702837
1.0224828934506354
1.0195503421309873
1.0166177908113392
1.0156402737047898
1.021505376344086
1.0371456500488758
1.064516129032258
1.110459433040078
1.1808406647116323
1.278592375366569
1.404692082111437
1.5562072336265884
1.726295210166178
1.90811339198436
2.0928641251221896
2.2737047898338223
2.443792766373412
2.579667644183773
2.6930596285435
2.807429130009776
2.913978494623656
3.0097751710654936
3.0948191593352883
3.1710654936461387
3.2385141739980448
3.2991202346041058
3.35386119257087
3.4027370478983383
3.4486803519061584
3.4809384164222874
3.505376344086021
3.532746823069404
3.5591397849462365
3.581622678396872
3.5992179863147604
3.6080156402737047
3.6099706744868034
3.6041055718475072
3.590420332355816
3.56891495601173
3.539589442815249
3.5034213098729228
3.4594330400782014
3.4086021505376345
3.3499511241446727
3.283479960899316
3.209188660801564
3.129032258064516
3.0449657869012707
2.9579667644183774
2.8699902248289346
2.782013685239492
2.697947214076246
2.618768328445748
2.550342130987292
2.490713587487781
2.432062561094819
2.377321603128055
2.326490713587488
2.278592375366569
2.233626588465298
2.189638318670577
2.146627565982405
2.104594330400782
2.06158357771261
2.016617790811339
1.978494623655914
1.9442815249266865
1.906158357771261
1.8670576735092863
1.826001955034213
1.782991202346041
1.7409579667644184
1.6979472140762464
1.6578690127077225
1.619745845552297
1.5835777126099706
1.5493646138807429
1.5161290322580645
1.490713587487781
1.469208211143695
1.444770283479961
1.4193548387096775
1.393939393939394
1.367546432062561
1.3440860215053765
1.324535679374389
1.305962854349951
1.289345063538612
1.270772238514174
1.252199413489736
1.2404692082111437
1.2326490713587488
1.2209188660801564
1.206256109481916
1.1925708699902249
1.1788856304985338
1.166177908113392
1.1534701857282503
1.1397849462365592
1.1251221896383188
1.1114369501466277
1.0987292277614855
1.0879765395894427
1.083088954056696
1.0850439882697946
1.093841642228739
1.1133919843597262
1.1505376344086022
1.209188660801564
1.2913000977517106
1.393939393939394
1.5161290322580645
1.653958944281525
1.801564027370479
1.95405669599218
2.085043988269794
2.20039100684262
2.320625610948192
2.4349951124144678
2.5405669599217986
2.634408602150537
2.716520039100684
2.787878787878788
2.850439882697948
2.905180840664712
2.9530791788856305
2.9960899315738025
3.035190615835777
3.0625610948191597
3.083088954056696
3.10752688172043
3.131964809384164
3.15347018572825
3.1710654936461387
3.182795698924731
3.188660801564027
3.188660801564027
3.1808406647116323
3.166177908113392
3.145650048875855
3.117302052785924
3.083088954056696
3.0410557184750733
2.9902248289345064
2.929618768328446
2.860215053763441
2.7839687194525906
2.7038123167155423
2.621700879765396
2.541544477028348
2.462365591397849
2.3870967741935485
2.317693059628544
2.26197458455523
2.2130987292277613
2.1652003910068425
2.120234604105572
2.0791788856304985
2.042033235581622
2.005865102639296
1.9687194525904204
1.932551319648094
1.8963831867057677
1.86119257086999
1.8269794721407624
1.796676441837732
1.7683284457478006
1.7360703812316716
1.6989247311827955
1.6608015640273706
1.6217008797653958
1.5835777126099706
1.5464320625610948
1.5102639296187683
1.4760508308895406
1.4467253176930597
1.418377321603128
1.391006842619746
1.370478983382209
1.3548387096774193
1.3372434017595307
1.3186705767350928
1.300097751710655
1.2825024437927663
1.2649071358748778
1.2473118279569892
1.23069403714565
1.2160312805474096
1.2013685239491692
1.1857282502443791
1.1759530791788857
1.1691104594330402
1.1593352883675463
1.147605083088954
1.1358748778103618
1.1231671554252198
1.1114369501466277
1.1006842619745845
1.0918866080156402
1.0879765395894427
1.0948191593352885
1.1143695014662756
1.1505376344086022
1.1994134897360704
1.2639296187683284
1.35386119257087
1.4652981427174976
1.5943304007820136
1.7350928641251222
1.881720430107527
2.029325513196481
2.172043010752688
2.304985337243402
2.426197458455523
2.532746823069404
2.6148582600195502
2.6803519061583576
2.745845552297165
2.806451612903226
2.86217008797654
2.9120234604105573
2.956989247311828
2.997067448680352
3.032258064516129
3.0635386119257086
2.9657869012707723
2.798631476050831
2.721407624633431
2.6823069403714563
2.659824046920821
2.649071358748778
2.6422287390029324
2.635386119257087
2.624633431085044
2.6080156402737047
2.5855327468230693
2.5562072336265884
2.5210166177908118
2.4789833822091887
2.429130009775171
2.3792766373411536
2.3284457478005867
2.270772238514174
2.210166177908113
2.147605083088954
2.086021505376344
2.0283479960899315
1.9745845552297163
1.9257086999022484
1.8836754643206255
1.8465298142717497
1.8142717497556209
1.7888563049853372
1.7663734115347018
1.7429130009775171
1.7194525904203324
1.6950146627565983
1.6695992179863148
1.643206256109482
1.6148582600195502
1.585532746823069
1.5542521994134897
1.52297165200391
1.4916911045943304
1.4604105571847508
1.4349951124144673
1.4134897360703813
1.3890518084066472
1.3626588465298142
1.3362658846529814
1.310850439882698
1.2854349951124144
1.2609970674486803
1.238514173998045
1.2189638318670577
1.2003910068426198
1.1827956989247312
1.1710654936461389
1.1622678396871946
1.1495601173020529
1.1368523949169111
1.1231671554252198
1.110459433040078
1.099706744868035
1.088954056695992
1.0791788856304985
1.0694037145650048
1.0586510263929618
1.0478983382209188
1.0361681329423265
1.0283479960899315
1.0224828934506354
1.0146627565982405
1.0097751710654936
1.007820136852395
1.0127077223851415
1.0273704789833822
1.0547409579667644
1.0977517106549364
1.1573802541544478
1.2336265884652982
1.324535679374389
1.414467253176931
1.504398826979472
1.607038123167155
1.7135874877810362
1.8191593352883677
1.9188660801564028
2.0087976539589443
2.088954056695992
2.160312805474096
2.2218963831867056
2.2737047898338223
2.3167155425219943
2.35386119257087
2.3792766373411536
2.3978494623655915
2.418377321603128
2.439882697947214
2.4613880742913
2.479960899315738
2.496578690127077
2.5102639296187683
2.5210166177908118
2.527859237536657
2.5317693059628543
2.529814271749756
2.5210166177908118
2.506353861192571
2.486803519061584
2.4604105571847508
2.426197458455523
2.3851417399804498
2.337243401759531
2.2825024437927666
2.2238514173998043
2.163245356793744
2.102639296187683
2.0439882697947214
1.9872922776148585
1.93841642228739
1.8963831867057677
1.8563049853372435
1.818181818181818
1.7820136852394917
1.7497556207233629
1.721407624633431
1.6959921798631477
1.6705767350928642
1.64613880742913
1.6217008797653958
1.5962854349951123
1.5747800586510263
1.5542521994134897
1.530791788856305
1.5053763440860215
1.478005865102639
1.4486803519061584
1.4203323558162269
1.393939393939394
1.367546432062561
1.3421309872922775
1.3186705767350928
1.2971652003910068
1.2766373411534702
1.260019550342131
1.2473118279569892
1.2316715542521994
1.2150537634408602
1.198435972629521
1.181818181818182
1.166177908113392
1.1505376344086022
1.1348973607038124
1.121212121212121
1.110459433040078
1.1055718475073313
1.1085043988269794
1.1202346041055715
1.1436950146627567
1.1808406647116323
1.2326490713587488
1.2991202346041055
1.3792766373411536
1.4711632453567938
1.5679374389051808
1.6656891495601174
1.761485826001955
1.8514173998044965
1.9335288367546437
1.997067448680352
2.047898338220919
2.096774193548387
2.139784946236559
2.175953079178885
2.206256109481916
2.2297165200391005
2.2482893450635384
2.26197458455523
2.272727272727273
2.280547409579668
2.286412512218964
2.2883675464320627
2.2873900293255134
2.2854349951124147
2.280547409579668
2.269794721407625
2.2531769305962857
2.231671554252199
2.2023460410557183
2.166177908113392
2.124144672531769
2.0772238514174
2.026392961876833
1.9726295210166176
1.924731182795699
1.8807429130009776
1.836754643206256
1.793743890518084
1.7546432062561097
1.7194525904203324
1.6881720430107527
1.6598240469208212
1.635386119257087
1.611925708699902
1.587487781036168
1.564027370478983
1.5454545454545454
1.5278592375366569
1.5073313782991202
1.4848484848484849
1.4613880742913
1.436950146627566
1.4115347018572826
1.3851417399804498
1.3587487781036167
1.3333333333333333
1.3079178885630498
1.284457478005865
1.2619745845552297
1.2443792766373412
1.23069403714565
1.2130987292277615
1.1945259042033236
1.176930596285435
1.1612903225806452
1.1456500488758554
1.1300097751710656
1.115347018572825
1.1026392961876832
1.0918866080156402
1.083088954056696
1.078201368523949
1.0742913000977516
1.067448680351906
1.0606060606060606
1.053763440860215
1.04594330400782
1.0391006842619743
1.0342130987292275
1.029325513196481
1.024437927663734
1.0195503421309873
1.0156402737047898
1.0127077223851415
1.013685239491691
1.0146627565982405
1.013685239491691
1.0117302052785924
1.0087976539589445
1.0068426197458455
1.0039100684261977
1.0009775171065494
0.9990224828934506
0.997067448680352
0.9931573802541545
0.9902248289345064
0.9921798631476052
0.997067448680352
1.0048875855327468
1.0195503421309873
1.0547409579667644
1.115347018572825
1.1964809384164223
1.3020527859237536
1.4301075268817205
1.5757575757575757
1.7341153470185728
1.8973607038123168
2.0391006842619745
2.1652003910068425
2.2961876832844577
2.4222873900293256
2.5386119257087
2.6422287390029324
2.732160312805474
2.807429130009776
2.8719452590420333
2.927663734115347
2.9765395894428157
3.0195503421309877
3.0576735092864125
3.0840664711632453
3.104594330400782
3.1300097751710654
3.155425219941349
3.1788856304985336
3.198435972629521
3.212121212121212
3.220918866080156
3.222873900293255
3.2170087976539588
3.203323558162268
3.182795698924731
3.156402737047898
3.124144672531769
3.086021505376344
3.0391006842619745
2.983382209188661
2.918866080156403
2.8484848484848486
2.774193548387097
2.697947214076246
2.6207233626588464
2.5434995112414467
2.469208211143695
2.398826979472141
2.3382209188660803
2.2854349951124147
2.2346041055718477
2.1867057673509285
2.1436950146627565
2.103616813294233
2.0664711632453567
2.0303030303030303
1.9931573802541545
1.9560117302052784
1.9188660801564028
1.881720430107527
1.8484848484848484
1.818181818181818
1.7849462365591398
1.750733137829912
1.7145650048875856
1.6774193548387095
1.640273704789834
1.6050830889540566
1.5718475073313782
1.5405669599217986
1.5102639296187683
1.4819159335288368
1.4535679374389052
1.43108504398827
1.412512218963832
1.391006842619746
1.3685239491691104
1.3470185728250244
1.3264907135874875
1.3069403714565004
1.289345063538612
1.270772238514174
1.2531769305962854
1.2375366568914956
1.2228739002932552
1.2140762463343109
1.2082111436950147
1.198435972629521
1.187683284457478
1.176930596285435
1.164222873900293
1.1505376344086022
1.1378299120234605
1.1270772238514175
1.118279569892473
1.115347018572825
1.121212121212121
1.1397849462365592
1.1700879765395895
1.2130987292277615
1.2776148582600195
1.3636363636363635
1.4701857282502444
1.5923753665689149
1.7253176930596286
1.8641251221896384
2.002932551319648
2.136852394916911
2.260997067448681
2.372434017595308
2.4574780058651027
2.5268817204301075
2.5962854349951123
2.658846529814272
2.7155425219941347
2.766373411534702
2.812316715542522
2.854349951124145
2.89247311827957
2.927663734115347
2.959921798631476
2.9872922776148583
3.010752688172043
3.024437927663734
3.032258064516129
3.0410557184750733
3.048875855327468
3.0527859237536656
3.0518084066471163
3.0439882697947214
3.027370478983382
3.002932551319648
2.970674486803519
2.929618768328446
2.8797653958944283
2.8269794721407626
2.771260997067449
2.7067448680351904
2.634408602150537
2.557184750733138
2.47702834799609
2.398826979472141
2.324535679374389
2.2531769305962857
2.187683284457478
2.129032258064516
2.0772238514174
2.03128054740958
1.994134897360704
1.962854349951124
1.932551319648094
1.9012707722385145
1.8699902248289344
1.8377321603128052
1.8054740957966764
1.7732160312805474
1.7390029325513197
1.7038123167155426
1.667644183773216
1.6304985337243405
1.5992179863147604
1.5718475073313782
1.541544477028348
1.509286412512219
1.47702834799609
1.4457478005865103
1.41544477028348
1.3870967741935485
1.359726295210166
1.3343108504398826
1.310850439882698
1.2883675464320623
1.267839687194526
1.2531769305962854
1.2404692082111437
1.2258064516129032
1.2111436950146628
1.1974584555229717
1.18475073313783
1.1720430107526882
1.1583577712609971
1.1436950146627567
1.130987292277615
1.1173020527859236
1.1026392961876832
1.093841642228739
1.0869990224828934
1.0772238514173995
1.067448680351906
1.0606060606060606
1.0606060606060606
1.0733137829912025
1.1036168132942326
1.1534701857282503
1.2258064516129032
1.3206256109481915
1.434017595307918
1.5620723362658846
1.683284457478006
1.7986314760508308
1.9266862170087975
2.056695992179863
2.179863147605083
2.291300097751711
2.391006842619746
2.4789833822091887
2.5562072336265884
2.622678396871945
2.6803519061583576
2.732160312805474
2.76930596285435
2.7976539589442817
2.8299120234604107
2.86217008797654
2.8914956011730206
2.918866080156403
2.9442815249266863
2.9657869012707723
2.983382209188661
2.997067448680352
3.003910068426197
3.004887585532747
2.99902248289345
2.9853372434017595
2.964809384164223
2.9393939393939394
2.906158357771261
2.865102639296188
2.817204301075269
2.760508308895406
2.696969696969697
2.627565982404692
2.5542521994134897
2.47702834799609
2.39980449657869
2.3313782991202348
2.269794721407625
2.2052785923753664
2.142717497556207
2.085043988269794
2.032258064516129
1.986314760508309
1.945259042033236
1.9090909090909087
1.8748778103616808
1.8416422287390029
1.8093841642228736
1.7820136852394917
1.7575757575757576
1.7282502443792769
1.6950146627565983
1.6598240469208212
1.6236559139784943
1.587487781036168
1.5513196480938416
1.5161290322580645
1.4819159335288368
1.4486803519061584
1.396871945259042
1.3372434017595307
1.2991202346041055
1.2717497556207231
1.24633431085044
1.2209188660801564
1.198435972629521
1.1779081133919844
1.1583577712609971
1.1397849462365592
1.1221896383186705
1.1055718475073313
1.088954056695992
1.0733137829912025
1.0635386119257086
1.0576735092864125
1.0488758553274682
1.040078201368524
1.0303030303030305
1.0195503421309873
1.007820136852395
0.9951124144672532
0.9833822091886608
0.9736070381231672
0.967741935483871
0.9667644183773216
0.9745845552297164
0.9921798631476052
1.0205278592375366
1.0664711632453567
1.130987292277615
1.2130987292277615
1.3118279569892473
1.4252199413489737
1.5464320625610948
1.6705767350928642
1.793743890518084
1.9120234604105573
2.021505376344086
2.10850439882698
2.179863147605083
2.2502443792766376
2.313782991202346
2.3714565004887587
2.4222873900293256
2.4672531769305963
2.506353861192571
2.5405669599217986
2.5718475073313782
2.5992179863147604
2.624633431085044
2.64613880742913
2.659824046920821
2.6695992179863146
2.678396871945259
2.684261974584555
2.687194525904203
2.687194525904203
2.6803519061583576
2.6666666666666665
2.6451612903225805
2.613880742913001
2.575757575757576
2.529814271749756
2.4819159335288368
2.43108504398827
2.3714565004887587
2.30791788856305
2.2404692082111435
2.172043010752688
2.1055718475073317
2.0410557184750733
1.9804496578690127
1.9266862170087975
1.8778103616813293
1.835777126099707
1.7986314760508308
1.76930596285435
1.7438905180840665
1.715542521994135
1.686217008797654
1.6559139784946235
1.624633431085044
1.5923753665689149
1.5610948191593352
1.530791788856305
1.499511241446725
1.4672531769305963
1.4349951124144673
1.4086021505376345
1.3841642228739004
1.3558162267839686
1.3264907135874875
1.2971652003910068
1.2697947214076246
1.2434017595307918
1.2179863147605083
1.1925708699902249
1.1691104594330402
1.147605083088954
1.1280547409579669
1.1094819159335287
1.096774193548387
1.0869990224828934
1.0742913000977516
1.06158357771261
1.0498533724340176
1.0391006842619743
1.0273704789833822
1.0156402737047898
1.0039100684261977
0.9921798631476052
0.9804496578690128
0.9696969696969696
0.9648093841642228
0.9618768328445748
0.9550342130987292
0.9481915933528836
0.9413489736070382
0.935483870967742
0.9335288367546432
0.9403714565004888
0.9579667644183774
0.9912023460410556
1.043010752688172
1.1143695014662756
1.203323558162268
1.2942326490713587
1.391006842619746
1.5063538611925709
1.6304985337243405
1.7565982404692082
1.878787878787879
1.992179863147605
2.093841642228739
2.182795698924731
2.259042033235582
2.32355816226784
2.3792766373411536
2.419354838709677
2.449657869012708
2.479960899315738
2.5083088954056696
2.5347018572825024
2.560117302052786
2.5835777126099706
2.6041055718475072
2.622678396871945
2.638318670576735
2.650048875855328
2.656891495601173
2.6578690127077222
2.6510263929618767
2.6373411534701856
2.618768328445748
2.593352883675464
2.5610948191593352
2.5210166177908118
2.474095796676442
2.419354838709677
2.358748778103617
2.294232649071359
2.2277614858260018
2.1622678396871944
2.104594330400782
2.0527859237536656
2.0009775171065494
1.9521016617790807
1.9071358748778104
1.866080156402737
1.828934506353861
1.7947214076246334
1.7644183773216031
1.7360703812316716
1.7067448680351909
1.6774193548387095
1.6480938416422288
1.6226783968719452
1.598240469208211
1.5708699902248289
1.541544477028348
1.5102639296187683
1.478005865102639
1.4457478005865103
1.414467253176931
1.383186705767351
1.35386119257087
1.3255131964809383
1.2971652003910068
1.2746823069403714
1.2580645161290325
1.2394916911045943
1.219941348973607
1.2003910068426198
1.1808406647116323
1.1622678396871946
1.144672531769306
1.1280547409579669
1.1124144672531768
1.0987292277614855
1.0869990224828934
1.0791788856304985
1.0742913000977516
1.0664711632453567
1.0576735092864125
1.0478983382209188
1.0381231671554252
1.0283479960899315
1.0175953079178883
1.007820136852395
0.9990224828934506
0.9902248289345064
0.9824046920821116
0.975562072336266
0.9716520039100685
0.9706744868035192
0.967741935483871
0.9638318670576737
0.9648093841642228
0.9745845552297164
0.9980449657869012
1.0381231671554252
1.0957966764418376
1.1730205278592376
1.2688172043010753
1.3812316715542523
1.4897360703812317
1.5962854349951123
1.7174975562072337
1.842619745845552
1.963831867057673
2.0772238514174
2.179863147605083
2.270772238514174
2.3489736070381237
2.4144672531769307
2.4701857282502444
2.5180840664711632
2.5591397849462365
2.5865102639296187
2.6070381231671558
2.63049853372434
2.653958944281525
2.675464320625611
2.6959921798631474
2.7145650048875853
2.729227761485826
2.740957966764418
2.747800586510264
2.748778103616813
2.742913000977517
2.730205278592375
2.7116324535679373
2.687194525904203
2.656891495601173
2.618768328445748
2.6285434995112413
2.6578690127077222
2.636363636363636
2.587487781036168
2.525904203323558
2.4594330400782014
2.3919843597262958
2.326490713587488
2.270772238514174
2.220918866080156
2.172043010752688
2.126099706744868
2.0840664711632453
2.0439882697947214
2.005865102639296
1.970674486803519
1.9374389051808407
1.905180840664712
1.873900293255132
1.8416422287390029
1.81524926686217
1.7917888563049853
1.7634408602150538
1.7311827956989247
1.6989247311827955
1.6656891495601174
1.6334310850439884
1.6021505376344083
1.5708699902248289
1.541544477028348
1.5131964809384164
1.4838709677419355
1.455522971652004
1.4330400782013686
1.41544477028348
1.393939393939394
1.3714565004887584
1.3499511241446724
1.3304007820136852
1.3128054740957966
1.2971652003910068
1.281524926686217
1.2658846529814272
1.2512218963831867
1.2375366568914956
1.2297165200391007
1.224828934506354
1.217008797653959
1.209188660801564
1.2003910068426198
1.1896383186705768
1.1779081133919844
1.166177908113392
1.155425219941349
1.1456500488758554
1.1358748778103618
1.126099706744868
1.1173020527859236
1.1133919843597262
1.1143695014662756
1.118279569892473
1.1300097751710656
1.1544477028347997
1.1974584555229717
1.262952101661779
1.3499511241446724
1.458455522971652
1.5835777126099706
1.721407624633431
1.8670576735092863
1.9951124144672527
2.110459433040078
2.233626588465298
2.35386119257087
2.466275659824047
2.567937438905181
2.6559139784946235
2.7311827956989245
