ppg
2.388074291300098
2.297165200391007
2.2052785923753664
2.112414467253177
2.0195503421309877
1.927663734115347
1.8377321603128052
1.7605083088954057
1.6930596285434996
1.6226783968719452
1.5542521994134897
1.490713587487781
1.4349951124144673
1.3870967741935485
1.348973607038123
1.3196480938416422
1.2971652003910068
1.2825024437927663
1.273704789833822
1.2697947214076246
1.2697947214076246
1.2727272727272727
1.2756598240469208
1.278592375366569
1.2805474095796676
1.2805474095796676
1.2776148582600195
1.273704789833822
1.267839687194526
1.2590420332355816
1.2482893450635386
1.2365591397849462
1.2267839687194526
1.2179863147605083
1.206256109481916
1.1915933528836755
1.176930596285435
1.1622678396871946
1.1466275659824048
1.130987292277615
1.115347018572825
1.1006842619745845
1.0869990224828934
1.075268817204301
1.0635386119257086
1.056695992179863
1.0518084066471165
1.0449657869012707
1.0381231671554252
1.032258064516129
1.021505376344086
1.0087976539589445
1.002932551319648
0.9990224828934506
0.9960899315738024
0.9912023460410556
0.9872922776148584
0.9882697947214076
0.9990224828934506
1.0273704789833822
1.0869990224828934
1.187683284457478
1.3343108504398826
1.525904203323558
1.750733137829912
1.991202346041056
2.2267839687194524
2.4389051808406648
2.611925708699902
2.739980449657869
2.8152492668621703
2.849462365591398
2.859237536656892
2.8455522971652005
2.812316715542522
2.7653958944281527
2.70772238514174
2.641251221896383
2.567937438905181
2.490713587487781
2.4086021505376345
2.3225806451612905
2.243401759530792
2.167155425219941
2.083088954056696
1.9951124144672527
1.9071358748778104
1.8191593352883677
1.7341153470185728
1.653958944281525
1.5796676441837731
1.5112414467253177
1.4506353861192571
1.396871945259042
1.356793743890518
1.3255131964809383
1.2981427174975562
1.2756598240469208
1.2590420332355816
1.2482893450635386
1.2424242424242424
1.2404692082111437
1.241446725317693
1.2434017595307918
1.24633431085044
1.2482893450635386
1.249266862170088
1.2502443792766371
1.2502443792766371
1.2473118279569892
1.2424242424242424
1.2355816226783969
1.2267839687194526
1.2160312805474096
1.203323558162268
1.1906158357771262
1.176930596285435
1.163245356793744
1.1485826001955035
1.1378299120234605
1.1280547409579669
1.1163245356793745
1.1036168132942326
1.0899315738025417
1.0772238514173995
1.0654936461388074
1.0547409579667644
1.0449657869012707
1.035190615835777
1.0273704789833822
1.021505376344086
1.0175953079178883
1.0166177908113392
1.018572825024438
1.018572825024438
1.0175953079178883
1.0146627565982405
1.010752688172043
1.010752688172043
1.0234604105571847
1.0586510263929618
1.1290322580645162
1.2443792766373412
1.4076246334310851
1.5786901270772238
1.761485826001955
1.9824046920821117
2.2111436950146626
2.423264907135875
2.6021505376344085
2.7370478983382207
2.8269794721407626
2.873900293255132
2.886608015640274
2.870967741935484
2.835777126099707
2.78494623655914
2.729227761485826
2.6695992179863146
2.601173020527859
2.5268817204301075
2.44672531769306
2.3626588465298144
2.275659824046921
2.1867057673509285
2.0948191593352883
2.002932551319648
1.9120234604105573
1.823069403714565
1.7468230694037146
1.678396871945259
1.607038123167155
1.5386119257087
1.4750733137829912
1.418377321603128
1.3695014662756595
1.3284457478005864
1.2961876832844574
1.2717497556207231
1.2541544477028348
1.2434017595307918
1.2375366568914956
1.2375366568914956
1.2404692082111437
1.2434017595307918
1.2473118279569892
1.2502443792766371
1.252199413489736
1.252199413489736
1.2502443792766371
1.24633431085044
1.2404692082111437
1.2316715542521994
1.2209188660801564
1.2111436950146628
1.2023460410557183
1.1906158357771262
1.176930596285435
1.1622678396871946
1.147605083088954
1.1329423264907137
1.118279569892473
1.1036168132942326
1.0899315738025417
1.0762463343108504
1.0635386119257086
1.0518084066471165
1.0449657869012707
1.040078201368524
1.0332355816226784
1.0263929618768328
1.0205278592375366
1.0166177908113392
1.0146627565982405
1.013685239491691
1.0127077223851415
1.0097751710654936
1.0058651026392962
1.0019550342130987
1.002932551319648
1.013685239491691
1.0410557184750733
1.099706744868035
1.1994134897360704
1.3470185728250244
1.5395894428152492
1.7653958944281525
2.007820136852395
2.2453567937438903
2.4574780058651027
2.631476050830889
2.7595307917888565
2.835777126099707
2.870967741935484
2.8807429130009776
2.866080156402737
2.831867057673509
2.782991202346041
2.724340175953079
2.6578690127077222
2.5855327468230693
2.50733137829912
2.4252199413489737
2.3391984359726297
2.260019550342131
2.1837732160312804
2.0987292277614857
2.010752688172043
1.921798631476051
1.833822091886608
1.747800586510264
1.6666666666666667
1.590420332355816
1.520039100684262
1.456500488758553
1.4007820136852396
1.3528836754643203
1.316715542521994
1.2903225806451613
1.2658846529814272
1.2473118279569892
1.2336265884652982
1.2258064516129032
1.2228739002932552
1.2228739002932552
1.224828934506354
1.227761485826002
1.23069403714565
1.2336265884652982
1.2365591397849462
1.238514173998045
1.2375366568914956
1.2336265884652982
1.2267839687194526
1.2179863147605083
1.2072336265884651
1.1945259042033236
1.1808406647116323
1.1671554252199414
1.152492668621701
1.1378299120234605
1.1231671554252198
1.1124144672531768
1.1026392961876832
1.0909090909090908
1.078201368523949
1.0654936461388074
1.053763440860215
1.043010752688172
1.0332355816226784
1.0254154447702837
1.0175953079178883
1.0117302052785924
1.007820136852395
1.0068426197458455
1.0087976539589445
1.0097751710654936
1.0097751710654936
1.0087976539589445
1.0058651026392962
1.0058651026392962
1.0166177908113392
1.0478983382209188
1.1124144672531768
1.2209188660801564
1.3763440860215057
1.552297165200391
1.750733137829912
1.9843597262952104
2.2267839687194524
2.452590420332356
2.644183773216031
2.790811339198436
2.889540566959922
2.943304007820137
2.9589442815249267
2.946236559139785
2.911045943304008
2.860215053763441
2.803519061583578
2.742913000977517
2.6725317693059627
2.595307917888563
2.5131964809384164
2.4271749755620724
2.337243401759531
2.2453567937438903
2.1524926686217007
2.059628543499511
1.967741935483871
1.8778103616813293
1.8005865102639296
1.732160312805474
1.6608015640273706
1.5913978494623655
1.5268817204301075
1.469208211143695
1.4193548387096775
1.3773216031280548
1.3440860215053765
1.3186705767350928
1.300097751710655
1.2873900293255132
1.2805474095796676
1.2795698924731185
1.281524926686217
1.284457478005865
1.2883675464320623
1.29227761485826
1.295210166177908
1.2961876832844574
1.295210166177908
1.2913000977517106
1.2854349951124144
1.2776148582600195
1.2688172043010753
1.2619745845552297
1.2551319648093842
1.2443792766373412
1.2326490713587488
1.2209188660801564
1.2072336265884651
1.1935483870967742
1.1798631476050832
1.166177908113392
1.1534701857282503
1.1407624633431086
1.1290322580645162
1.118279569892473
1.1124144672531768
1.10752688172043
1.1006842619745845
1.093841642228739
1.0879765395894427
1.0840664711632453
1.0821114369501466
1.0821114369501466
1.0821114369501466
1.0811339198435972
1.078201368523949
1.0742913000977516
1.0733137829912025
1.0801564027370478
1.1016617790811338
1.1534701857282503
1.2473118279569892
1.3900293255131966
1.5826001955034212
1.8142717497556209
2.0684261974584555
2.321603128054741
2.5532746823069403
2.745845552297165
2.8905180840664717
2.979472140762464
3.0234604105571847
3.040078201368524
3.03128054740958
3.0019550342130987
2.9579667644183774
2.9042033235581624
2.841642228739003
2.773216031280548
2.6989247311827955
2.6207233626588464
2.5376344086021505
2.4594330400782014
2.3822091886608017
2.2961876832844577
2.206256109481916
2.113391984359726
2.0205278592375366
1.9286412512218964
1.8387096774193548
1.7526881720430108
1.672531769305963
1.598240469208211
1.5317693059628543
1.4731182795698925
1.4291300097751711
1.3949169110459434
1.364613880742913
1.3401759530791788
1.321603128054741
1.3088954056695992
1.3010752688172045
1.2971652003910068
1.2961876832844574
1.2971652003910068
1.2991202346041055
1.3010752688172045
1.303030303030303
1.3040078201368523
1.3020527859237536
1.2971652003910068
1.289345063538612
1.2795698924731185
1.2688172043010753
1.2551319648093842
1.2404692082111437
1.224828934506354
1.2082111436950147
1.1915933528836755
1.1749755620723363
1.1622678396871946
1.1515151515151516
1.13880742913001
1.1251221896383188
1.1114369501466277
1.0977517106549364
1.0840664711632453
1.0713587487781036
1.0586510263929618
1.04594330400782
1.035190615835777
1.0254154447702837
1.0205278592375366
1.0175953079178883
1.0146627565982405
1.0117302052785924
1.0087976539589445
1.0048875855327468
1.0009775171065494
0.9990224828934506
1.0048875855327468
1.0312805474095796
1.0899315738025417
1.1925708699902249
1.3450635386119256
1.5102639296187683
1.694037145650049
1.9237536656891496
2.1681329423264906
2.40078201368524
2.601173020527859
2.758553274682307
2.8670576735092865
2.929618768328446
2.9530791788856305
2.945259042033236
2.913000977517106
2.868035190615836
2.814271749755621
2.750733137829912
2.679374389051808
2.601173020527859
2.5190615835777126
2.4330400782013686
2.3440860215053765
2.2521994134897363
2.158357771260997
2.0635386119257086
1.9687194525904204
1.8758553274682308
1.796676441837732
1.7253176930596286
1.651026392961877
1.5796676441837731
1.5131964809384164
1.452590420332356
1.3988269794721409
1.35386119257087
1.3176930596285434
1.289345063538612
1.2688172043010753
1.2541544477028348
1.2473118279569892
1.2443792766373412
1.2434017595307918
1.2443792766373412
1.2473118279569892
1.2502443792766371
1.2531769305962854
1.2541544477028348
1.2541544477028348
1.2512218963831867
1.24633431085044
1.2394916911045943
1.23069403714565
1.2238514173998043
1.2160312805474096
1.2052785923753666
1.1925708699902249
1.1779081133919844
1.163245356793744
1.1485826001955035
1.133919843597263
1.1192570869990224
1.1055718475073313
1.0918866080156402
1.0791788856304985
1.0703812316715542
1.0635386119257086
1.053763440860215
1.0439882697947214
1.035190615835777
1.0273704789833822
1.0205278592375366
1.0156402737047898
1.0127077223851415
1.010752688172043
1.0087976539589445
1.0048875855327468
1.002932551319648
1.0019550342130987
1.002932551319648
1.0146627565982405
1.0478983382209188
1.1173020527859236
1.2326490713587488
1.396871945259042
1.6050830889540566
1.8435972629521016
2.0928641251221896
2.332355816226784
2.5425219941348973
2.695014662756598
2.798631476050831
2.874877810361681
2.916911045943304
2.9266862170087977
2.9100684261974585
2.8582600195503423
2.78494623655914
2.713587487781036
2.6402737047898337
2.563049853372434
2.482893450635386
2.407624633431085
2.333333333333333
2.251221896383187
2.164222873900293
2.074291300097752
1.9833822091886608
1.89247311827957
1.804496578690127
1.7204301075268815
1.640273704789834
1.565982404692082
1.498533724340176
1.4389051808406648
1.392961876832845
1.356793743890518
1.3225806451612905
1.2942326490713587
1.2717497556207231
1.2561094819159335
1.24633431085044
1.241446725317693
1.2404692082111437
1.2424242424242424
1.2453567937438903
1.249266862170088
1.2531769305962854
1.2570869990224829
1.2590420332355816
1.2580645161290325
1.2541544477028348
1.2482893450635386
1.2404692082111437
1.23069403714565
1.219941348973607
1.2082111436950147
1.195503421309873
1.1827956989247312
1.1700879765395895
1.160312805474096
1.1515151515151516
1.1397849462365592
1.1280547409579669
1.1163245356793745
1.104594330400782
1.093841642228739
1.0840664711632453
1.0742913000977516
1.064516129032258
1.0547409579667644
1.0469208211143697
1.043010752688172
1.0410557184750733
1.0391006842619743
1.0381231671554252
1.0381231671554252
1.0371456500488758
1.0342130987292275
1.0303030303030305
1.0303030303030305
1.040078201368524
1.0713587487781036
1.1368523949169111
1.24633431085044
1.3734115347018572
1.5249266862170088
1.7272727272727273
1.9579667644183771
2.1945259042033234
2.4134897360703813
2.5992179863147604
2.740957966764418
2.8367546432062563
2.8885630498533725
2.903225806451613
2.889540566959922
2.8582600195503423
2.814271749755621
2.758553274682307
2.6930596285435
2.621700879765396
2.5454545454545454
2.464320625610948
2.380254154447703
2.29227761485826
2.2023460410557183
2.1114369501466275
2.0195503421309877
1.927663734115347
1.8484848484848484
1.7761485826001957
1.699902248289345
1.624633431085044
1.555229716520039
1.490713587487781
1.4330400782013686
1.383186705767351
1.3411534701857282
1.3079178885630498
1.2825024437927663
1.2639296187683284
1.2531769305962854
1.2473118279569892
1.2443792766373412
1.2443792766373412
1.24633431085044
1.249266862170088
1.252199413489736
1.2551319648093842
1.2561094819159335
1.2561094819159335
1.2531769305962854
1.2482893450635386
1.241446725317693
1.2355816226783969
1.2297165200391007
1.219941348973607
1.2082111436950147
1.1945259042033236
1.1808406647116323
1.1671554252199414
1.1534701857282503
1.1397849462365592
1.126099706744868
1.1133919843597262
1.1006842619745845
1.0909090909090908
1.0840664711632453
1.075268817204301
1.0664711632453567
1.0576735092864125
1.0498533724340176
1.0439882697947214
1.0391006842619743
1.0371456500488758
1.0361681329423265
1.0361681329423265
1.035190615835777
1.032258064516129
1.0312805474095796
1.0312805474095796
1.0332355816226784
1.0469208211143697
1.0840664711632453
1.155425219941349
1.2717497556207231
1.4349951124144673
1.6383186705767352
1.869012707722385
2.10752688172043
2.333333333333333
2.509286412512219
2.6402737047898337
2.7497556207233624
2.825024437927664
2.8641251221896384
2.870967741935484
2.8533724340175954
2.81622678396872
2.7653958944281527
2.7038123167155423
2.635386119257087
2.560117302052786
2.4809384164222874
2.4056695992179864
2.3313782991202348
2.2482893450635384
2.161290322580645
2.072336265884653
1.9833822091886608
1.8944281524926687
1.8074291300097751
1.7233626588465298
1.6441837732160314
1.5708699902248289
1.5024437927663734
1.447702834799609
1.4037145650048877
1.3607038123167154
1.3225806451612905
1.2903225806451613
1.2649071358748778
1.2473118279569892
1.2365591397849462
1.2316715542521994
1.23069403714565
1.2316715542521994
1.2346041055718475
1.2375366568914956
1.241446725317693
1.2453567937438903
1.2473118279569892
1.2482893450635386
1.24633431085044
1.2424242424242424
1.2365591397849462
1.2287390029325511
1.2179863147605083
1.2052785923753666
1.1915933528836755
1.176930596285435
1.166177908113392
1.1573802541544478
1.1456500488758554
1.1329423264907137
1.1202346041055715
1.10752688172043
1.096774193548387
1.086021505376344
1.075268817204301
1.0654936461388074
1.056695992179863
1.0488758553274682
1.04594330400782
1.0449657869012707
1.0449657869012707
1.0449657869012707
1.04594330400782
1.0469208211143697
1.0469208211143697
1.0439882697947214
1.0410557184750733
1.040078201368524
1.050830889540567
1.083088954056696
1.1505376344086022
1.238514173998045
1.356793743890518
1.5298142717497556
1.7448680351906158
1.9824046920821117
2.219941348973607
2.436950146627566
2.616813294232649
2.7517106549364616
2.8406647116324537
2.886608015640274
2.897360703812317
2.8826979472140764
2.849462365591398
2.8025415444770285
2.7468230694037143
2.6832844574780057
2.6129032258064515
2.5376344086021505
2.4594330400782014
2.377321603128055
2.29227761485826
2.2052785923753664
2.117302052785924
2.0283479960899315
1.9521016617790807
1.881720430107527
1.8035190615835777
1.7243401759530792
1.6480938416422288
1.576735092864125
1.5112414467253177
1.452590420332356
1.401759530791789
1.359726295210166
1.3255131964809383
1.300097751710655
1.2834799608993157
1.273704789833822
1.2668621700879763
1.2639296187683284
1.2649071358748778
1.2688172043010753
1.273704789833822
1.2795698924731185
1.284457478005865
1.2864125122189638
1.2864125122189638
1.284457478005865
1.2805474095796676
1.2766373411534702
1.2717497556207231
1.262952101661779
1.2531769305962854
1.241446725317693
1.2287390029325511
1.2160312805474096
1.2023460410557183
1.1886608015640274
1.1759530791788857
1.163245356793744
1.1515151515151516
1.1436950146627567
1.1378299120234605
1.1300097751710656
1.1202346041055715
1.1114369501466277
1.1036168132942326
1.0977517106549364
1.0928641251221896
1.0899315738025417
1.0879765395894427
1.0879765395894427
1.088954056695992
1.088954056695992
1.0899315738025417
1.0899315738025417
1.0869990224828934
1.086021505376344
1.0957966764418376
1.1280547409579669
1.1964809384164223
1.3118279569892473
1.478005865102639
1.6901270772238517
1.9335288367546437
2.188660801564027
2.403714565004888
2.5806451612903225
2.745845552297165
2.87683284457478
2.963831867057673
3.0087976539589443
3.018572825024438
3.0009775171065494
2.962854349951124
2.9120234604105573
2.850439882697948
2.782013685239492
2.708699902248289
2.636363636363636
2.5640273704789838
2.4838709677419355
2.398826979472141
2.3098729227761488
2.217986314760508
2.1251221896383186
2.03128054740958
1.93841642228739
1.8484848484848484
1.7624633431085044
1.6813294232649072
1.6138807429130009
1.555229716520039
1.4965786901270772
1.4428152492668622
1.3958944281524928
1.356793743890518
1.3264907135874875
1.303030303030303
1.2864125122189638
1.2756598240469208
1.2688172043010753
1.2658846529814272
1.2658846529814272
1.267839687194526
1.2697947214076246
1.270772238514174
1.2697947214076246
1.2668621700879763
1.2609970674486803
1.2531769305962854
1.2424242424242424
1.23069403714565
1.2179863147605083
1.2043010752688172
1.1896383186705768
1.1788856304985338
1.1681329423264908
1.1544477028347997
1.13880742913001
1.1231671554252198
1.10752688172043
1.0928641251221896
1.078201368523949
1.064516129032258
1.0527859237536656
1.0410557184750733
1.0303030303030305
1.0205278592375366
1.0146627565982405
1.010752688172043
1.0058651026392962
1.0009775171065494
0.997067448680352
0.9951124144672532
0.9941348973607038
0.9931573802541545
0.9902248289345064
0.9863147605083088
0.9843597262952102
0.9912023460410556
1.0117302052785924
1.053763440860215
1.1358748778103618
1.2658846529814272
1.444770283479961
1.6666666666666667
1.913978494623656
2.166177908113392
2.40078201368524
2.601173020527859
2.755620723362659
2.860215053763441
2.918866080156403
2.93841642228739
2.9286412512218964
2.898338220918866
2.8514173998044967
2.792766373411535
2.724340175953079
2.649071358748778
2.567937438905181
2.4819159335288368
2.3929618768328447
2.3010752688172045
2.207233626588465
2.1221896383186705
2.042033235581622
1.9550342130987293
1.866080156402737
1.7781036168132942
1.6930596285434996
1.6129032258064515
1.5386119257087
1.4721407624633431
1.4134897360703813
1.3636363636363635
1.321603128054741
1.2883675464320623
1.2658846529814272
1.2512218963831867
1.2394916911045943
1.2316715542521994
1.227761485826002
1.227761485826002
1.2297165200391007
1.2326490713587488
1.2365591397849462
1.2394916911045943
1.241446725317693
1.2404692082111437
1.2394916911045943
1.238514173998045
1.2326490713587488
1.224828934506354
1.2150537634408602
1.2043010752688172
1.1925708699902249
1.1798631476050832
1.166177908113392
1.1515151515151516
1.1358748778103618
1.121212121212121
1.1094819159335287
1.1006842619745845
1.0899315738025417
1.078201368523949
1.0664711632453567
1.0547409579667644
1.043010752688172
1.032258064516129
2.9423264907135875
2.932551319648094
2.8993157380254155
2.849462365591398
2.788856304985337
2.7253176930596283
2.658846529814272
2.582600195503421
2.5004887585532747
2.4144672531769307
2.324535679374389
2.231671554252199
2.1378299120234603
2.042033235581622
1.9472140762463344
1.8533724340175952
1.7634408602150538
1.6871945259042034
1.6207233626588464
1.5532746823069403
1.4887585532746823
1.4301075268817205
1.3792766373411536
1.3362658846529814
1.303030303030303
1.2795698924731185
1.2619745845552297
1.249266862170088
1.2424242424242424
1.2394916911045943
1.2404692082111437
1.2443792766373412
1.2482893450635386
1.252199413489736
1.2551319648093842
1.2570869990224829
1.2570869990224829
1.2551319648093842
1.2512218963831867
1.2453567937438903
1.2365591397849462
1.2267839687194526
1.2189638318670577
1.2101661779081134
1.1994134897360704
1.187683284457478
1.1749755620723363
1.1612903225806452
1.1485826001955035
1.1348973607038124
1.121212121212121
1.1085043988269794
1.096774193548387
1.0850439882697946
1.0742913000977516
1.067448680351906
1.0635386119257086
1.0576735092864125
1.0518084066471165
1.0469208211143697
1.0439882697947214
1.0420332355816226
1.0410557184750733
1.040078201368524
1.0381231671554252
1.035190615835777
1.0332355816226784
1.0361681329423265
1.0518084066471165
1.088954056695992
1.1612903225806452
1.2776148582600195
1.4408602150537635
1.6451612903225807
1.8778103616813293
2.118279569892473
2.345063538611926
2.5425219941348973
2.697947214076246
2.807429130009776
2.8690127077223853
2.89247311827957
2.89247311827957
2.870967741935484
2.831867057673509
2.780058651026393
2.718475073313783
2.649071358748778
2.573802541544477
2.493646138807429
2.409579667644184
2.3225806451612905
2.242424242424242
2.166177908113392
2.081133919843597
1.9931573802541545
1.9042033235581624
1.8172043010752688
1.732160312805474
1.6520039100684265
1.5777126099706744
1.509286412512219
1.4486803519061584
1.3958944281524928
1.3509286412512218
1.3186705767350928
1.295210166177908
1.2746823069403714
1.2580645161290325
1.24633431085044
1.2394916911045943
1.2365591397849462
1.2365591397849462
1.238514173998045
1.241446725317693
1.2434017595307918
1.2443792766373412
1.2453567937438903
1.24633431085044
1.2443792766373412
1.2404692082111437
1.2336265884652982
1.2258064516129032
1.2160312805474096
1.2043010752688172
1.1925708699902249
1.1798631476050832
1.1671554252199414
1.1544477028347997
1.141739980449658
1.1319648093841643
1.1241446725317692
1.1133919843597262
1.1006842619745845
1.0879765395894427
1.0762463343108504
1.0654936461388074
1.0557184750733135
1.0478983382209188
1.0420332355816226
1.0381231671554252
1.0361681329423265
1.0371456500488758
1.0391006842619743
1.040078201368524
1.040078201368524
1.0371456500488758
1.0332355816226784
1.032258064516129
1.0410557184750733
1.0703812316715542
1.1329423264907137
1.238514173998045
1.391006842619746
1.587487781036168
1.780058651026393
1.9716520039100685
2.1867057673509285
2.3958944281524928
2.575757575757576
2.7145650048875853
2.809384164222874
2.8611925708699903
2.877810361681329
2.866080156402737
2.832844574780059
2.78494623655914
2.7311827956989245
2.6725317693059627
2.6050830889540566
2.529814271749756
2.449657869012708
2.364613880742913
2.27761485826002
2.188660801564027
2.0977517106549364
2.005865102639296
1.9149560117302051
1.825024437927664
1.747800586510264
1.678396871945259
1.607038123167155
1.5376344086021505
1.4721407624633431
1.4134897360703813
1.3626588465298142
1.3196480938416422
1.284457478005865
1.2580645161290325
1.2394916911045943
1.2267839687194526
1.219941348973607
1.2189638318670577
1.2218963831867058
1.2258064516129032
1.23069403714565
1.2355816226783969
1.2404692082111437
1.2434017595307918
1.2443792766373412
1.2424242424242424
1.238514173998045
1.2326490713587488
1.2258064516129032
1.219941348973607
1.2140762463343109
1.2043010752688172
1.1935483870967742
1.181818181818182
1.1691104594330402
1.1573802541544478
1.1456500488758554
1.1348973607038124
1.1241446725317692
1.1133919843597262
1.1036168132942326
1.093841642228739
1.0879765395894427
1.0840664711632453
1.078201368523949
1.0733137829912025
1.0694037145650048
1.067448680351906
1.0664711632453567
1.067448680351906
