ppg
1.3470185728250244
1.3372434017595307
1.3264907135874875
1.3157380254154447
1.305962854349951
1.2981427174975562
1.2903225806451613
1.2825024437927663
1.2746823069403714
1.2658846529814272
1.260019550342131
1.2541544477028348
1.2473118279569892
1.241446725317693
1.2375366568914956
1.2336265884652982
1.227761485826002
1.2228739002932552
1.2179863147605083
1.2111436950146628
1.203323558162268
1.195503421309873
1.1886608015640274
1.1837732160312806
1.181818181818182
1.1808406647116323
1.1798631476050832
1.1798631476050832
1.1798631476050832
1.1798631476050832
1.1808406647116323
1.181818181818182
1.1808406647116323
1.1779081133919844
1.173998044965787
1.1700879765395895
1.166177908113392
1.1622678396871946
1.160312805474096
1.1573802541544478
1.155425219941349
1.1534701857282503
1.1515151515151516
1.1485826001955035
1.1456500488758554
1.141739980449658
1.1378299120234605
1.1358748778103618
1.1358748778103618
1.1368523949169111
1.142717497556207
1.2209188660801564
1.3519061583577712
1.4672531769305963
1.590420332355816
1.710654936461388
1.8387096774193548
1.9960899315738023
2.1700879765395893
2.347018572825025
2.5180840664711632
2.677419354838709
2.820136852394917
2.940371456500489
3.0361681329423265
3.112414467253177
3.1710654936461387
3.206256109481916
3.2238514173998043
3.236559139784946
3.244379276637341
3.2453567937438903
3.2404692082111435
3.2297165200391005
3.212121212121212
3.187683284457478
3.155425219941349
3.1163245356793743
3.069403714565005
3.0146627565982405
2.9550342130987293
2.8905180840664717
2.814271749755621
2.7282502443792764
2.63049853372434
2.5268817204301075
2.419354838709677
2.3088954056695994
2.20039100684262
2.0977517106549364
2.002932551319648
1.9188660801564028
1.8533724340175952
1.7996089931573802
1.750733137829912
1.7116324535679377
1.6793743890518085
1.6529814271749756
1.6314760508308896
1.6129032258064515
1.595307917888563
1.5777126099706744
1.5610948191593352
1.542521994134897
1.521994134897361
1.5053763440860215
1.4897360703812317
1.4711632453567938
1.4506353861192571
1.4271749755620724
1.4037145650048877
1.3822091886608017
1.3626588465298142
1.3440860215053765
1.3264907135874875
1.3128054740957966
1.303030303030303
1.2981427174975562
1.295210166177908
1.2913000977517106
1.2864125122189638
1.281524926686217
1.273704789833822
1.2609970674486803
1.24633431085044
1.23069403714565
1.2140762463343109
1.1994134897360704
1.187683284457478
1.1788856304985338
1.1749755620723363
1.1730205278592376
1.1700879765395895
1.166177908113392
1.1612903225806452
1.1593352883675463
1.1583577712609971
1.1544477028347997
1.1485826001955035
1.142717497556207
1.1358748778103618
1.1280547409579669
1.1241446725317692
1.121212121212121
1.1133919843597262
1.104594330400782
1.093841642228739
1.083088954056696
1.072336265884653
1.064516129032258
1.0606060606060606
1.0586510263929618
1.0576735092864125
1.053763440860215
1.0498533724340176
1.0488758553274682
1.0478983382209188
1.0439882697947214
1.0361681329423265
1.029325513196481
1.0273704789833822
1.035190615835777
1.0576735092864125
1.1026392961876832
1.1759530791788857
1.2795698924731185
1.4115347018572826
1.544477028347996
1.6823069403714566
1.8455522971652003
2.0175953079178885
2.185728250244379
2.3440860215053765
2.484848484848485
2.6021505376344085
2.696969696969697
2.771260997067449
2.8260019550342133
2.866080156402737
2.8885630498533725
2.900293255131965
2.909090909090909
2.913000977517106
2.9120234604105573
2.905180840664712
2.8914956011730206
2.870967741935484
2.844574780058651
2.8103616813294234
2.7673509286412514
2.716520039100684
2.656891495601173
2.5943304007820136
2.525904203323558
2.442815249266862
2.3499511241446727
2.249266862170088
2.144672531769306
2.040078201368524
1.9403714565004888
1.8465298142717497
1.7595307917888563
1.683284457478006
1.6207233626588464
1.5757575757575757
1.543499511241447
1.5141739980449658
1.4897360703812317
1.4711632453567938
1.455522971652004
1.4457478005865103
1.4389051808406648
1.434017595307918
1.4291300097751711
1.4213098729227762
1.409579667644184
1.3949169110459434
1.380254154447703
1.367546432062561
1.3528836754643203
1.3372434017595307
1.3196480938416422
1.3010752688172045
1.2834799608993157
1.2649071358748778
1.2453567937438903
1.2267839687194526
1.2111436950146628
1.1974584555229717
1.1896383186705768
1.1837732160312806
1.173998044965787
1.1612903225806452
1.1466275659824048
1.130987292277615
1.115347018572825
1.1026392961876832
1.0909090909090908
1.0791788856304985
1.067448680351906
1.0586510263929618
1.0547409579667644
1.0557184750733135
1.0557184750733135
1.0527859237536656
1.0518084066471165
1.050830889540567
1.050830889540567
1.0518084066471165
1.053763440860215
1.0547409579667644
1.0557184750733135
1.0557184750733135
1.0557184750733135
1.0586510263929618
1.0625610948191593
1.0664711632453567
1.0713587487781036
1.0772238514173995
1.086021505376344
1.0957966764418376
1.1065493646138806
1.1173020527859236
1.130987292277615
1.1466275659824048
1.1622678396871946
1.1798631476050832
1.195503421309873
1.209188660801564
1.2228739002932552
1.241446725317693
1.2688172043010753
1.3118279569892473
1.3763440860215057
1.4672531769305963
1.5865102639296187
1.732160312805474
1.8993157380254155
2.0791788856304985
2.236559139784946
2.376344086021505
2.525904203323558
2.668621700879765
2.7947214076246336
2.9012707722385143
2.986314760508309
3.050830889540567
3.0987292277614857
3.1309872922776147
3.1495601173020527
3.157380254154448
3.157380254154448
3.146627565982405
3.1270772238514173
3.10752688172043
3.0879765395894427
3.064516129032258
3.0332355816226784
2.9931573802541545
2.9472140762463344
2.89345063538612
2.831867057673509
2.7614858260019552
2.6832844574780057
2.6070381231671558
2.527859237536657
2.436950146627566
2.304007820136853
2.1544477028347995
2.038123167155425
1.9442815249266865
1.868035190615836
1.8103616813294232
1.7663734115347018
1.7360703812316716
1.718475073313783
1.7096774193548387
1.704789833822092
1.7028347996089932
1.7018572825024438
1.7008797653958945
1.6989247311827955
1.694037145650049
1.6852394916911049
1.672531769305963
1.6559139784946235
1.6392961876832846
1.6236559139784943
1.6080156402737047
1.595307917888563
1.58455522971652
1.5708699902248289
1.5571847507331378
1.541544477028348
1.521994134897361
1.501466275659824
1.4809384164222874
1.4604105571847508
1.4418377321603129
1.4252199413489737
1.4076246334310851
1.3890518084066472
1.3734115347018572
1.3607038123167154
1.3450635386119256
1.3284457478005864
1.3147605083088951
1.303030303030303
1.2913000977517106
1.2795698924731185
1.267839687194526
1.2551319648093842
1.2424242424242424
1.2316715542521994
1.2238514173998043
1.2179863147605083
1.2130987292277615
1.2082111436950147
1.203323558162268
1.1974584555229717
1.1925708699902249
1.187683284457478
1.1827956989247312
1.1779081133919844
1.1730205278592376
1.1681329423264908
1.163245356793744
1.160312805474096
1.1593352883675463
1.155425219941349
1.152492668621701
1.1515151515151516
1.1505376344086022
1.1505376344086022
1.1505376344086022
1.1505376344086022
1.1505376344086022
1.1505376344086022
1.1505376344086022
1.1544477028347997
1.1671554252199414
1.1945259042033236
1.2424242424242424
1.316715542521994
1.4213098729227762
1.5532746823069403
1.704789833822092
1.869012707722385
2.034213098729228
2.1925708699902247
2.3362658846529816
2.462365591397849
2.555229716520039
2.624633431085044
2.687194525904203
2.739980449657869
2.782013685239492
2.812316715542522
2.832844574780059
2.844574780058651
2.8484848484848486
2.8484848484848486
2.844574780058651
2.8367546432062563
2.822091886608016
2.8025415444770285
2.7781036168132944
2.7468230694037143
2.708699902248289
2.66177908113392
2.6070381231671558
2.544477028347996
2.4750733137829912
2.3978494623655915
2.312805474095797
2.2218963831867056
2.136852394916911
2.0557184750733137
1.9667644183773216
1.87683284457478
1.7917888563049853
1.715542521994135
1.6529814271749756
1.6041055718475072
1.5669599217986314
1.5395894428152492
1.520039100684262
1.5053763440860215
1.4926686217008798
1.482893450635386
1.474095796676442
1.4652981427174976
1.455522971652004
1.4457478005865103
1.434017595307918
1.4213098729227762
1.4056695992179864
1.388074291300098
1.3695014662756595
1.3499511241446724
1.3313782991202343
1.3186705767350928
1.3079178885630498
1.295210166177908
1.281524926686217
1.2668621700879763
1.2512218963831867
1.2346041055718475
1.217008797653959
1.1994134897360704
1.1837732160312806
1.1691104594330402
1.155425219941349
1.141739980449658
1.1319648093841643
1.126099706744868
1.1173020527859236
1.1065493646138806
1.0957966764418376
1.0850439882697946
1.075268817204301
1.0654936461388074
1.0557184750733135
1.0449657869012707
1.035190615835777
1.0254154447702837
1.018572825024438
1.0127077223851415
1.002932551319648
0.9902248289345064
0.978494623655914
0.9696969696969696
0.9608993157380256
0.95405669599218
0.9481915933528836
0.9423264907135877
0.93841642228739
0.9364613880742912
0.935483870967742
0.9393939393939394
0.946236559139785
0.9521016617790812
0.959921798631476
0.9696969696969696
0.978494623655914
0.9853372434017597
0.9902248289345064
0.9931573802541545
0.9980449657869012
1.0127077223851415
1.0469208211143697
1.093841642228739
1.1583577712609971
1.2551319648093842
1.383186705767351
1.533724340175953
1.6989247311827955
1.8699902248289344
2.0361681329423265
2.193548387096774
2.337243401759531
2.462365591397849
2.5669599217986314
2.6510263929618767
2.7096774193548385
2.7497556207233624
2.7869012707722387
2.8152492668621703
2.833822091886608
2.844574780058651
2.8484848484848486
2.8455522971652005
2.835777126099707
2.819159335288368
2.7976539589442817
2.7702834799608995
2.7390029325513194
2.7038123167155423
2.6608015640273703
2.610948191593353
2.5532746823069403
2.487781036168133
2.4164222873900294
2.3411534701857284
2.2629521016617797
2.1867057673509285
2.113391984359726
2.04594330400782
1.988269794721408
1.9442815249266865
1.911045943304008
1.8826979472140764
1.8602150537634408
1.842619745845552
1.8299120234604105
1.8211143695014664
1.81524926686217
1.8132942326490715
1.8142717497556209
1.8142717497556209
1.81524926686217
1.8172043010752688
1.818181818181818
1.8201368523949168
1.8240469208211143
1.827956989247312
1.8328445747800584
1.8377321603128052
1.844574780058651
1.8563049853372435
1.869012707722385
1.8826979472140764
1.8973607038123168
1.9100684261974583
1.9178885630498532
1.921798631476051
1.9237536656891496
1.924731182795699
1.9257086999022484
1.927663734115347
1.9315738025415443
1.9364613880742916
1.9403714565004888
1.9696969696969695
2.0097751710654936
2.0254154447702835
2.029325513196481
2.029325513196481
2.0254154447702835
2.016617790811339
2.004887585532747
1.988269794721408
1.9667644183773216
1.943304007820137
1.9178885630498532
1.8934506353861196
1.873900293255132
1.8592375366568916
1.8465298142717497
1.835777126099707
1.8269794721407624
1.818181818181818
1.8132942326490715
1.8103616813294232
1.8103616813294232
1.8142717497556209
1.8211143695014664
1.8299120234604105
1.8416422287390029
1.855327468230694
1.868035190615836
1.8778103616813293
1.8885630498533723
1.9012707722385145
1.916911045943304
1.9403714565004888
1.9765395894428155
2.03128054740958
2.10850439882698
2.207233626588465
2.324535679374389
2.455522971652004
2.592375366568915
2.727272727272727
2.8377321603128056
2.929618768328446
3.024437927663734
3.110459433040078
3.1837732160312804
3.242424242424242
3.286412512218964
3.315738025415445
3.333333333333333
3.3391984359726297
3.337243401759531
3.332355816226784
3.321603128054741
3.3098729227761488
3.303030303030303
3.297165200391007
3.291300097751711
3.2844574780058653
3.274682306940372
3.260019550342131
3.2404692082111435
3.212121212121212
3.175953079178885
3.131964809384164
3.080156402737048
3.0234604105571847
2.961876832844575
2.8905180840664717
2.811339198435973
2.729227761485826
2.6480938416422286
2.570869990224829
2.5004887585532747
2.439882697947214
2.3900293255131966
2.3519061583577714
2.32355816226784
2.303030303030303
2.2873900293255134
2.272727272727273
2.2580645161290325
2.242424242424242
2.2238514173998043
2.20039100684262
2.1710654936461387
2.133919843597263
2.090909090909091
2.042033235581622
1.988269794721408
1.9393939393939397
1.89247311827957
1.8416422287390029
1.7917888563049853
1.7468230694037146
1.7057673509286413
1.6695992179863148
1.6373411534701858
1.606060606060606
1.5757575757575757
1.5464320625610948
1.5161290322580645
1.487781036168133
1.4652981427174976
1.4457478005865103
1.4222873900293256
1.4007820136852396
1.380254154447703
1.3616813294232648
1.343108504398827
1.324535679374389
1.3069403714565004
1.2903225806451613
1.2746823069403714
1.2590420332355816
1.2453567937438903
1.2326490713587488
1.2160312805474096
1.1945259042033236
1.166177908113392
1.1329423264907137
1.096774193548387
1.0606060606060606
1.024437927663734
0.9872922776148584
0.9521016617790812
0.9188660801564028
0.8856304985337243
0.8602150537634409
0.8396871945259042
0.8142717497556208
0.7898338220918866
0.7693059628543499
0.750733137829912
0.7341153470185728
0.7174975562072337
0.7018572825024438
0.6862170087976539
0.6705767350928641
0.6549364613880743
0.6451612903225806
0.6402737047898338
0.635386119257087
0.635386119257087
0.64613880742913
0.6744868035190615
0.7282502443792767
0.8084066471163245
0.9149560117302052
1.0449657869012707
1.1925708699902249
1.348973607038123
1.5063538611925709
1.640273704789834
1.7556207233626588
1.869012707722385
1.9687194525904204
2.050830889540567
2.114369501466276
2.1593352883675463
2.189638318670577
2.2082111436950145
2.218963831867057
2.222873900293255
2.2218963831867056
2.217986314760508
2.212121212121212
2.206256109481916
2.19941348973607
2.190615835777126
2.1788856304985336
2.160312805474096
2.131964809384164
2.0948191593352883
2.047898338220919
1.9902248289345064
1.9237536656891496
1.8494623655913975
1.7820136852394917
1.718475073313783
1.6490713587487782
1.5777126099706744
1.5083088954056696
1.447702834799609
1.3988269794721409
1.359726295210166
1.3313782991202343
2.452590420332356
2.398826979472141
2.337243401759531
2.267839687194526
2.1925708699902247
2.113391984359726
2.03128054740958
1.949169110459433
1.869012707722385
1.793743890518084
1.726295210166178
1.6744868035190617
1.632453567937439
1.5923753665689149
1.5591397849462365
1.5327468230694037
1.512218963831867
1.4965786901270772
1.4868035190615836
1.479960899315738
1.4760508308895406
1.4711632453567938
1.4633431085043989
1.4545454545454546
1.447702834799609
1.4418377321603129
1.434017595307918
1.4252199413489737
1.4164222873900294
1.409579667644184
1.4037145650048877
1.3978494623655917
1.388074291300098
1.3773216031280548
1.3655913978494625
1.3519061583577712
1.3411534701857282
1.332355816226784
1.3206256109481915
1.3069403714565004
1.29227761485826
1.2776148582600195
1.262952101661779
1.2482893450635386
1.2346041055718475
1.2228739002932552
1.2121212121212122
1.2013685239491692
1.1906158357771262
1.1837732160312806
1.1798631476050832
1.1730205278592376
1.164222873900293
1.1544477028347997
1.144672531769306
1.1348973607038124
1.1251221896383188
1.1163245356793745
1.1085043988269794
1.1016617790811338
1.096774193548387
1.0957966764418376
1.0977517106549364
1.0977517106549364
1.096774193548387
1.0957966764418376
1.0957966764418376
1.0957966764418376
1.0957966764418376
1.0957966764418376
1.0957966764418376
1.0957966764418376
1.0957966764418376
1.0957966764418376
1.0977517106549364
1.1016617790811338
1.1055718475073313
1.1133919843597262
1.1231671554252198
1.13880742913001
1.1671554252199414
1.2111436950146628
1.2756598240469208
1.364613880742913
1.478005865102639
1.6138807429130009
1.7429130009775171
1.869012707722385
2.013685239491691
2.1622678396871944
2.304007820136853
2.434017595307918
2.5777126099706744
2.720430107526881
2.823069403714565
2.8963831867057674
2.9501466275659824
2.9872922776148583
3.0087976539589443
3.013685239491691
3.007820136852395
2.9960899315738025
2.9775171065493646
2.952101661779081
2.921798631476051
2.884652981427175
2.8426197458455524
2.795698924731183
2.7438905180840663
2.684261974584555
2.6158357771261
2.547409579667644
2.47702834799609
2.3949169110459434
2.304985337243402
2.2140762463343107
2.124144672531769
2.037145650048876
1.95405669599218
1.8778103616813293
1.8113391984359728
1.7556207233626588
1.710654936461388
1.675464320625611
1.651026392961877
1.6334310850439884
1.6187683284457477
1.608993157380254
1.6011730205278591
1.5943304007820136
1.5884652981427174
1.5826001955034212
1.576735092864125
1.56891495601173
1.5581622678396871
1.5454545454545454
1.5366568914956011
1.5298142717497556
1.521994134897361
1.5151515151515151
1.5102639296187683
1.5053763440860215
1.4965786901270772
1.4868035190615836
1.4760508308895406
1.4652981427174976
1.4545454545454546
1.4428152492668622
1.434017595307918
1.4252199413489737
1.4115347018572826
1.3949169110459434
1.3773216031280548
1.3616813294232648
1.3499511241446724
1.33822091886608
1.3264907135874875
1.3176930596285434
1.310850439882698
1.3049853372434017
1.2991202346041055
1.2961876832844574
1.2942326490713587
1.2903225806451613
1.2825024437927663
1.273704789833822
1.2649071358748778
1.2551319648093842
1.2424242424242424
1.2297165200391007
1.217008797653959
1.206256109481916
1.198435972629521
1.1945259042033236
1.1925708699902249
1.1886608015640274
1.1857282502443791
1.1837732160312806
1.1827956989247312
1.1827956989247312
1.1827956989247312
1.1827956989247312
1.1827956989247312
1.1808406647116323
1.1788856304985338
1.1779081133919844
1.1788856304985338
1.1837732160312806
1.2111436950146628
1.2473118279569892
1.2883675464320623
1.3626588465298142
1.4711632453567938
1.6080156402737047
1.7683284457478006
1.9442815249266865
2.12316715542522
2.2961876832844577
2.4359726295210167
2.5513196480938416
2.665689149560117
2.76930596285435
2.860215053763441
2.9335288367546437
2.991202346041056
3.037145650048876
3.071358748778104
3.0948191593352883
3.10752688172043
3.112414467253177
3.110459433040078
3.099706744868035
3.0821114369501466
3.059628543499511
3.032258064516129
2.997067448680352
2.956989247311828
2.9100684261974585
2.8533724340175954
2.789833822091887
2.718475073313783
2.638318670576735
2.552297165200391
2.4711632453567938
2.3900293255131966
2.3010752688172045
2.212121212121212
2.12316715542522
2.0391006842619745
1.962854349951124
1.895405669599218
1.835777126099707
1.7849462365591398
1.7458455522971652
1.7174975562072337
1.6959921798631477
1.683284457478006
1.675464320625611
1.6686217008797657
1.66177908113392
1.653958944281525
1.64613880742913
1.6392961876832846
1.6304985337243405
1.6207233626588464
1.6099706744868034
1.5962854349951123
1.5806451612903225
1.5669599217986314
1.5542521994134897
1.541544477028348
1.5288367546432062
1.517106549364614
1.5024437927663734
1.4838709677419355
1.4633431085043989
1.4428152492668622
1.423264907135875
1.401759530791789
1.3822091886608017
1.367546432062561
1.356793743890518
1.3470185728250244
1.3343108504398826
1.3186705767350928
1.303030303030303
1.2864125122189638
1.2697947214076246
1.2531769305962854
1.2375366568914956
1.2228739002932552
1.209188660801564
1.2003910068426198
1.1945259042033236
1.1896383186705768
1.1857282502443791
1.1827956989247312
1.1779081133919844
1.1710654936461389
1.1622678396871946
1.152492668621701
1.144672531769306
1.1407624633431086
1.13880742913001
1.1378299120234605
1.1378299120234605
1.13880742913001
1.13880742913001
1.1348973607038124
1.1290322580645162
1.1231671554252198
1.118279569892473
1.1163245356793745
1.115347018572825
1.1143695014662756
1.115347018572825
1.1221896383186705
1.1378299120234605
1.1622678396871946
1.2003910068426198
1.2619745845552297
1.3519061583577712
1.474095796676442
1.6236559139784943
1.793743890518084
1.9736070381231672
2.1544477028347995
2.329423264907136
2.49266862170088
2.636363636363636
2.760508308895406
2.8514173998044967
2.917888563049853
2.981427174975562
3.035190615835777
3.078201368523949
3.110459433040078
3.132942326490713
3.1436950146627565
3.147605083088954
3.145650048875855
3.136852394916911
3.124144672531769
3.1055718475073317
3.080156402737048
3.050830889540567
3.013685239491691
2.9696969696969697
2.918866080156403
2.8611925708699903
2.7966764418377323
2.724340175953079
2.6471163245356792
2.565982404692082
2.482893450635386
2.403714565004888
2.334310850439883
2.270772238514174
2.206256109481916
2.145650048875855
2.0928641251221896
2.047898338220919
2.0097751710654936
1.9794721407624636
1.9589442815249267
1.946236559139785
1.9364613880742916
1.9315738025415443
1.8973607038123168
1.844574780058651
1.81524926686217
1.7976539589442817
1.7869012707722385
1.7781036168132942
1.7712609970674489
1.7653958944281525
1.7575757575757576
1.7497556207233629
1.7419354838709675
1.732160312805474
1.721407624633431
1.7126099706744868
1.7038123167155426
1.6911045943304008
1.6735092864125125
1.6529814271749756
1.632453567937439
1.611925708699902
1.595307917888563
1.581622678396872
1.56891495601173
1.5571847507331378
1.5454545454545454
1.5376344086021505
1.5288367546432062
1.5161290322580645
1.501466275659824
1.4858260019550342
1.469208211143695
1.452590420332356
1.4389051808406648
1.4281524926686218
1.4173998044965788
1.409579667644184
1.4027370478983383
1.3978494623655917
1.3949169110459434
1.3890518084066472
1.3812316715542523
1.3714565004887584
1.3607038123167154
1.3499511241446724
1.3391984359726294
1.3284457478005864
1.3206256109481915
1.313782991202346
1.3069403714565004
1.3010752688172045
1.2971652003910068
1.295210166177908
1.289345063538612
1.2825024437927663
1.2766373411534702
1.2688172043010753
1.260019550342131
1.2512218963831867
1.24633431085044
1.2502443792766371
1.2688172043010753
1.3128054740957966
1.370478983382209
1.4467253176930597
1.5591397849462365
1.7008797653958945
1.8602150537634408
2.0303030303030303
2.201368523949169
2.367546432062561
2.5219941348973607
2.6559139784946235
2.7702834799608995
2.865102639296188
2.93841642228739
2.9853372434017595
3.0127077223851417
3.0361681329423265
3.053763440860215
3.0635386119257086
3.0684261974584555
3.069403714565005
3.065493646138808
3.056695992179863
3.043010752688172
3.022482893450636
2.994134897360704
2.959921798631476
2.920821114369501
2.873900293255132
2.8181818181818183
2.7536656891495603
2.6803519061583576
2.5972629521016617
2.50733137829912
2.412512218963832
2.29227761485826
2.185728250244379
2.1094819159335287
2.0303030303030303
1.9608993157380252
1.900293255131965
1.8387096774193548
1.782991202346041
1.7350928641251222
1.6930596285434996
1.6578690127077225
1.6285434995112416
1.607038123167155
1.5943304007820136
1.5835777126099706
1.573802541544477
1.5669599217986314
1.5591397849462365
1.5493646138807429
1.5376344086021505
1.52297165200391
1.5073313782991202
1.4916911045943304
1.4750733137829912
1.458455522971652
1.4418377321603129
1.4271749755620724
1.412512218963832
1.396871945259042
1.383186705767351
1.3695014662756595
1.3519061583577712
1.3333333333333333
1.3157380254154447
1.300097751710655
1.2854349951124144
1.2697947214076246
1.2541544477028348
1.241446725317693
1.227761485826002
1.2130987292277615
1.2013685239491692
1.1925708699902249
1.1837732160312806
1.176930596285435
1.1710654936461389
1.1652003910068427
1.1564027370478984
1.1466275659824048
1.1358748778103618
1.1251221896383188
1.1173020527859236
1.110459433040078
1.1016617790811338
1.093841642228739
1.0869990224828934
