ppg
1.2942326490713587
1.3304007820136852
1.375366568914956
1.4271749755620724
1.4848484848484849
1.5464320625610948
1.6109481915933528
1.6686217008797657
1.7233626588465298
1.782991202346041
1.8455522971652003
1.9120234604105573
1.9853372434017595
2.0664711632453567
2.155425219941349
2.2502443792766376
2.347996089931574
2.443792766373412
2.530791788856305
2.6050830889540566
2.658846529814272
2.696969696969697
2.7282502443792764
2.7497556207233624
2.763440860215054
2.771260997067449
2.773216031280548
2.771260997067449
2.768328445747801
2.7624633431085046
2.7517106549364616
2.735092864125122
2.7145650048875853
2.689149560117302
2.6608015640273703
2.6285434995112413
2.593352883675464
2.5562072336265884
2.517106549364614
2.4750733137829912
2.432062561094819
2.3900293255131966
2.3489736070381237
2.3088954056695994
2.270772238514174
2.239491691104594
2.212121212121212
2.1837732160312804
2.1524926686217007
2.121212121212121
2.0869990224828934
2.048875855327468
2.0087976539589443
1.9657869012707725
1.920821114369501
1.8748778103616808
1.827956989247312
1.7898338220918866
1.758553274682307
1.7243401759530792
1.6881720430107527
1.653958944281525
1.6236559139784943
1.5933528836754642
1.5620723362658846
1.530791788856305
1.501466275659824
1.4721407624633431
1.4428152492668622
1.4134897360703813
1.391006842619746
1.3714565004887584
1.3479960899315735
1.324535679374389
1.300097751710655
1.2756598240469208
1.2512218963831867
1.2258064516129032
1.198435972629521
1.1700879765395895
1.142717497556207
1.118279569892473
1.1016617790811338
1.088954056695992
1.0713587487781036
1.0498533724340176
1.0273704789833822
1.0048875855327468
0.9833822091886608
0.9618768328445748
0.9413489736070382
0.9208211143695014
0.9002932551319648
0.8807429130009775
0.8621700879765396
0.852394916911046
0.8465298142717498
0.8377321603128055
0.8299120234604106
0.8269794721407625
0.8318670576735093
0.844574780058651
0.8670576735092864
0.9012707722385142
0.9442815249266864
0.997067448680352
1.0576735092864125
1.118279569892473
1.181818181818182
1.2541544477028348
1.332355816226784
1.414467253176931
1.498533724340176
1.58455522971652
1.672531769305963
1.761485826001955
1.8494623655913975
1.93841642228739
2.026392961876833
2.1114369501466275
2.182795698924731
2.2453567937438903
2.310850439882698
2.375366568914956
2.436950146627566
2.49266862170088
2.5405669599217986
2.5806451612903225
2.610948191593353
2.6295210166177907
2.636363636363636
2.635386119257087
2.6265884652981426
2.610948191593353
2.5884652981427174
2.5610948191593352
2.5317693059628543
2.5024437927663734
2.4731182795698925
2.4457478005865103
2.419354838709677
2.393939393939394
2.3685239491691106
2.343108504398827
2.314760508308896
2.2883675464320627
2.264907135874878
2.239491691104594
2.212121212121212
2.1847507331378297
2.157380254154448
2.129032258064516
2.0987292277614857
2.067448680351906
2.035190615835777
2.0019550342130987
1.9667644183773216
1.935483870967742
1.90811339198436
1.8778103616813293
1.8465298142717497
1.8142717497556209
1.782991202346041
1.7517106549364614
1.7204301075268815
1.6901270772238517
1.66177908113392
1.635386119257087
1.6099706744868034
1.58455522971652
1.5650048875855327
1.547409579667644
1.5239491691104594
1.4975562072336266
1.4701857282502444
1.4418377321603129
1.4134897360703813
1.3861192570869991
1.359726295210166
1.3343108504398826
1.3088954056695992
1.284457478005865
1.2668621700879763
1.2561094819159335
1.24633431085044
1.2404692082111437
1.238514173998045
1.2404692082111437
1.2482893450635386
1.2609970674486803
1.2795698924731185
1.3069403714565004
1.3421309872922775
1.3851417399804498
1.4349951124144673
1.4848484848484849
1.5366568914956011
1.5972629521016617
1.664711632453568
1.737047898338221
1.812316715542522
1.9286412512218964
2.0664711632453567
2.1739980449657867
2.2658846529814274
2.3499511241446727
2.426197458455523
2.4858260019550342
2.535679374389052
2.587487781036168
2.636363636363636
2.6803519061583576
2.719452590420332
2.752688172043011
2.7781036168132944
2.7966764418377323
2.809384164222874
2.814271749755621
2.812316715542522
2.8025415444770285
2.788856304985337
2.7722385141739982
2.7517106549364616
2.729227761485826
2.705767350928641
2.681329423264907
2.654936461388074
2.627565982404692
2.5992179863147604
2.572825024437928
2.547409579667644
2.5219941348973607
2.4995112414467253
2.4780058651026398
2.4545454545454546
2.4281524926686218
2.401759530791789
2.3743890518084068
2.346041055718475
2.3167155425219943
2.286412512218964
2.2551319648093844
2.222873900293255
2.1925708699902247
2.167155425219941
2.144672531769306
2.118279569892473
2.089931573802541
2.0625610948191597
2.037145650048876
2.010752688172043
1.9833822091886608
1.956989247311828
1.9305962854349952
1.9042033235581624
1.878787878787879
1.8533724340175952
1.8328445747800584
1.81524926686217
1.7956989247311828
1.775171065493646
1.7565982404692082
1.737047898338221
1.7165200391006843
1.6979472140762464
1.6793743890518085
1.6608015640273706
1.6422287390029326
1.6256109481915937
1.6138807429130009
1.6041055718475072
1.590420332355816
1.5747800586510263
1.5591397849462365
1.544477028347996
1.5298142717497556
1.517106549364614
1.504398826979472
1.490713587487781
1.478005865102639
1.4643206256109482
1.4496578690127078
1.439882697947214
1.43108504398827
1.4213098729227762
1.4134897360703813
1.4086021505376345
1.4066471163245358
1.4086021505376345
1.4164222873900294
1.4330400782013686
1.457478005865103
1.4897360703812317
1.5288367546432062
1.5708699902248289
1.6158357771260996
1.6695992179863148
1.7302052785923754
1.7956989247311828
1.865102639296188
1.9374389051808407
2.0127077223851417
2.089931573802541
2.1681329423264906
2.247311827956989
2.3284457478005867
2.4086021505376345
2.47702834799609
2.5386119257087
2.6070381231671558
2.677419354838709
2.745845552297165
2.8103616813294234
2.8690127077223853
2.921798631476051
2.9687194525904204
3.007820136852395
3.0391006842619745
3.060606060606061
3.069403714565005
3.067448680351906
3.059628543499511
3.0439882697947214
3.022482893450636
2.994134897360704
2.960899315738025
2.927663734115347
2.895405669599218
2.863147605083089
2.83088954056696
2.7996089931573804
2.76930596285435
2.740957966764418
2.7145650048875853
2.687194525904203
2.659824046920821
2.631476050830889
2.6041055718475072
2.575757575757576
2.547409579667644
2.5180840664711632
2.4858260019550342
2.450635386119257
2.4144672531769307
2.3822091886608017
2.350928641251222
2.315738025415445
2.27761485826002
2.2385141739980448
2.20039100684262
2.163245356793744
2.126099706744868
2.089931573802541
2.053763440860215
2.018572825024438
1.9843597262952104
1.9521016617790807
1.927663734115347
1.906158357771261
1.8807429130009776
1.8543499511241448
1.8269794721407624
1.7976539589442817
1.7673509286412512
1.7360703812316716
1.7057673509286413
1.6774193548387095
1.651026392961877
1.624633431085044
1.603128054740958
1.58455522971652
1.564027370478983
1.5454545454545454
1.5288367546432062
1.5141739980449658
1.5053763440860215
1.5034213098729228
1.5112414467253177
1.5288367546432062
1.5532746823069403
1.585532746823069
1.624633431085044
1.6656891495601174
1.7096774193548387
1.7605083088954057
1.818181818181818
1.881720430107527
1.948191593352884
2.018572825024438
2.0928641251221896
2.16911045943304
2.247311827956989
2.3274682306940373
2.4056695992179864
2.4701857282502444
2.5268817204301075
2.5884652981427174
2.650048875855328
2.705767350928641
2.7546432062561097
2.7976539589442817
2.8367546432062563
2.8699902248289346
2.8963831867057674
2.9149560117302054
2.924731182795699
2.9266862170087977
2.921798631476051
2.911045943304008
2.8963831867057674
2.87683284457478
2.8533724340175954
2.8269794721407626
2.798631476050831
2.768328445747801
2.736070381231672
2.701857282502444
2.6666666666666665
2.631476050830889
2.598240469208211
2.567937438905181
2.5376344086021505
2.5083088954056696
2.479960899315738
2.4516129032258065
2.423264907135875
2.3949169110459434
2.364613880742913
2.332355816226784
2.300097751710655
2.2668621700879767
2.236559139784946
2.207233626588465
2.1739980449657867
2.1388074291300097
2.099706744868035
2.06158357771261
2.026392961876833
1.992179863147605
1.9589442815249267
1.927663734115347
1.8973607038123168
1.868035190615836
1.839687194525904
1.8162267839687196
1.796676441837732
1.775171065493646
1.750733137829912
1.7233626588465298
1.6950146627565983
1.6666666666666667
1.6383186705767352
1.6099706744868034
1.581622678396872
1.5542521994134897
1.5298142717497556
1.5141739980449658
1.4037145650048877
1.238514173998045
1.1407624633431086
1.0791788856304985
1.0361681329423265
1.0039100684261977
0.978494623655914
0.9560117302052786
0.935483870967742
0.913978494623656
0.8924731182795699
0.8719452590420332
0.8602150537634409
0.8514173998044966
0.8357771260997068
0.8172043010752689
0.7986314760508308
0.7800586510263929
0.7634408602150538
0.7526881720430108
0.750733137829912
0.7595307917888563
0.7790811339198436
0.8093841642228738
0.8465298142717498
0.8914956011730205
0.946236559139785
1.0097751710654936
1.0801564027370478
1.1583577712609971
1.2443792766373412
1.3362658846529814
1.4349951124144673
1.5386119257087
1.6441837732160314
1.750733137829912
1.857282502443793
1.9521016617790807
2.037145650048876
2.131964809384164
2.2297165200391005
2.326490713587488
2.420332355816227
2.5102639296187683
2.5962854349951123
2.67644183773216
2.747800586510264
2.8103616813294234
2.8641251221896384
2.902248289345064
2.9257086999022484
2.9442815249266863
2.9550342130987293
2.95405669599218
2.9442815249266863
2.927663734115347
2.905180840664712
2.87683284457478
2.844574780058651
2.8132942326490715
2.782013685239492
2.750733137829912
2.720430107526881
2.6911045943304006
2.66177908113392
2.632453567937439
2.6041055718475072
2.573802541544477
2.5425219941348973
2.5102639296187683
2.47702834799609
2.443792766373412
2.4086021505376345
2.3743890518084068
2.346041055718475
2.318670576735093
2.2873900293255134
2.2551319648093844
2.2238514173998043
2.1925708699902247
2.160312805474096
2.1270772238514173
2.0928641251221896
2.056695992179863
2.018572825024438
1.9804496578690127
1.9442815249266865
1.913978494623656
1.8875855327468232
1.857282502443793
1.825024437927664
1.793743890518084
1.7634408602150538
1.7331378299120237
1.7018572825024438
1.672531769305963
1.6441837732160314
1.6177908113391983
1.5933528836754642
1.573802541544477
1.5562072336265884
1.5386119257087
1.521994134897361
1.509286412512219
1.501466275659824
1.498533724340176
1.5024437927663734
1.5151515151515151
1.5376344086021505
1.5718475073313782
1.6177908113391983
1.6735092864125125
1.7272727272727273
1.7839687194525904
1.8543499511241448
1.932551319648094
2.01564027370479
2.101661779081134
2.1867057673509285
2.269794721407625
2.3519061583577714
2.4301075268817205
2.5024437927663734
2.570869990224829
2.625610948191593
2.6725317693059627
2.721407624633431
2.764418377321604
2.80058651026393
2.8289345063538613
2.850439882697948
2.8641251221896384
2.868035190615836
2.863147605083089
2.8484848484848486
2.8269794721407626
2.80058651026393
2.771260997067449
2.7419354838709675
2.708699902248289
2.674486803519061
2.641251221896383
2.610948191593353
2.581622678396872
2.552297165200391
2.5239491691104594
2.498533724340176
2.472140762463343
2.443792766373412
2.41544477028348
2.388074291300098
2.356793743890518
2.3225806451612905
2.2854349951124147
2.2453567937438903
2.203323558162268
2.1593352883675463
2.113391984359726
2.0664711632453567
2.018572825024438
1.9716520039100685
1.9257086999022484
1.8866080156402736
1.8523949169110456
1.8132942326490715
1.7732160312805474
1.7341153470185728
1.696969696969697
1.66177908113392
1.6285434995112416
1.598240469208211
1.56891495601173
1.5376344086021505
1.5053763440860215
1.478983382209189
1.456500488758553
1.4271749755620724
1.3919843597262953
1.35386119257087
1.3157380254154447
1.2766373411534702
1.238514173998045
1.203323558162268
1.1710654936461389
1.1407624633431086
1.1114369501466277
1.0821114369501466
1.0606060606060606
1.043010752688172
1.0205278592375366
0.997067448680352
0.9736070381231672
0.9521016617790812
0.9345063538611924
0.9188660801564028
0.9051808406647116
0.8944281524926686
0.8885630498533724
0.8895405669599218
0.8993157380254154
0.9188660801564028
0.946236559139785
0.9843597262952102
1.032258064516129
1.0879765395894427
1.1534701857282503
1.227761485826002
1.310850439882698
1.4007820136852396
1.4975562072336266
1.6001955034213098
1.6930596285434996
1.7810361681329423
1.881720430107527
1.988269794721408
2.0948191593352883
2.19941348973607
2.3010752688172045
2.3978494623655915
2.4887585532746823
2.5747800586510263
2.654936461388074
2.730205278592375
2.798631476050831
2.8514173998044967
2.8914956011730206
2.930596285434995
2.963831867057673
2.9872922776148583
3.0
3.0019550342130987
2.9931573802541545
2.9745845552297165
2.9472140762463344
2.913978494623656
2.878787878787879
2.843597262952102
2.8084066471163247
2.774193548387097
2.740957966764418
2.70772238514174
2.675464320625611
2.643206256109482
2.610948191593353
2.576735092864125
2.541544477028348
2.50733137829912
2.472140762463343
2.434017595307918
2.396871945259042
2.361681329423265
2.32355816226784
2.281524926686217
2.2385141739980448
2.1955034213098727
2.1524926686217007
2.1358748778103616
2.134897360703812
2.1163245356793743
2.0869990224828934
2.0527859237536656
2.021505376344086
1.992179863147605
1.9579667644183771
1.921798631476051
1.8856304985337244
1.8494623655913975
1.8132942326490715
1.7790811339198436
1.7448680351906158
1.710654936461388
1.6793743890518085
1.6500488758553276
1.6226783968719452
1.6011730205278591
1.58455522971652
1.565982404692082
1.5493646138807429
1.5356793743890518
1.5268817204301075
1.5239491691104594
1.5268817204301075
1.5376344086021505
1.5581622678396871
1.5865102639296187
1.624633431085044
1.664711632453568
1.70772238514174
1.7605083088954057
1.8211143695014664
1.8856304985337244
1.9550342130987293
2.027370478983382
2.1006842619745845
2.1730205278592374
2.243401759530792
2.3118279569892475
2.376344086021505
2.436950146627566
2.484848484848485
2.5219941348973607
2.555229716520039
2.5835777126099706
2.6050830889540566
2.618768328445748
2.625610948191593
2.625610948191593
2.6207233626588464
2.610948191593353
2.595307917888563
2.5747800586510263
2.5542521994134897
2.532746823069404
2.50733137829912
2.4789833822091887
2.4516129032258065
2.4242424242424243
2.3958944281524928
2.3655913978494625
2.333333333333333
2.302052785923754
2.271749755620724
2.2404692082111435
2.206256109481916
2.175953079178885
2.1485826001955037
2.120234604105572
2.090909090909091
2.060606060606061
2.03128054740958
2.0019550342130987
1.970674486803519
1.93841642228739
1.905180840664712
1.871945259042033
1.8387096774193548
1.8093841642228736
1.782991202346041
1.7556207233626588
1.7272727272727273
1.6979472140762464
1.6695992179863148
1.643206256109482
1.616813294232649
1.5913978494623655
1.565982404692082
1.5395894428152492
1.5131964809384164
1.487781036168133
1.466275659824047
1.4496578690127078
1.4291300097751711
1.4076246334310851
1.3870967741935485
1.367546432062561
1.346041055718475
1.324535679374389
1.3040078201368523
1.2805474095796676
1.2570869990224829
1.2355816226783969
1.2209188660801564
1.2130987292277615
1.2013685239491692
1.1886608015640274
1.1759530791788857
1.1612903225806452
1.144672531769306
1.1290322580645162
1.115347018572825
1.1026392961876832
1.0918866080156402
1.0801564027370478
1.0664711632453567
1.0596285434995112
1.0576735092864125
1.0518084066471165
1.0469208211143697
1.04594330400782
1.0498533724340176
1.0596285434995112
1.0772238514173995
1.1026392961876832
1.1368523949169111
1.1788856304985338
1.2297165200391007
1.2834799608993157
1.3421309872922775
1.4105571847507332
1.487781036168133
1.5728250244379276
1.6637341153470186
1.7605083088954057
1.8621700879765395
1.9657869012707725
2.072336265884653
2.1788856304985336
2.283479960899316
2.3870967741935485
2.474095796676442
2.550342130987292
2.633431085043988
2.718475073313783
2.803519061583578
2.884652981427175
2.9589442815249267
3.0254154447702835
3.083088954056696
3.1300097751710654
3.164222873900293
3.185728250244379
3.1925708699902247
3.189638318670577
3.1818181818181817
3.167155425219941
3.145650048875855
3.117302052785924
3.0879765395894427
3.058651026392962
3.029325513196481
3.0
2.9716520039100685
2.9423264907135875
2.9120234604105573
2.8807429130009776
2.8484848484848486
2.8152492668621703
2.782013685239492
2.7468230694037143
2.713587487781036
2.6823069403714563
2.650048875855328
2.616813294232649
2.58455522971652
2.5542521994134897
2.5239491691104594
2.495601173020528
2.469208211143695
2.441837732160313
2.4115347018572826
2.380254154447703
2.347018572825025
2.312805474095797
2.2766373411534704
2.239491691104594
2.203323558162268
2.1681329423264906
2.133919843597263
2.103616813294233
2.078201368523949
2.053763440860215
2.03128054740958
2.0097751710654936
1.9872922776148585
1.963831867057673
1.9403714565004888
1.916911045943304
1.8944281524926687
1.8729227761485825
1.8494623655913975
1.825024437927664
1.804496578690127
1.7869012707722385
1.7673509286412512
1.7468230694037146
1.7233626588465298
1.6989247311827955
1.6744868035190617
1.6500488758553276
1.6285434995112416
1.608993157380254
1.5933528836754642
1.5826001955034212
1.5777126099706744
1.5796676441837731
1.587487781036168
1.6021505376344083
1.6226783968719452
1.651026392961877
1.6881720430107527
1.7331378299120237
1.7849462365591398
1.8435972629521016
1.90811339198436
1.9765395894428155
2.048875855327468
2.113391984359726
2.2130987292277613
2.290322580645161
2.3734115347018574
2.547409579667644
2.634408602150537
2.721407624633431
2.8455522971652005
2.9227761485826003
2.9960899315738025
3.053763440860215
3.103616813294233
3.160312805474096
3.2160312805474094
3.2668621700879767
3.310850439882698
3.347996089931574
3.375366568914956
3.3929618768328447
3.3978494623655915
3.391006842619746
3.3734115347018574
3.346041055718475
3.313782991202346
3.182795698924731
3.002932551319648
2.895405669599218
2.7976539589442817
2.7497556207233624
2.7096774193548385
2.654936461388074
2.6177908113391983
2.5835777126099706
2.550342130987292
2.5180840664711632
2.487781036168133
2.4565004887585533
2.4252199413489737
2.3929618768328447
2.358748778103617
2.32355816226784
2.2883675464320627
2.2521994134897363
2.2140762463343107
2.175953079178885
2.1358748778103616
2.0957966764418376
2.060606060606061
2.0283479960899315
1.992179863147605
1.946236559139785
1.906158357771261
1.87683284457478
1.8455522971652003
1.8142717497556209
1.7820136852394917
1.750733137829912
1.721407624633431
1.6911045943304008
1.6656891495601174
1.643206256109482
1.616813294232649
1.587487781036168
1.5571847507331378
1.5288367546432062
1.501466275659824
1.474095796676442
1.4486803519061584
1.423264907135875
1.3978494623655917
1.3724340175953078
1.3479960899315735
1.3284457478005864
1.310850439882698
1.2913000977517106
1.2727272727272727
1.2541544477028348
1.2346041055718475
1.2052785923753666
1.1867057673509287
1.1681329423264908
1.141739980449658
1.1231671554252198
1.110459433040078
1.1006842619745845
1.0869990224828934
1.0733137829912025
1.0625610948191593
1.0576735092864125
1.0596285434995112
1.0694037145650048
1.0869990224828934
1.115347018572825
1.1515151515151516
1.195503421309873
1.24633431085044
1.2981427174975562
1.3509286412512218
1.4115347018572826
1.478005865102639
1.5483870967741935
1.6207233626588464
1.6959921798631477
1.7732160312805474
1.8514173998044965
1.9296187683284456
2.007820136852395
2.085043988269794
2.1515151515151514
2.212121212121212
2.27761485826002
2.345063538611926
2.409579667644184
2.4682306940371457
2.5210166177908118
2.565982404692082
2.603128054740958
2.631476050830889
2.6510263929618767
2.662756598240469
2.665689149560117
2.658846529814272
2.644183773216031
2.622678396871945
2.5972629521016617
2.567937438905181
2.536656891495601
2.5083088954056696
2.4809384164222874
2.455522971652004
2.4301075268817205
2.4056695992179864
2.383186705767351
2.361681329423265
2.3411534701857284
2.3196480938416424
2.2961876832844577
2.271749755620724
2.247311827956989
2.220918866080156
2.1925708699902247
2.163245356793744
2.131964809384164
2.0977517106549364
2.064516129032258
2.03128054740958
2.002932551319648
1.9765395894428155
1.949169110459433
1.920821114369501
1.889540566959922
1.857282502443793
1.825024437927664
1.7927663734115349
1.761485826001955
1.732160312805474
1.7028347996089932
1.6744868035190617
1.6520039100684265
1.6334310850439884
1.6148582600195502
1.5933528836754642
1.5698924731182795
1.5464320625610948
1.52297165200391
1.500488758553275
1.478005865102639
1.456500488758553
1.434017595307918
1.412512218963832
1.396871945259042
1.3851417399804498
1.370478983382209
1.3577712609970674
1.3519061583577712
1.35386119257087
1.364613880742913
1.392961876832845
1.4252199413489737
1.452590420332356
1.4897360703812317
1.5347018572825024
1.58455522971652
1.632453567937439
1.6813294232649072
1.7380254154447703
1.8005865102639296
1.869012707722385
1.9413489736070384
2.01564027370479
2.0928641251221896
2.1700879765395893
2.2453567937438903
2.317693059628544
2.3870967741935485
2.441837732160313
2.4887585532746823
2.5376344086021505
2.58455522971652
2.6285434995112413
2.6666666666666665
2.6989247311827955
2.7223851417399803
2.73802541544477
2.744868035190616
2.7419354838709675
2.7311827956989245
2.7126099706744866
2.689149560117302
2.662756598240469
2.634408602150537
2.6041055718475072
2.5718475073313782
2.5405669599217986
2.5112414467253177
2.482893450635386
2.4545454545454546
2.4242424242424243
2.393939393939394
2.364613880742913
2.337243401759531
2.310850439882698
2.2844574780058653
2.2580645161290325
2.2297165200391005
2.20039100684262
2.1700879765395893
2.136852394916911
2.103616813294233
2.071358748778104
2.040078201368524
2.0087976539589443
1.9775171065493649
1.951124144672532
1.927663734115347
1.9012707722385145
1.873900293255132
1.847507331378299
1.822091886608016
1.796676441837732
1.7712609970674489
1.747800586510264
1.7253176930596286
1.7028347996089932
1.6813294232649072
1.6627565982404693
1.6471163245356797
1.6285434995112416
1.608993157380254
1.5884652981427174
1.565982404692082
1.542521994134897
1.5190615835777126
1.4965786901270772
1.4760508308895406
1.4594330400782014
1.4437927663734116
1.4291300097751711
1.4173998044965788
1.4056695992179864
1.392961876832845
1.3792766373411536
1.3655913978494625
1.3528836754643203
1.3411534701857282
1.3294232649071358
1.316715542521994
1.3020527859237536
1.2864125122189638
1.2717497556207231
1.2619745845552297
1.2570869990224829
1.2512218963831867
1.24633431085044
1.2434017595307918
1.2453567937438903
1.2541544477028348
1.2688172043010753
1.2864125122189638
1.3098729227761483
1.3479960899315735
1.396871945259042
1.4545454545454546
1.5112414467253177
1.5698924731182795
1.6392961876832846
1.7165200391006843
1.8005865102639296
1.889540566959922
1.981427174975562
2.0772238514174
2.175953079178885
2.2737047898338223
2.36950146627566
2.463343108504399
2.541544477028348
2.6099706744868034
2.687194525904203
2.766373411534702
2.843597262952102
2.916911045943304
2.986314760508309
3.050830889540567
3.10850439882698
3.157380254154448
3.19941348973607
3.2297165200391005
