ppg
1.5083088954056696
1.495601173020528
1.482893450635386
1.4701857282502444
1.457478005865103
1.4457478005865103
1.4349951124144673
1.4271749755620724
1.4222873900293256
1.418377321603128
1.414467253176931
1.4105571847507332
1.4056695992179864
1.401759530791789
1.3988269794721409
1.3919843597262953
1.3851417399804498
1.3792766373411536
1.3743890518084063
1.3695014662756595
1.364613880742913
1.3587487781036167
1.3519061583577712
1.3450635386119256
1.3391984359726294
1.3362658846529814
1.335288367546432
1.3333333333333333
1.3304007820136852
1.327468230694037
1.324535679374389
1.3225806451612905
1.3206256109481915
1.3186705767350928
1.3186705767350928
1.321603128054741
1.3284457478005864
1.3421309872922775
1.3616813294232648
1.3890518084066472
1.4281524926686218
1.4819159335288368
1.5513196480938416
1.635386119257087
1.7341153470185728
1.8435972629521016
1.959921798631476
2.080156402737048
2.20039100684262
2.317693059628544
2.4134897360703813
2.493646138807429
2.578690127077224
2.66177908113392
2.73802541544477
2.806451612903226
2.866080156402737
2.918866080156403
2.962854349951124
3.0009775171065494
3.0361681329423265
3.0664711632453567
3.0928641251221896
3.1094819159335287
3.120234604105572
3.133919843597263
3.1485826001955037
3.160312805474096
3.1681329423264906
3.172043010752688
3.1710654936461387
3.163245356793744
3.1485826001955037
3.1280547409579667
3.1006842619745845
3.067448680351906
3.0283479960899315
2.9824046920821115
2.930596285434995
2.873900293255132
2.8132942326490715
2.748778103616813
2.681329423264907
2.613880742913001
2.547409579667644
2.4838709677419355
2.4252199413489737
2.372434017595308
2.3284457478005867
2.291300097751711
2.2561094819159337
2.225806451612903
2.196480938416422
2.16911045943304
2.1436950146627565
2.1192570869990224
2.0957966764418376
2.071358748778104
2.04594330400782
2.0195503421309877
1.9951124144672527
1.9716520039100685
1.945259042033236
1.9159335288367547
1.8866080156402736
1.858260019550342
1.83088954056696
1.804496578690127
1.7771260997067448
1.750733137829912
1.726295210166178
1.7018572825024438
1.6793743890518085
1.66177908113392
1.6471163245356797
1.632453567937439
1.616813294232649
1.6011730205278591
1.585532746823069
1.5679374389051808
1.5503421309872922
1.5347018572825024
1.521016617790811
1.5073313782991202
1.4946236559139785
1.4848484848484849
1.47702834799609
1.4672531769305963
1.455522971652004
1.444770283479961
1.4349951124144673
1.426197458455523
1.4173998044965788
1.4105571847507332
1.4027370478983383
1.393939393939394
1.3851417399804498
1.375366568914956
1.3685239491691104
1.3626588465298142
1.3548387096774193
1.3470185728250244
1.3421309872922775
1.3450635386119256
1.3577712609970674
1.383186705767351
1.4222873900293256
1.4760508308895406
1.5454545454545454
1.6285434995112416
1.7096774193548387
1.7927663734115349
1.8914956011730208
1.9990224828934504
2.10850439882698
2.21505376344086
2.3167155425219943
2.4115347018572826
2.496578690127077
2.572825024437928
2.6402737047898337
2.6989247311827955
2.7497556207233624
2.78494623655914
2.8103616813294234
2.838709677419355
2.8670576735092865
2.8914956011730206
2.9149560117302054
2.93841642228739
2.9589442815249267
2.9765395894428157
2.9902248289345064
2.9980449657869013
3.0
2.995112414467253
2.983382209188661
2.967741935483871
2.9472140762463344
2.920821114369501
2.887585532746823
2.8475073313782997
2.80058651026393
2.7468230694037143
2.687194525904203
2.6236559139784945
2.557184750733138
2.489736070381232
2.429130009775171
2.372434017595308
2.3118279569892475
2.2521994134897363
2.132942326490713
1.9872922776148585
1.895405669599218
1.8318670576735088
1.7849462365591398
1.7458455522971652
1.7116324535679377
1.6793743890518085
1.6529814271749756
1.629521016617791
1.6041055718475072
1.5777126099706744
1.5493646138807429
1.5190615835777126
1.4868035190615836
1.455522971652004
1.4242424242424243
1.391006842619746
1.3587487781036167
1.3284457478005864
1.3049853372434017
1.2834799608993157
1.260019550342131
1.2365591397849462
1.2111436950146628
1.1857282502443791
1.1622678396871946
1.1397849462365592
1.1202346041055715
1.1026392961876832
1.0869990224828934
1.072336265884653
1.0586510263929618
1.0488758553274682
1.0410557184750733
1.032258064516129
1.0224828934506354
1.0127077223851415
1.0048875855327468
0.9960899315738024
0.9863147605083088
0.9765395894428152
0.9657869012707724
0.9550342130987292
0.9452590420332356
0.9393939393939394
0.935483870967742
0.9286412512218964
0.9208211143695014
0.9130009775171064
0.9051808406647116
0.8973607038123167
0.8905180840664711
0.884652981427175
0.8817204301075269
0.884652981427175
0.8944281524926686
0.913978494623656
0.9413489736070382
0.9775171065493646
1.0283479960899315
1.0957966764418376
1.1798631476050832
1.278592375366569
1.388074291300098
1.5053763440860215
1.6256109481915937
1.7468230694037146
1.8641251221896384
1.9745845552297163
2.064516129032258
2.139784946236559
2.2170087976539588
2.2883675464320627
2.35386119257087
2.4115347018572826
2.4613880742913
2.505376344086021
2.544477028347996
2.578690127077224
2.608993157380254
2.6373411534701856
2.662756598240469
2.678396871945259
2.689149560117302
2.699902248289345
2.70772238514174
2.7096774193548385
2.7067448680351904
2.697947214076246
2.6823069403714563
2.658846529814272
2.627565982404692
2.587487781036168
2.539589442815249
2.489736070381232
2.4379276637341154
2.378299120234604
2.314760508308896
2.2482893450635384
2.1788856304985336
2.110459433040078
2.0449657869012707
1.9843597262952104
1.9286412512218964
1.8778103616813293
1.83088954056696
1.7898338220918866
1.7565982404692082
1.7282502443792769
1.6989247311827955
1.6705767350928642
1.6441837732160314
1.619745845552297
1.5943304007820136
1.5679374389051808
1.5405669599217986
1.512218963831867
1.4809384164222874
1.4486803519061584
1.4193548387096775
1.3919843597262953
1.3587487781036167
1.3235581622678396
1.2873900293255132
1.252199413489736
1.2179863147605083
1.1857282502443791
1.155425219941349
1.1270772238514175
1.1006842619745845
1.075268817204301
1.0518084066471165
1.035190615835777
1.0234604105571847
1.010752688172043
0.997067448680352
0.9833822091886608
0.9696969696969696
0.9560117302052786
0.9413489736070382
0.927663734115347
0.9159335288367546
0.9042033235581622
0.8934506353861192
0.8875855327468231
0.8836754643206256
0.8758553274682307
0.8641251221896383
0.8494623655913979
0.833822091886608
0.8181818181818182
0.8035190615835777
0.7898338220918866
0.7761485826001955
0.7624633431085044
0.7487781036168133
0.7350928641251222
0.7262952101661779
0.7214076246334311
0.7174975562072337
0.7174975562072337
0.7233626588465298
0.7390029325513197
0.7673509286412512
0.8093841642228738
0.8670576735092864
0.9393939393939394
1.0254154447702837
1.1241446725317692
1.217008797653959
1.3079178885630498
1.409579667644184
1.5141739980449658
1.6158357771260996
1.710654936461388
1.7986314760508308
1.87683284457478
1.9442815249266865
2.0019550342130987
2.0498533724340176
2.089931573802541
2.124144672531769
2.147605083088954
2.1652003910068425
2.1837732160312804
2.203323558162268
2.2218963831867056
2.2385141739980448
2.2521994134897363
2.2639296187683287
2.271749755620724
2.2766373411534704
2.2766373411534704
2.269794721407625
2.257086999022483
2.2375366568914954
2.212121212121212
2.1788856304985336
2.1378299120234603
2.089931573802541
2.0361681329423265
1.9765395894428155
1.9130009775171064
1.847507331378299
1.782991202346041
1.7223851417399805
1.664711632453568
1.6148582600195502
1.5728250244379276
1.530791788856305
1.490713587487781
1.455522971652004
1.4252199413489737
1.3988269794721409
1.375366568914956
1.35386119257087
1.3343108504398826
1.3128054740957966
1.289345063538612
1.2688172043010753
1.249266862170088
1.224828934506354
1.1964809384164223
1.1671554252199414
1.13880742913001
1.110459433040078
1.083088954056696
1.056695992179863
1.032258064516129
1.0097751710654936
0.9882697947214076
0.9667644183773216
0.9511241446725318
0.93841642228739
0.9237536656891496
0.9090909090909092
0.8963831867057673
0.884652981427175
0.873900293255132
0.863147605083089
0.8533724340175953
0.844574780058651
0.8367546432062561
0.8299120234604106
0.8260019550342131
0.8250244379276638
0.823069403714565
0.820136852394917
0.8152492668621701
0.8103616813294232
0.8074291300097751
0.804496578690127
0.8005865102639296
0.7976539589442815
0.7947214076246334
0.8651026392961877
0.975562072336266
1.0342130987292275
1.0635386119257086
1.0762463343108504
1.0811339198435972
1.083088954056696
1.0850439882697946
1.0899315738025417
1.099706744868035
1.118279569892473
1.147605083088954
1.1915933528836755
1.2512218963831867
1.3157380254154447
1.3890518084066472
1.479960899315738
1.581622678396872
1.6911045943304008
1.8064516129032255
1.9227761485826005
2.037145650048876
2.1436950146627565
2.2404692082111435
2.3255131964809386
2.398826979472141
2.452590420332356
2.49266862170088
2.5288367546432062
2.560117302052786
2.5865102639296187
2.608993157380254
2.6285434995112413
2.6471163245356792
2.662756598240469
2.675464320625611
2.6852394916911044
2.6930596285435
2.6989247311827955
2.697947214076246
2.6901270772238512
2.6803519061583576
2.665689149560117
2.6451612903225805
2.6177908113391983
2.58455522971652
2.5454545454545454
2.5024437927663734
2.4565004887585533
2.4086021505376345
2.360703812316716
2.3167155425219943
2.2766373411534704
2.2355816226783967
2.198435972629521
2.1652003910068425
2.136852394916911
2.112414467253177
2.089931573802541
2.070381231671554
2.0527859237536656
2.035190615835777
2.01564027370479
1.9931573802541545
1.9716520039100685
1.949169110459433
1.924731182795699
1.8963831867057677
1.8670576735092863
1.836754643206256
1.8064516129032255
1.7761485826001957
1.7468230694037146
1.718475073313783
1.6911045943304008
1.664711632453568
1.6441837732160314
1.6275659824046922
1.608993157380254
1.5894428152492668
1.56891495601173
1.5493646138807429
1.5327468230694037
1.517106549364614
1.5024437927663734
1.4887585532746823
1.4760508308895406
1.4643206256109482
1.4535679374389052
1.447702834799609
1.4437927663734116
1.4389051808406648
1.4330400782013686
1.426197458455523
1.4193548387096775
1.4134897360703813
1.4086021505376345
1.404692082111437
1.4027370478983383
1.4037145650048877
1.4056695992179864
1.4086021505376345
1.409579667644184
1.409579667644184
1.409579667644184
1.409579667644184
1.409579667644184
1.4086021505376345
1.4086021505376345
1.409579667644184
1.409579667644184
1.409579667644184
1.409579667644184
1.4115347018572826
1.4173998044965788
1.4281524926686218
1.4457478005865103
1.4731182795698925
1.5141739980449658
1.5708699902248289
1.6441837732160314
1.7350928641251222
1.8406647116324533
1.9579667644183771
2.0840664711632453
2.21505376344086
2.326490713587488
2.426197458455523
2.532746823069404
2.6373411534701856
2.736070381231672
2.8269794721407626
2.90811339198436
2.979472140762464
3.0410557184750733
3.0957966764418376
3.1436950146627565
3.1847507331378297
3.2218963831867056
3.24633431085044
3.2639296187683287
3.2844574780058653
3.304985337243402
3.3255131964809386
3.3440860215053765
3.358748778103617
3.3685239491691106
3.3734115347018574
3.372434017595308
3.364613880742913
3.3489736070381237
3.324535679374389
3.2932551319648096
3.257086999022483
3.21505376344086
3.166177908113392
3.10850439882698
3.0439882697947214
2.9745845552297165
2.900293255131965
2.825024437927664
2.7497556207233624
2.67644183773216
2.6050830889540566
2.5425219941348973
2.4858260019550342
2.43108504398827
2.378299120234604
2.3304007820136854
2.2873900293255134
2.249266862170088
2.2130987292277613
2.1788856304985336
2.146627565982405
2.113391984359726
2.080156402737048
2.0498533724340176
2.0205278592375366
1.9872922776148585
1.9530791788856303
1.9159335288367547
1.8778103616813293
1.8406647116324533
1.8035190615835777
1.7663734115347018
1.7311827956989247
1.696969696969697
1.664711632453568
1.6344086021505375
1.6099706744868034
1.587487781036168
1.5610948191593352
1.5347018572825024
1.5112414467253177
1.4897360703812317
1.4682306940371457
1.447702834799609
1.4291300097751711
1.41544477028348
1.4027370478983383
1.3919843597262953
1.3841642228739004
1.3792766373411536
1.3714565004887584
1.3626588465298142
1.3528836754643203
1.343108504398827
1.3333333333333333
1.3225806451612905
1.3128054740957966
1.3040078201368523
1.2942326490713587
1.2854349951124144
1.2805474095796676
1.2766373411534702
1.2697947214076246
1.2609970674486803
1.2512218963831867
1.2434017595307918
1.238514173998045
1.2394916911045943
1.2482893450635386
1.267839687194526
1.300097751710655
1.3479960899315735
1.412512218963832
1.4809384164222874
1.5571847507331378
1.653958944281525
1.7644183773216031
1.881720430107527
2.0009775171065494
2.1192570869990224
2.233626588465298
2.3411534701857284
2.439882697947214
2.5268817204301075
2.6041055718475072
2.66177908113392
2.7067448680351904
2.752688172043011
2.795698924731183
2.835777126099707
2.8719452590420333
2.9042033235581624
2.9345063538611926
2.961876832844575
2.986314760508309
3.005865102639296
3.021505376344086
3.0332355816226784
3.035190615835777
3.03128054740958
3.0254154447702835
3.01564027370479
3.0009775171065494
2.8993157380254155
2.750733137829912
2.656891495601173
2.5865102639296187
2.5249266862170088
2.464320625610948
2.401759530791789
2.3440860215053765
2.289345063538612
2.2297165200391005
2.167155425219941
2.10752688172043
2.050830889540567
1.9990224828934504
1.951124144672532
1.90811339198436
1.8699902248289344
1.836754643206256
1.8084066471163245
1.7820136852394917
1.7595307917888563
1.739980449657869
1.7174975562072337
1.6930596285434996
1.6656891495601174
1.6363636363636365
1.606060606060606
1.5757575757575757
1.5464320625610948
1.5161290322580645
1.4868035190615836
1.4594330400782014
1.435972629521017
1.414467253176931
1.3900293255131966
1.364613880742913
1.33822091886608
1.3118279569892473
1.2883675464320623
1.2668621700879763
1.2453567937438903
1.224828934506354
1.206256109481916
1.1906158357771262
1.176930596285435
1.1681329423264908
1.1612903225806452
1.152492668621701
1.141739980449658
1.1300097751710656
1.1192570869990224
1.110459433040078
1.1036168132942326
1.096774193548387
1.0909090909090908
1.0850439882697946
1.078201368523949
1.075268817204301
1.0733137829912025
1.0694037145650048
1.0654936461388074
1.06158357771261
1.056695992179863
1.0518084066471165
1.0478983382209188
1.0420332355816226
1.0361681329423265
1.032258064516129
1.029325513196481
1.0312805474095796
1.040078201368524
1.0576735092864125
1.0850439882697946
1.1251221896383188
1.1798631476050832
1.249266862170088
1.332355816226784
1.426197458455523
1.5278592375366569
1.6344086021505375
1.7419354838709675
1.8484848484848484
1.93841642228739
2.01564027370479
2.096774193548387
2.174975562072336
2.247311827956989
2.310850439882698
2.3655913978494625
2.412512218963832
2.453567937438905
2.489736070381232
2.5210166177908118
2.549364613880743
2.5747800586510263
2.592375366568915
2.6041055718475072
2.6177908113391983
2.631476050830889
2.643206256109482
2.650048875855328
2.652003910068426
2.649071358748778
2.6402737047898337
2.624633431085044
2.601173020527859
2.570869990224829
2.536656891495601
2.498533724340176
2.453567937438905
2.401759530791789
2.3440860215053765
2.283479960899316
2.220918866080156
2.158357771260997
2.0987292277614857
2.042033235581622
1.9902248289345064
1.9423264907135875
1.8993157380254155
1.8641251221896384
1.8347996089931573
1.8064516129032255
1.7790811339198436
1.7526881720430108
1.726295210166178
1.6979472140762464
1.6695992179863148
1.6422287390029326
1.6129032258064515
1.5826001955034212
1.552297165200391
1.5268817204301075
1.5034213098729228
1.478005865102639
1.4516129032258065
1.423264907135875
1.393939393939394
1.364613880742913
1.3362658846529814
1.3088954056695992
1.2834799608993157
1.2590420332355816
1.2346041055718475
1.2121212121212122
1.195503421309873
1.181818181818182
1.1652003910068427
1.147605083088954
1.1300097751710656
1.1133919843597262
1.0977517106549364
1.0821114369501466
1.0664711632453567
1.0498533724340176
1.0342130987292275
1.0205278592375366
1.0117302052785924
1.0058651026392962
0.997067448680352
0.9872922776148584
0.975562072336266
0.9618768328445748
0.9472140762463344
0.9325513196480938
0.9178885630498532
0.9042033235581622
0.8914956011730205
0.8787878787878788
0.8670576735092864
0.8611925708699902
0.8582600195503421
0.8533724340175953
0.8484848484848485
0.8475073313782991
0.8514173998044966
0.863147605083089
0.884652981427175
0.919843597262952
0.9687194525904204
1.0303030303030305
1.1055718475073313
1.181818181818182
1.2609970674486803
1.3528836754643203
1.4516129032258065
1.552297165200391
1.651026392961877
1.7448680351906158
1.8299120234604105
1.906158357771261
1.9726295210166176
2.029325513196481
2.078201368523949
2.113391984359726
2.1407624633431084
2.1681329423264906
2.193548387096774
2.2160312805474094
2.236559139784946
2.2551319648093844
2.272727272727273
2.2873900293255134
2.2981427174975564
2.304985337243402
2.30791788856305
2.3069403714565007
2.300097751710655
2.289345063538612
2.275659824046921
2.2561094819159337
2.2297165200391005
2.196480938416422
2.156402737047898
2.1094819159335287
2.0576735092864125
2.002932551319648
1.946236559139785
1.889540566959922
1.8406647116324533
1.7976539589442817
1.75366568914956
1.710654936461388
1.6715542521994136
1.6373411534701858
1.606060606060606
1.5786901270772238
1.5532746823069403
1.5288367546432062
1.5053763440860215
1.482893450635386
1.4613880742913
1.444770283479961
1.4291300097751711
1.4086021505376345
1.3870967741935485
1.364613880742913
1.3411534701857282
1.3176930596285434
1.2961876832844574
1.2746823069403714
1.2512218963831867
1.2267839687194526
1.2043010752688172
1.1886608015640274
1.1759530791788857
1.1612903225806452
1.1456500488758554
1.1319648093841643
1.1202346041055715
1.1094819159335287
1.099706744868035
1.0909090909090908
1.083088954056696
1.0762463343108504
1.0703812316715542
1.110459433040078
1.176930596285435
1.2121212121212122
1.227761485826002
1.2336265884652982
1.2355816226783969
1.2346041055718475
1.2326490713587488
1.2297165200391007
1.2267839687194526
1.2228739002932552
1.2179863147605083
1.2130987292277615
1.2111436950146628
1.2101661779081134
1.2072336265884651
1.2043010752688172
1.2013685239491692
1.1974584555229717
1.1945259042033236
1.1925708699902249
1.1935483870967742
1.2013685239491692
1.2179863147605083
1.24633431085044
1.2883675464320623
1.3372434017595307
1.3949169110459434
1.4711632453567938
1.563049853372434
1.6686217008797657
1.7849462365591398
1.906158357771261
2.029325513196481
2.1485826001955037
2.26197458455523
2.367546432062561
2.462365591397849
2.535679374389052
2.5943304007820136
2.653958944281525
2.70772238514174
2.755620723362659
2.7966764418377323
2.832844574780059
2.8641251221896384
2.8914956011730206
2.913978494623656
2.932551319648094
2.948191593352884
2.961876832844575
2.967741935483871
2.9687194525904204
2.9687194525904204
2.964809384164223
2.9550342130987293
2.93841642228739
2.9159335288367547
2.884652981427175
2.8455522971652005
2.7996089931573804
2.7468230694037143
2.6901270772238512
2.635386119257087
2.581622678396872
2.5239491691104594
2.464320625610948
2.4056695992179864
2.3489736070381237
2.297165200391007
2.2502443792766376
2.2082111436950145
2.1730205278592374
2.142717497556207
2.117302052785924
2.093841642228739
2.0733137829912023
2.053763440860215
2.032258064516129
2.0097751710654936
1.9853372434017595
1.959921798631476
1.9345063538611929
1.9090909090909087
1.8826979472140764
1.855327468230694
1.828934506353861
1.8035190615835777
1.782991202346041
1.7644183773216031
1.7429130009775171
1.721407624633431
1.7018572825024438
1.683284457478006
1.6656891495601174
1.6490713587487782
1.632453567937439
1.6158357771260996
1.6001955034213098
1.587487781036168
1.5757575757575757
1.5679374389051808
1.563049853372434
1.5581622678396871
1.552297165200391
1.5454545454545454
1.5395894428152492
1.5327468230694037
1.525904203323558
1.520039100684262
1.5131964809384164
1.5063538611925709
1.500488758553275
1.4965786901270772
1.4946236559139785
1.4916911045943304
1.4887585532746823
1.4848484848484849
1.479960899315738
1.4750733137829912
1.469208211143695
1.4623655913978495
1.455522971652004
1.4506353861192571
1.4467253176930597
1.4428152492668622
1.4428152492668622
1.447702834799609
1.457478005865103
1.4760508308895406
1.5083088954056696
1.5542521994134897
1.6158357771260996
1.6930596285434996
1.7859237536656891
1.8914956011730208
2.007820136852395
2.1300097751710654
2.2355816226783967
2.333333333333333
2.4408602150537635
2.548387096774193
2.650048875855328
2.7438905180840663
2.8269794721407626
2.9012707722385143
2.9657869012707723
3.022482893450636
3.072336265884653
3.115347018572825
3.1544477028347995
3.1818181818181817
3.201368523949169
3.225806451612903
3.251221896383187
3.274682306940372
3.294232649071359
3.30791788856305
3.3167155425219943
3.318670576735093
3.315738025415445
3.3069403714565007
3.290322580645161
3.264907135874878
3.233626588465298
3.1974584555229715
3.1544477028347995
3.104594330400782
3.046920821114369
2.983382209188661
2.913978494623656
2.841642228739003
2.7653958944281527
2.687194525904203
2.610948191593353
2.5454545454545454
2.484848484848485
2.423264907135875
2.363636363636364
2.3088954056695994
2.260997067448681
2.217986314760508
2.1788856304985336
2.144672531769306
2.112414467253177
2.081133919843597
2.047898338220919
2.013685239491691
1.9843597262952104
1.9560117302052784
1.9237536656891496
1.889540566959922
1.8543499511241448
1.8191593352883677
1.782991202346041
1.7468230694037146
1.710654936461388
1.6744868035190617
1.640273704789834
1.6099706744868034
1.5865102639296187
1.565982404692082
1.542521994134897
1.5190615835777126
1.4965786901270772
1.4760508308895406
1.457478005865103
1.4379276637341154
1.4193548387096775
1.4027370478983383
1.388074291300098
1.3734115347018572
1.359726295210166
1.3519061583577712
1.3470185728250244
1.3391984359726294
1.3294232649071358
1.3186705767350928
1.3069403714565004
1.2971652003910068
1.2903225806451613
1.284457478005865
1.2776148582600195
1.270772238514174
1.2619745845552297
1.2570869990224829
1.2541544477028348
1.2473118279569892
1.2394916911045943
1.23069403714565
1.2238514173998043
1.219941348973607
1.2189638318670577
1.2258064516129032
1.2424242424242424
1.2697947214076246
1.3118279569892473
1.3695014662756595
1.4320625610948192
1.5034213098729228
1.595307917888563
1.7018572825024438
1.8172043010752688
1.9374389051808407
2.058651026392962
2.175953079178885
2.2844574780058653
2.3841642228739004
2.474095796676442
2.5542521994134897
2.6158357771261
2.6637341153470184
2.710654936461388
2.7546432062561097
2.7947214076246336
2.831867057673509
2.789833822091887
2.70772238514174
2.679374389051808
2.677419354838709
2.687194525904203
2.699902248289345
2.7116324535679373
2.716520039100684
2.7145650048875853
2.7126099706744866
2.7067448680351904
2.6959921798631474
2.679374389051808
2.654936461388074
2.622678396871945
2.582600195503421
2.535679374389052
2.4819159335288368
2.4222873900293256
2.3655913978494625
2.3098729227761488
2.249266862170088
2.1867057673509285
2.126099706744868
2.0664711632453567
2.0097751710654936
1.956989247311828
1.9100684261974583
1.868035190615836
1.8299120234604105
1.7956989247311828
1.7653958944281525
1.7409579667644184
1.718475073313783
