ppg
1.2756598240469208
1.2688172043010753
1.260019550342131
1.2502443792766371
1.2404692082111437
1.2316715542521994
1.224828934506354
1.2238514173998043
1.2355816226783969
1.2658846529814272
1.3206256109481915
1.4037145650048877
1.4965786901270772
1.6021505376344083
1.7380254154447703
1.89247311827957
2.0518084066471163
2.206256109481916
2.3489736070381237
2.474095796676442
2.579667644183773
2.665689149560117
2.7331378299120237
2.782991202346041
2.812316715542522
2.825024437927664
2.831867057673509
2.8299120234604107
2.820136852394917
2.807429130009776
2.788856304985337
2.764418377321604
2.732160312805474
2.69208211143695
2.6451612903225805
2.589442815249267
2.5239491691104594
2.4565004887585533
2.386119257086999
2.304007820136853
2.2170087976539588
2.1280547409579667
2.040078201368524
1.9560117302052784
1.8758553274682308
1.8035190615835777
1.739980449657869
1.6852394916911049
1.640273704789834
1.6080156402737047
1.5835777126099706
1.5620723362658846
1.544477028347996
1.5278592375366569
1.512218963831867
1.498533724340176
1.4868035190615836
1.4750733137829912
1.4643206256109482
1.452590420332356
1.439882697947214
1.4252199413489737
1.4134897360703813
1.4027370478983383
1.3900293255131966
1.3773216031280548
1.3636363636363635
1.348973607038123
1.332355816226784
1.313782991202346
1.295210166177908
1.2766373411534702
1.2590420332355816
1.2443792766373412
1.2355816226783969
1.2287390029325511
1.2209188660801564
1.2121212121212122
1.203323558162268
1.1925708699902249
1.1788856304985338
1.1652003910068427
1.1505376344086022
1.1368523949169111
1.1241446725317692
1.1124144672531768
1.1006842619745845
1.0928641251221896
1.0899315738025417
1.0928641251221896
1.1094819159335287
1.147605083088954
1.2130987292277615
1.3098729227761483
1.4379276637341154
1.590420332355816
1.7605083088954057
1.935483870967742
2.1055718475073317
2.243401759530792
2.355816226783969
2.464320625610948
2.5610948191593352
2.643206256109482
2.7096774193548385
2.760508308895406
2.7966764418377323
2.8211143695014664
2.832844574780059
2.834799608993157
2.827956989247312
2.814271749755621
2.7947214076246336
2.76930596285435
2.739980449657869
2.704789833822092
2.662756598240469
2.611925708699902
2.5532746823069403
2.4858260019550342
2.410557184750733
2.3274682306940373
2.2385141739980448
2.145650048875855
2.0625610948191597
1.9853372434017595
1.903225806451613
1.823069403714565
1.7497556207233629
1.683284457478006
1.6275659824046922
1.5796676441837731
1.5376344086021505
1.5024437927663734
1.4750733137829912
1.452590420332356
1.434017595307918
1.4203323558162269
1.4086021505376345
1.3949169110459434
1.380254154447703
1.3665689149560116
1.3528836754643203
1.3372434017595307
1.3225806451612905
1.3079178885630498
1.2903225806451613
1.2727272727272727
1.2551319648093842
1.2424242424242424
1.2326490713587488
1.219941348973607
1.206256109481916
1.1915933528836755
1.176930596285435
1.1622678396871946
1.147605083088954
1.133919843597263
1.1241446725317692
1.115347018572825
1.1065493646138806
1.0977517106549364
1.0918866080156402
1.0869990224828934
1.0791788856304985
1.0713587487781036
1.0635386119257086
1.053763440860215
1.043010752688172
1.0342130987292275
1.0263929618768328
1.018572825024438
1.013685239491691
1.0087976539589445
1.0068426197458455
1.007820136852395
1.007820136852395
1.0127077223851415
1.0303030303030305
1.0684261974584557
1.133919843597263
1.2316715542521994
1.3616813294232648
1.5180840664711632
1.6901270772238517
1.869012707722385
2.043010752688172
2.1847507331378297
2.303030303030303
2.420332355816227
2.525904203323558
2.6158357771261
2.6881720430107525
2.742913000977517
2.782013685239492
2.807429130009776
2.820136852394917
2.8240469208211145
2.819159335288368
2.8044965786901277
2.7839687194525906
2.760508308895406
2.732160312805474
2.697947214076246
2.6578690127077222
2.611925708699902
2.558162267839687
2.495601173020528
2.4252199413489737
2.346041055718475
2.260019550342131
2.1788856304985336
2.1006842619745845
2.016617790811339
1.932551319648094
1.8543499511241448
1.782991202346041
1.7194525904203324
1.6637341153470186
1.6177908113391983
1.5796676441837731
1.5483870967741935
1.521994134897361
1.501466275659824
1.4887585532746823
1.479960899315738
1.4721407624633431
1.4643206256109482
1.455522971652004
1.4457478005865103
1.435972629521017
1.4271749755620724
1.418377321603128
1.4076246334310851
1.393939393939394
1.380254154447703
1.3695014662756595
1.359726295210166
1.348973607038123
1.3391984359726294
1.3362658846529814
1.3440860215053765
1.3685239491691104
1.412512218963832
1.478005865102639
1.5650048875855327
1.6705767350928642
1.7878787878787878
1.911045943304008
2.016617790811339
2.1094819159335287
2.2023460410557183
2.286412512218964
2.355816226783969
2.407624633431085
2.442815249266862
2.4613880742913
2.464320625610948
2.453567937438905
2.4301075268817205
2.3958944281524928
2.356793743890518
2.3118279569892475
2.2561094819159337
2.190615835777126
2.118279569892473
2.042033235581622
1.963831867057673
1.8836754643206255
1.8064516129032255
1.7331378299120237
1.664711632453568
1.6011730205278591
1.544477028347996
1.5024437927663734
1.4701857282502444
1.4418377321603129
1.4203323558162269
1.404692082111437
1.3949169110459434
1.391006842619746
1.391006842619746
1.392961876832845
1.3958944281524928
1.3978494623655917
1.4076246334310851
1.4213098729227762
1.4301075268817205
1.4320625610948192
1.4291300097751711
1.4222873900293256
1.4115347018572826
1.3998044965786902
1.3900293255131966
1.3812316715542523
1.3714565004887584
1.3607038123167154
1.348973607038123
1.3372434017595307
1.3284457478005864
1.3186705767350928
1.3040078201368523
1.2873900293255132
1.270772238514174
1.2551319648093842
1.2434017595307918
1.2404692082111437
1.2541544477028348
1.2932551319648091
1.364613880742913
1.4721407624633431
1.590420332355816
1.7223851417399805
1.8856304985337244
2.0635386119257086
2.241446725317693
2.407624633431085
2.555229716520039
2.679374389051808
2.7781036168132944
2.8533724340175954
2.906158357771261
2.940371456500489
2.959921798631476
2.960899315738025
2.949169110459433
2.9315738025415445
2.905180840664712
2.8699902248289346
2.8260019550342133
2.776148582600196
2.718475073313783
2.652003910068426
2.575757575757576
2.490713587487781
2.3978494623655915
2.310850439882698
2.2238514173998043
2.126099706744868
2.0254154447702835
1.9266862170087975
1.8328445747800584
1.7497556207233629
1.6774193548387095
1.6148582600195502
1.5620723362658846
1.5190615835777126
1.4848484848484849
1.457478005865103
1.4389051808406648
1.4242424242424243
1.409579667644184
1.3958944281524928
1.383186705767351
1.370478983382209
1.3577712609970674
1.3450635386119256
1.3294232649071358
1.310850439882698
1.2913000977517106
1.2727272727272727
1.2590420332355816
1.249266862170088
1.238514173998045
1.2258064516129032
1.2111436950146628
1.195503421309873
1.1798631476050832
1.163245356793744
1.1485826001955035
1.1348973607038124
1.121212121212121
1.1065493646138806
1.093841642228739
1.0850439882697946
1.078201368523949
1.0694037145650048
1.0586510263929618
1.04594330400782
1.0312805474095796
1.0175953079178883
1.0068426197458455
0.9980449657869012
0.9912023460410556
0.9882697947214076
0.9863147605083088
0.9882697947214076
0.9921798631476052
0.9941348973607038
0.9931573802541545
0.9902248289345064
0.9863147605083088
0.9833822091886608
0.981427174975562
0.9804496578690128
0.9804496578690128
0.9804496578690128
0.9824046920821116
0.9853372434017597
0.9902248289345064
0.9951124144672532
0.9980449657869012
0.9990224828934506
1.0
1.0
1.0009775171065494
1.0039100684261977
1.0068426197458455
1.007820136852395
1.0097751710654936
1.0117302052785924
1.0146627565982405
1.0166177908113392
1.0146627565982405
1.010752688172043
1.007820136852395
1.010752688172043
1.0273704789833822
1.0703812316715542
1.1505376344086022
1.2746823069403714
1.4418377321603129
1.6441837732160314
1.8387096774193548
2.0283479960899315
2.243401759530792
2.4574780058651027
2.656891495601173
2.833822091886608
2.983382209188661
3.1055718475073317
3.203323558162268
3.280547409579668
3.3391984359726297
3.3792766373411536
3.4027370478983383
3.407624633431085
3.40078201368524
3.3900293255131966
3.3743890518084068
3.3548387096774195
3.3284457478005867
3.2961876832844577
3.257086999022483
3.2111436950146626
3.155425219941349
3.089931573802541
3.01564027370479
2.9393939393939394
2.859237536656892
2.7673509286412514
2.665689149560117
2.5591397849462365
2.450635386119257
2.3421309872922778
2.2375366568914954
2.142717497556207
2.058651026392962
1.9843597262952104
1.920821114369501
1.866080156402737
1.822091886608016
1.7878787878787878
1.7575757575757576
1.7311827956989247
1.7086999022482894
1.6881720430107527
1.667644183773216
1.6471163245356797
1.6275659824046922
1.607038123167155
1.5865102639296187
1.5650048875855327
1.5464320625610948
1.5298142717497556
1.512218963831867
1.4946236559139785
1.4760508308895406
1.457478005865103
1.4389051808406648
1.4213098729227762
1.4037145650048877
1.3890518084066472
1.375366568914956
1.3626588465298142
1.3499511241446724
1.3411534701857282
1.3333333333333333
1.3206256109481915
1.3069403714565004
1.29227761485826
1.2795698924731185
1.2688172043010753
1.260019550342131
1.2551319648093842
1.252199413489736
1.249266862170088
1.2453567937438903
1.2453567937438903
1.24633431085044
1.2453567937438903
1.2434017595307918
1.2424242424242424
1.2424242424242424
1.241446725317693
1.238514173998045
1.2365591397849462
1.2355816226783969
1.2355816226783969
1.2365591397849462
1.2375366568914956
1.2394916911045943
1.2424242424242424
1.2434017595307918
1.2424242424242424
1.2424242424242424
1.24633431085044
1.2639296187683284
1.303030303030303
1.3714565004887584
1.4731182795698925
1.607038123167155
1.7712609970674489
1.9286412512218964
2.0821114369501466
2.257086999022483
2.434017595307918
2.598240469208211
2.7419354838709675
2.86217008797654
2.9579667644183774
3.03128054740958
3.0840664711632453
3.118279569892473
3.1378299120234603
3.145650048875855
3.1388074291300097
3.121212121212121
3.0977517106549364
3.069403714565005
3.034213098729228
2.909090909090909
2.7370478983382207
2.6236559139784945
2.535679374389052
2.458455522971652
2.3822091886608017
2.303030303030303
2.2297165200391005
2.1593352883675463
2.080156402737048
1.9980449657869013
1.916911045943304
1.8406647116324533
1.7712609970674489
1.7116324535679377
1.66177908113392
1.619745845552297
1.58455522971652
1.5562072336265884
1.5327468230694037
1.5151515151515151
1.500488758553275
1.4848484848484849
1.4682306940371457
1.452590420332356
1.4389051808406648
1.4252199413489737
1.4115347018572826
1.3978494623655917
1.3841642228739004
1.370478983382209
1.3577712609970674
1.3470185728250244
1.33822091886608
1.3264907135874875
1.3128054740957966
1.2971652003910068
1.281524926686217
1.2639296187683284
1.2473118279569892
1.2316715542521994
1.2150537634408602
1.1974584555229717
1.1798631476050832
1.1612903225806452
1.1466275659824048
1.133919843597263
1.121212121212121
1.1124144672531768
1.1124144672531768
1.126099706744868
1.1612903225806452
1.2218963831867058
1.3088954056695992
1.4193548387096775
1.5464320625610948
1.6823069403714566
1.8025415444770283
1.9090909090909087
2.0195503421309877
2.1221896383186705
2.2130987292277613
2.2883675464320627
2.347996089931574
2.3929618768328447
2.4252199413489737
2.44672531769306
2.4565004887585533
2.4574780058651027
2.449657869012708
2.4349951124144678
2.41544477028348
2.391006842619746
2.3597262952101663
2.32355816226784
2.281524926686217
2.231671554252199
2.1730205278592374
2.1065493646138806
2.034213098729228
1.9579667644183771
1.8797653958944285
1.8093841642228736
1.7448680351906158
1.6764418377321604
1.6099706744868034
1.5483870967741935
1.4936461388074291
1.4467253176930597
1.4066471163245358
1.3734115347018572
1.3479960899315735
1.3284457478005864
1.313782991202346
1.3020527859237536
1.295210166177908
1.2883675464320623
1.2805474095796676
1.2717497556207231
1.2619745845552297
1.2512218963831867
1.2394916911045943
1.2267839687194526
1.2140762463343109
1.2003910068426198
1.1867057673509287
1.173998044965787
1.164222873900293
1.155425219941349
1.144672531769306
1.1329423264907137
1.1221896383186705
1.1124144672531768
1.1026392961876832
1.0918866080156402
1.0811339198435972
1.0694037145650048
1.056695992179863
1.0439882697947214
1.0361681329423265
1.0312805474095796
1.0254154447702837
1.0195503421309873
1.0127077223851415
1.0058651026392962
0.9990224828934506
0.9931573802541545
0.9872922776148584
0.981427174975562
0.975562072336266
0.9696969696969696
0.9657869012707724
0.9648093841642228
0.9657869012707724
0.9648093841642228
0.9638318670576737
0.9638318670576737
0.9638318670576737
0.9638318670576737
0.9638318670576737
0.9638318670576737
0.9638318670576737
0.9638318670576737
0.9638318670576737
0.9687194525904204
0.975562072336266
0.9824046920821116
0.989247311827957
0.9951124144672532
0.9990224828934506
1.0009775171065494
1.0019550342130987
1.002932551319648
1.002932551319648
1.002932551319648
1.0068426197458455
1.0195503421309873
1.0410557184750733
1.0791788856304985
1.144672531769306
1.2434017595307918
1.3734115347018572
1.5298142717497556
1.704789833822092
1.8875855327468232
2.0664711632453567
2.233626588465298
2.3822091886608017
2.509286412512219
2.601173020527859
2.667644183773216
2.7282502443792764
2.777126099706745
2.8132942326490715
2.8396871945259043
2.855327468230694
2.8611925708699903
2.859237536656892
2.849462365591398
2.833822091886608
2.8132942326490715
2.787878787878788
2.755620723362659
2.718475073313783
2.675464320625611
2.625610948191593
2.56891495601173
2.505376344086021
2.4330400782013686
2.35386119257087
2.270772238514174
2.1847507331378297
2.0987292277614857
2.01564027370479
1.945259042033236
1.884652981427175
1.826001955034213
1.772238514173998
1.7253176930596286
1.6852394916911049
1.6520039100684265
1.624633431085044
1.6011730205278591
1.5806451612903225
1.564027370478983
1.5503421309872922
1.5386119257087
1.5288367546432062
1.521016617790811
1.2072336265884651
1.2013685239491692
1.1964809384164223
1.1925708699902249
1.1906158357771262
1.1896383186705768
1.1896383186705768
1.1906158357771262
1.1925708699902249
1.1964809384164223
1.1974584555229717
1.1974584555229717
1.1974584555229717
1.1974584555229717
1.195503421309873
1.1925708699902249
1.1906158357771262
1.1886608015640274
1.18475073313783
1.1788856304985338
1.1749755620723363
1.173998044965787
1.1759530791788857
1.1886608015640274
1.2209188660801564
1.2795698924731185
1.370478983382209
1.4965786901270772
1.6529814271749756
1.83088954056696
2.0195503421309877
2.2082111436950145
2.363636363636364
2.4946236559139785
2.625610948191593
2.742913000977517
2.841642228739003
2.920821114369501
2.981427174975562
3.024437927663734
3.050830889540567
3.0635386119257086
3.065493646138808
3.0557184750733137
3.035190615835777
3.007820136852395
2.9765395894428157
2.940371456500489
2.898338220918866
2.8211143695014664
2.7595307917888565
2.6881720430107525
2.5640273704789838
2.4711632453567938
2.3743890518084068
2.275659824046921
2.1867057673509285
2.1055718475073317
2.0195503421309877
1.9364613880742916
1.8602150537634408
1.793743890518084
1.7380254154447703
1.6901270772238517
1.6500488758553276
1.6177908113391983
1.5913978494623655
1.56891495601173
1.5493646138807429
1.5454545454545454
1.541544477028348
1.5278592375366569
1.5141739980449658
1.499511241446725
1.4838709677419355
1.469208211143695
1.452590420332356
1.4349951124144673
1.4173998044965788
1.3958944281524928
1.3841642228739004
1.3714565004887584
1.348973607038123
1.3333333333333333
1.316715542521994
1.2981427174975562
1.2805474095796676
1.2639296187683284
1.2482893450635386
1.2316715542521994
1.2150537634408602
1.203323558162268
1.1935483870967742
1.1808406647116323
1.1691104594330402
1.160312805474096
1.1534701857282503
1.1485826001955035
1.1436950146627567
1.1397849462365592
1.1358748778103618
1.1319648093841643
1.1280547409579669
1.1241446725317692
1.1231671554252198
1.1231671554252198
1.1221896383186705
1.1192570869990224
1.1143695014662756
1.10752688172043
1.1036168132942326
1.1065493646138806
1.1231671554252198
1.1622678396871946
1.2297165200391007
1.3304007820136852
1.4418377321603129
1.565982404692082
1.721407624633431
1.8944281524926687
2.0684261974584555
2.232649071358749
2.3792766373411536
2.506353861192571
2.611925708699902
2.696969696969697
2.764418377321604
2.8152492668621703
2.850439882697948
2.868035190615836
2.874877810361681
2.877810361681329
2.874877810361681
2.8641251221896384
2.8475073313782997
2.8260019550342133
2.7996089931573804
2.7673509286412514
2.729227761485826
2.686217008797654
2.635386119257087
2.582600195503421
2.5249266862170088
2.455522971652004
2.375366568914956
2.2883675464320627
2.1974584555229715
2.1055718475073317
2.0146627565982405
1.927663734115347
1.8465298142717497
1.7732160312805474
1.7096774193548387
1.6549364613880744
1.6138807429130009
1.581622678396872
1.5513196480938416
1.525904203323558
1.5053763440860215
1.4868035190615836
1.4701857282502444
1.4545454545454546
1.4389051808406648
1.423264907135875
1.4086021505376345
1.3958944281524928
1.3861192570869991
1.375366568914956
1.3607038123167154
1.343108504398827
1.3255131964809383
1.3069403714565004
1.289345063538612
1.2727272727272727
1.2561094819159335
1.2404692082111437
1.224828934506354
1.209188660801564
1.1925708699902249
1.1798631476050832
1.1700879765395895
1.1583577712609971
1.1466275659824048
1.1348973607038124
1.1241446725317692
1.1124144672531768
1.1006842619745845
1.0899315738025417
1.078201368523949
1.067448680351906
1.0586510263929618
1.053763440860215
1.0518084066471165
1.0469208211143697
1.0420332355816226
1.0381231671554252
1.0361681329423265
1.035190615835777
1.035190615835777
1.035190615835777
1.035190615835777
1.035190615835777
1.035190615835777
1.035190615835777
1.0371456500488758
1.040078201368524
1.0410557184750733
1.0420332355816226
1.0410557184750733
1.0391006842619743
1.0371456500488758
1.0342130987292275
1.0303030303030305
1.029325513196481
1.0342130987292275
1.053763440860215
1.0879765395894427
1.1407624633431086
1.224828934506354
1.343108504398827
1.490713587487781
1.6608015640273706
1.842619745845552
2.026392961876833
2.201368523949169
2.3597262952101663
2.4995112414467253
2.616813294232649
2.7126099706744866
2.779081133919844
2.8240469208211145
2.8641251221896384
2.89345063538612
2.9120234604105573
2.921798631476051
2.9227761485826003
2.9159335288367547
2.902248289345064
2.8807429130009776
2.8533724340175954
2.819159335288368
2.7810361681329425
2.73802541544477
2.689149560117302
2.633431085043988
2.56891495601173
2.4946236559139785
2.412512218963832
2.324535679374389
2.232649071358749
2.1388074291300097
2.04594330400782
1.9560117302052784
1.871945259042033
1.8035190615835777
1.747800586510264
1.694037145650049
1.64613880742913
1.6050830889540566
1.5698924731182795
1.542521994134897
1.521016617790811
1.5024437927663734
1.487781036168133
1.47702834799609
1.4672531769305963
1.4604105571847508
1.4535679374389052
1.4418377321603129
1.4291300097751711
1.414467253176931
1.4007820136852396
1.3870967741935485
1.3734115347018572
1.3616813294232648
1.3499511241446724
1.33822091886608
1.3264907135874875
1.3176930596285434
1.310850439882698
1.3010752688172045
1.2903225806451613
1.2805474095796676
1.2717497556207231
1.2639296187683284
1.2570869990224829
1.2502443792766371
1.2443792766373412
1.2394916911045943
1.2355816226783969
1.2326490713587488
1.2326490713587488
1.2336265884652982
1.2326490713587488
1.23069403714565
1.2287390029325511
1.2258064516129032
1.2238514173998043
1.2228739002932552
1.2218963831867058
1.2218963831867058
1.2218963831867058
1.219941348973607
1.2189638318670577
1.2189638318670577
1.217008797653959
1.2150537634408602
1.217008797653959
1.227761485826002
1.252199413489736
1.2971652003910068
1.367546432062561
1.4652981427174976
1.5894428152492668
1.737047898338221
1.8993157380254155
2.0410557184750733
2.167155425219941
2.300097751710655
2.426197458455523
2.5386119257087
2.632453567937439
2.708699902248289
2.7839687194525906
2.8514173998044967
2.89345063538612
2.916911045943304
2.924731182795699
2.917888563049853
2.900293255131965
2.877810361681329
2.850439882697948
2.817204301075269
2.777126099706745
2.730205278592375
2.675464320625611
2.613880742913001
2.5425219941348973
2.464320625610948
2.3792766373411536
2.290322580645161
2.2082111436950145
2.131964809384164
2.050830889540567
1.9716520039100685
1.8983382209188664
1.8328445747800584
1.7790811339198436
1.737047898338221
1.7038123167155426
1.6793743890518085
1.66177908113392
1.6490713587487782
1.640273704789834
1.6344086021505375
1.6314760508308896
1.6304985337243405
1.6285434995112416
1.6256109481915937
1.6226783968719452
1.6187683284457477
1.6129032258064515
1.6041055718475072
1.5933528836754642
1.5826001955034212
1.5708699902248289
1.5610948191593352
1.5532746823069403
1.5454545454545454
1.5386119257087
1.530791788856305
1.521016617790811
1.5112414467253177
1.5024437927663734
1.4936461388074291
1.4848484848484849
1.474095796676442
1.4623655913978495
1.452590420332356
1.4437927663734116
1.4320625610948192
1.4203323558162269
1.4086021505376345
1.396871945259042
1.3861192570869991
1.375366568914956
1.3655913978494625
1.3558162267839686
1.346041055718475
1.3372434017595307
1.3304007820136852
1.3264907135874875
1.324535679374389
1.3196480938416422
1.313782991202346
1.3079178885630498
1.300097751710655
1.2932551319648091
1.2873900293255132
1.2825024437927663
1.278592375366569
1.2746823069403714
1.270772238514174
1.2688172043010753
1.267839687194526
1.2658846529814272
1.2649071358748778
1.2697947214076246
1.2883675464320623
1.3284457478005864
1.3958944281524928
1.490713587487781
1.611925708699902
1.7556207233626588
1.9120234604105573
2.0733137829912023
2.2111436950146626
2.3304007820136854
2.452590420332356
2.565982404692082
2.6637341153470184
2.744868035190616
2.8084066471163247
2.854349951124145
2.8836754643206257
2.8993157380254155
2.903225806451613
2.8963831867057674
2.878787878787879
2.854349951124145
2.8240469208211145
2.7859237536656893
2.7390029325513194
2.6823069403714563
2.6148582600195502
2.536656891495601
2.450635386119257
2.358748778103617
2.2629521016617797
2.1652003910068425
2.067448680351906
1.9833822091886608
1.9090909090909087
1.83088954056696
1.75366568914956
1.683284457478006
1.6207233626588464
1.5669599217986314
1.521994134897361
1.4858260019550342
1.456500488758553
1.4330400782013686
1.41544477028348
1.404692082111437
1.396871945259042
1.3900293255131966
1.3841642228739004
1.3792766373411536
1.375366568914956
1.3714565004887584
1.367546432062561
1.3636363636363635
1.3587487781036167
1.3509286412512218
1.3411534701857282
1.3304007820136852
1.321603128054741
1.3147605083088951
1.305962854349951
1.2971652003910068
1.2883675464320623
1.2776148582600195
1.2668621700879763
1.2580645161290325
1.249266862170088
1.241446725317693
1.2336265884652982
1.2228739002932552
1.2140762463343109
1.2052785923753666
1.1935483870967742
1.1788856304985338
1.166177908113392
1.1544477028347997
1.144672531769306
1.1378299120234605
1.1319648093841643
1.126099706744868
1.1202346041055715
1.115347018572825
1.1143695014662756
1.1133919843597262
1.110459433040078
1.104594330400782
1.0957966764418376
1.0850439882697946
1.075268817204301
1.0684261974584557
1.0703812316715542
1.0918866080156402
