ppg
2.335288367546432
2.260997067448681
2.1945259042033234
2.132942326490713
2.064516129032258
1.9931573802541545
1.921798631476051
1.8514173998044965
1.7820136852394917
1.715542521994135
1.6520039100684265
1.5913978494623655
1.533724340175953
1.479960899315738
1.4281524926686218
1.388074291300098
1.35386119257087
1.3176930596285434
1.2825024437927663
1.249266862170088
1.219941348973607
1.1945259042033236
1.1730205278592376
1.1573802541544478
1.1466275659824048
1.141739980449658
1.142717497556207
1.1505376344086022
1.163245356793744
1.1798631476050832
1.1994134897360704
1.2209188660801564
1.2404692082111437
1.2590420332355816
1.2776148582600195
1.3020527859237536
1.3411534701857282
1.4066471163245358
1.5073313782991202
1.6480938416422288
1.7956989247311828
1.9550342130987293
2.1485826001955037
2.350928641251222
2.539589442815249
2.699902248289345
2.8240469208211145
2.911045943304008
2.963831867057673
2.988269794721408
2.989247311827957
2.973607038123167
2.946236559139785
2.9100684261974585
2.866080156402737
2.814271749755621
2.7565982404692084
2.6940371456500487
2.627565982404692
2.558162267839687
2.4858260019550342
2.4115347018572826
2.3362658846529816
2.259042033235582
2.1818181818181817
2.112414467253177
2.047898338220919
1.9765395894428155
1.903225806451613
1.8299120234604105
1.758553274682307
1.6881720430107527
1.6207233626588464
1.555229716520039
1.4916911045943304
1.4320625610948192
1.375366568914956
1.3304007820136852
1.2932551319648091
1.2531769305962854
1.2130987292277615
1.1749755620723363
1.1397849462365592
1.1085043988269794
1.0811339198435972
1.0576735092864125
1.0391006842619743
1.0263929618768328
1.0195503421309873
1.0195503421309873
1.0273704789833822
1.040078201368524
1.056695992179863
1.075268817204301
1.0948191593352885
1.1133919843597262
1.1300097751710656
1.147605083088954
1.1720430107526882
1.2121212121212122
1.2795698924731185
1.3822091886608017
1.499511241446725
1.6363636363636365
1.8162267839687196
2.018572825024438
2.2248289345063537
2.41544477028348
2.576735092864125
2.701857282502444
2.789833822091887
2.844574780058651
2.870967741935484
2.874877810361681
2.8611925708699903
2.8367546432062563
2.803519061583578
2.7614858260019552
2.713587487781036
2.658846529814272
2.60019550342131
2.536656891495601
2.4701857282502444
2.401759530791789
2.3304007820136854
2.257086999022483
2.182795698924731
2.1163245356793743
2.053763440860215
1.9853372434017595
1.9149560117302051
1.8435972629521016
1.7732160312805474
1.7038123167155426
1.6363636363636365
1.5718475073313782
1.5102639296187683
1.4516129032258065
1.3949169110459434
1.3421309872922775
1.3010752688172045
1.2658846529814272
1.227761485826002
1.1906158357771262
1.155425219941349
1.1231671554252198
1.093841642228739
1.0694037145650048
1.050830889540567
1.0371456500488758
1.0283479960899315
1.0254154447702837
1.0303030303030305
1.0410557184750733
1.0557184750733135
1.0742913000977516
1.0948191593352885
1.115347018572825
1.1358748778103618
1.1544477028347997
1.173998044965787
1.2013685239491692
1.24633431085044
1.3196480938416422
1.4086021505376345
1.521994134897361
1.6803519061583578
1.871945259042033
2.080156402737048
2.286412512218964
2.474095796676442
2.631476050830889
2.7517106549364616
2.835777126099707
2.886608015640274
2.909090909090909
2.9100684261974585
2.8944281524926687
2.8670576735092865
2.83088954056696
2.7869012707722387
2.736070381231672
2.6803519061583576
2.619745845552297
2.555229716520039
2.486803519061584
2.41544477028348
2.343108504398827
2.2688172043010755
2.201368523949169
2.1378299120234603
2.0684261974584555
1.9951124144672527
1.921798631476051
1.8494623655913975
1.7781036168132942
1.7086999022482894
1.6412512218963833
1.576735092864125
1.5151515151515151
1.456500488758553
1.401759530791789
1.3577712609970674
1.3206256109481915
1.2805474095796676
1.2404692082111437
1.203323558162268
1.1681329423264908
1.1368523949169111
1.1085043988269794
1.0850439882697946
1.0664711632453567
1.0527859237536656
1.0449657869012707
1.0420332355816226
1.0439882697947214
1.0518084066471165
1.0654936461388074
1.0840664711632453
1.104594330400782
1.1251221896383188
1.1456500488758554
1.1652003910068427
1.187683284457478
1.2228739002932552
1.2805474095796676
1.3714565004887584
1.47702834799609
1.6050830889540566
1.7771260997067448
1.9775171065493649
2.187683284457478
2.388074291300098
2.5650048875855327
2.70772238514174
2.8132942326490715
2.8826979472140764
2.921798631476051
2.936461388074292
2.930596285434995
2.9100684261974585
2.8797653958944283
2.8406647116324537
2.793743890518084
2.740957966764418
2.6823069403714563
2.619745845552297
2.552297165200391
2.482893450635386
2.412512218963832
2.3391984359726297
2.2658846529814274
2.19941348973607
2.136852394916911
2.0684261974584555
1.9980449657869013
1.927663734115347
1.857282502443793
1.7888563049853372
1.7223851417399805
1.6588465298142718
1.5972629521016617
1.5386119257087
1.4838709677419355
1.439882697947214
1.4027370478983383
1.3626588465298142
1.3225806451612905
1.284457478005865
1.249266862170088
1.2189638318670577
1.1925708699902249
1.1700879765395895
1.152492668621701
1.1397849462365592
1.1319648093841643
1.1290322580645162
1.133919843597263
1.1436950146627567
1.1573802541544478
1.1749755620723363
1.195503421309873
1.2160312805474096
1.2346041055718475
1.2531769305962854
1.273704789833822
1.3040078201368523
1.3548387096774193
1.436950146627566
1.533724340175953
1.653958944281525
1.8191593352883677
2.0146627565982405
2.222873900293255
2.4242424242424243
2.6021505376344085
2.747800586510264
2.855327468230694
2.927663734115347
2.967741935483871
2.9824046920821115
2.9775171065493646
2.9579667644183774
2.9286412512218964
2.889540566959922
2.8426197458455524
2.789833822091887
2.7311827956989245
2.668621700879765
2.6021505376344085
2.5317693059628543
2.4594330400782014
2.3841642228739004
2.30791788856305
2.2385141739980448
2.1730205278592374
2.101661779081134
2.027370478983382
1.9521016617790807
1.87683284457478
1.8025415444770283
1.729227761485826
1.6588465298142718
1.5913978494623655
1.5268817204301075
1.466275659824047
1.409579667644184
1.364613880742913
1.3264907135874875
1.2854349951124144
1.2453567937438903
1.2072336265884651
1.1720430107526882
1.1407624633431086
1.1133919843597262
1.0909090909090908
1.0733137829912025
1.0606060606060606
1.053763440860215
1.0547409579667644
1.0625610948191593
1.0742913000977516
1.0899315738025417
1.1085043988269794
1.1280547409579669
1.147605083088954
1.1652003910068427
1.181818181818182
1.2023460410557183
1.2346041055718475
1.2903225806451613
1.3792766373411536
1.482893450635386
1.608993157380254
1.780058651026393
1.978494623655914
2.1837732160312804
2.378299120234604
2.5464320625610948
2.6803519061583576
2.777126099706745
2.838709677419355
2.870967741935484
2.8797653958944283
2.8690127077223853
2.8455522971652005
2.812316715542522
2.7702834799608995
2.721407624633431
2.6666666666666665
2.6080156402737047
2.544477028347996
2.4780058651026398
2.4086021505376345
2.337243401759531
2.2639296187683287
2.188660801564027
2.121212121212121
2.0576735092864125
1.988269794721408
1.916911045943304
1.844574780058651
1.7732160312805474
1.7028347996089932
1.6334310850439884
1.565982404692082
1.501466275659824
1.4389051808406648
1.380254154447703
1.3333333333333333
1.2942326490713587
1.252199413489736
1.2101661779081134
1.1710654936461389
1.1348973607038124
1.1016617790811338
1.072336265884653
1.0478983382209188
1.0273704789833822
1.0127077223851415
1.0039100684261977
1.002932551319648
1.007820136852395
1.0156402737047898
1.0283479960899315
1.0449657869012707
1.0654936461388074
1.0869990224828934
1.1094819159335287
1.1300097751710656
1.1505376344086022
1.1749755620723363
1.2121212121212122
1.2717497556207231
1.3450635386119256
1.4418377321603129
1.5826001955034212
1.7595307917888563
1.959921798631476
2.166177908113392
2.361681329423265
2.532746823069404
2.6695992179863146
2.7702834799608995
2.835777126099707
2.8719452590420333
2.881720430107527
2.873900293255132
2.854349951124145
2.8240469208211145
2.7839687194525906
2.736070381231672
2.6823069403714563
2.6236559139784945
2.560117302052786
2.49266862170088
2.423264907135875
2.3519061583577714
2.278592375366569
2.212121212121212
2.1495601173020527
2.080156402737048
2.007820136852395
1.9345063538611929
1.86119257086999
1.7898338220918866
1.7194525904203324
1.6520039100684265
1.5865102639296187
1.52297165200391
1.4633431085043989
1.414467253176931
1.3724340175953078
1.327468230694037
1.2825024437927663
1.2404692082111437
1.2003910068426198
1.164222873900293
1.1319648093841643
1.1036168132942326
1.0791788856304985
1.0596285434995112
1.04594330400782
1.0371456500488758
1.0361681329423265
1.0420332355816226
1.050830889540567
1.064516129032258
1.0821114369501466
1.1026392961876832
1.1251221896383188
1.147605083088954
1.1681329423264908
1.1896383186705768
1.2179863147605083
1.262952101661779
1.3206256109481915
1.4007820136852396
1.52297165200391
1.6852394916911049
1.878787878787879
2.0869990224828934
2.294232649071359
2.482893450635386
2.641251221896383
2.763440860215054
2.8484848484848486
2.8993157380254155
2.9227761485826003
2.9227761485826003
2.9071358748778104
2.8807429130009776
2.8455522971652005
2.801564027370479
2.7517106549364616
2.6959921798631474
2.635386119257087
2.570869990224829
2.5034213098729228
2.4330400782013686
2.360703812316716
2.2952101661779083
2.233626588465298
2.1652003910068425
2.0948191593352883
2.0234604105571847
1.9521016617790807
1.881720430107527
1.812316715542522
1.7448680351906158
1.6793743890518085
1.616813294232649
1.5571847507331378
1.500488758553275
1.4535679374389052
1.414467253176931
1.3724340175953078
1.3304007820136852
1.2913000977517106
1.2541544477028348
1.2209188660801564
1.1915933528836755
1.1652003910068427
1.1436950146627567
1.1280547409579669
1.1163245356793745
1.1133919843597262
1.1163245356793745
1.1231671554252198
1.133919843597263
1.1495601173020529
1.1681329423264908
1.187683284457478
1.2072336265884651
1.2258064516129032
1.2443792766373412
1.267839687194526
1.305962854349951
1.3685239491691104
1.4457478005865103
1.547409579667644
1.6959921798631477
1.8807429130009776
2.0869990224828934
2.2961876832844577
2.4916911045943304
2.6578690127077222
2.788856304985337
2.881720430107527
2.940371456500489
2.9696969696969697
2.9745845552297165
2.962854349951124
2.940371456500489
2.9071358748778104
2.866080156402737
2.817204301075269
2.7624633431085046
2.701857282502444
2.6373411534701856
2.5698924731182795
2.5004887585532747
2.4281524926686218
2.355816226783969
2.289345063538612
2.225806451612903
2.156402737047898
2.0840664711632453
2.0097751710654936
1.9364613880742916
1.8641251221896384
1.793743890518084
1.7253176930596286
1.6598240469208212
1.5962854349951123
1.5366568914956011
1.4887585532746823
1.4467253176930597
1.4027370478983383
1.3587487781036167
1.316715542521994
1.2776148582600195
1.2424242424242424
1.209188660801564
1.1798631476050832
1.155425219941349
1.1358748778103618
1.1202346041055715
1.1114369501466277
1.110459433040078
1.115347018572825
1.1241446725317692
1.1378299120234605
1.155425219941349
1.1749755620723363
1.1945259042033236
1.2121212121212122
1.227761485826002
1.24633431085044
1.2746823069403714
1.3235581622678396
1.3870967741935485
1.474095796676442
1.606060606060606
1.7761485826001957
1.9726295210166176
2.177908113391984
2.3743890518084068
2.547409579667644
2.686217008797654
2.7869012707722387
2.8533724340175954
2.889540566959922
2.8993157380254155
2.889540566959922
2.868035190615836
2.835777126099707
2.795698924731183
2.748778103616813
2.695014662756598
2.636363636363636
2.572825024437928
2.506353861192571
2.436950146627566
2.3655913978494625
2.2932551319648096
2.2277614858260018
2.1652003910068425
2.0957966764418376
2.0234604105571847
1.9501466275659824
1.87683284457478
1.8035190615835777
1.7311827956989247
1.6608015640273706
1.5933528836754642
1.5278592375366569
1.4652981427174976
1.41544477028348
1.3724340175953078
1.3255131964809383
1.2776148582600195
1.2316715542521994
1.1896383186705768
1.1505376344086022
1.115347018572825
1.0850439882697946
1.0586510263929618
1.0381231671554252
1.0224828934506354
1.0117302052785924
1.0097751710654936
1.0146627565982405
1.0224828934506354
1.035190615835777
1.0518084066471165
1.072336265884653
1.0948191593352885
1.1173020527859236
1.13880742913001
1.1583577712609971
1.1808406647116323
1.2130987292277615
1.2551319648093842
1.3157380254154447
1.412512218963832
1.5483870967741935
1.718475073313783
1.9130009775171064
2.117302052785924
2.312805474095797
2.4858260019550342
2.6265884652981426
2.732160312805474
2.803519061583578
2.844574780058651
2.859237536656892
2.854349951124145
2.8377321603128056
2.809384164222874
2.773216031280548
2.730205278592375
2.6823069403714563
2.627565982404692
2.563049853372434
2.487781036168133
2.4027370478983383
2.317693059628544
2.247311827956989
2.19941348973607
2.179863147605083
2.1974584555229715
2.247311827956989
2.312805474095797
2.372434017595308
2.406647116324536
2.406647116324536
2.372434017595308
2.313782991202346
2.2404692082111435
2.163245356793744
2.0957966764418376
2.035190615835777
1.9726295210166176
1.9100684261974583
1.8504398826979471
1.7947214076246334
1.7419354838709675
1.6930596285434996
1.6490713587487782
1.608993157380254
1.5747800586510263
1.5454545454545454
1.5249266862170088
1.5112414467253177
1.501466275659824
1.495601173020528
1.495601173020528
1.501466275659824
1.5112414467253177
1.521994134897361
1.5327468230694037
1.541544477028348
1.5503421309872922
1.564027370478983
1.590420332355816
1.6265884652981428
1.683284457478006
1.7771260997067448
1.90811339198436
2.071358748778104
2.254154447702835
2.439882697947214
2.611925708699902
2.758553274682307
2.874877810361681
2.962854349951124
3.026392961876833
3.0625610948191597
3.0762463343108504
3.070381231671554
3.0283479960899315
2.940371456500489
2.8044965786901277
2.6295210166177907
2.4359726295210167
2.2453567937438903
2.078201368523949
1.9442815249266865
1.8435972629521016
1.7663734115347018
1.7096774193548387
1.6627565982404693
1.6109481915933528
1.5562072336265884
1.498533724340176
1.4408602150537635
1.383186705767351
1.3264907135874875
1.2717497556207231
1.219941348973607
1.1700879765395895
1.1221896383186705
1.086021505376344
1.0557184750733135
1.0205278592375366
0.9863147605083088
0.9530791788856304
0.9227761485826002
0.895405669599218
0.8719452590420332
0.852394916911046
0.8367546432062561
0.8250244379276638
0.8181818181818182
0.8162267839687195
0.823069403714565
0.8357771260997068
0.8514173998044966
0.8709677419354839
0.895405669599218
0.9237536656891496
0.95405669599218
0.9853372434017597
1.013685239491691
1.0410557184750733
1.0840664711632453
1.1280547409579669
1.163245356793744
1.2218963831867058
1.3186705767350928
1.4545454545454546
1.6265884652981428
1.8240469208211143
2.03128054740958
2.23069403714565
2.4086021505376345
2.555229716520039
2.6666666666666665
2.742913000977517
2.787878787878788
2.806451612903226
2.8054740957966766
2.792766373411535
2.768328445747801
2.735092864125122
2.6930596285435
2.6451612903225805
2.592375366568915
2.5347018572825024
2.474095796676442
2.410557184750733
2.345063538611926
2.2844574780058653
2.225806451612903
2.161290322580645
2.0928641251221896
2.0234604105571847
1.95405669599218
1.884652981427175
1.81524926686217
1.747800586510264
1.6823069403714566
1.6187683284457477
1.5571847507331378
1.499511241446725
1.4535679374389052
1.4134897360703813
1.370478983382209
1.327468230694037
1.2864125122189638
1.2482893450635386
1.2140762463343109
1.1837732160312806
1.1583577712609971
1.1378299120234605
1.121212121212121
1.110459433040078
1.10752688172043
1.110459433040078
1.1163245356793745
1.1270772238514175
1.141739980449658
1.1612903225806452
1.1827956989247312
1.2052785923753666
1.2267839687194526
1.2453567937438903
1.2649071358748778
1.2913000977517106
1.3264907135874875
1.3782991202346042
1.4643206256109482
1.587487781036168
1.747800586510264
1.935483870967742
2.136852394916911
2.334310850439883
2.5112414467253177
2.6578690127077222
2.76930596285435
2.8455522971652005
2.8905180840664717
2.9071358748778104
2.9042033235581624
2.8885630498533725
2.8611925708699903
2.825024437927664
2.780058651026393
2.727272727272727
2.668621700879765
2.606060606060606
2.539589442815249
2.4711632453567938
2.40078201368524
2.3362658846529816
2.2737047898338223
2.2052785923753664
2.132942326490713
2.058651026392962
1.9833822091886608
1.90811339198436
1.833822091886608
1.7605083088954057
1.689149560117302
1.6187683284457477
1.5513196480938416
1.4868035190615836
1.4330400782013686
1.3870967741935485
1.3372434017595307
1.2883675464320623
1.2404692082111437
1.195503421309873
1.1544477028347997
1.118279569892473
1.0850439882697946
1.0576735092864125
1.035190615835777
1.0175953079178883
1.0087976539589445
1.0068426197458455
1.0068426197458455
1.0127077223851415
1.0234604105571847
1.0391006842619743
1.0586510263929618
1.0811339198435972
1.104594330400782
1.1270772238514175
1.147605083088954
1.1681329423264908
1.1945259042033236
1.2287390029325511
1.313782991202346
1.414467253176931
1.509286412512219
1.6529814271749756
1.8328445747800584
2.03128054740958
2.2297165200391005
2.410557184750733
2.5620723362658846
2.679374389051808
2.760508308895406
2.8054740957966766
2.8240469208211145
2.827956989247312
2.817204301075269
2.793743890518084
2.7595307917888565
2.717497556207233
2.6695992179863146
2.6158357771261
2.557184750733138
2.4946236559139785
2.429130009775171
2.361681329423265
2.2991202346041058
2.239491691104594
2.1730205278592374
2.102639296187683
2.03128054740958
1.9589442815249267
1.8875855327468232
1.8162267839687196
1.7468230694037146
1.6793743890518085
1.6129032258064515
1.5493646138807429
1.4965786901270772
1.4516129032258065
1.401759530791789
1.3519061583577712
1.3040078201368523
1.2590420332355816
1.2179863147605083
1.1808406647116323
1.147605083088954
1.118279569892473
1.093841642228739
1.0742913000977516
1.0596285434995112
1.0527859237536656
1.0527859237536656
1.0557184750733135
1.0625610948191593
1.075268817204301
1.0918866080156402
1.1124144672531768
1.1348973607038124
1.1583577712609971
1.1798631476050832
1.1994134897360704
1.219941348973607
1.2453567937438903
1.281524926686217
1.3401759530791788
1.4301075268817205
1.5571847507331378
1.7174975562072337
1.903225806451613
2.0977517106549364
2.280547409579668
2.4389051808406648
2.56891495601173
2.6666666666666665
2.7341153470185726
2.771260997067449
2.7859237536656893
2.787878787878788
2.7781036168132944
2.757575757575758
2.727272727272727
2.6901270772238512
2.64613880742913
2.598240469208211
2.5454545454545454
2.4887585532746823
2.4301075268817205
2.375366568914956
2.321603128054741
2.2629521016617797
2.201368523949169
2.1388074291300097
2.074291300097752
2.0097751710654936
1.946236559139785
1.884652981427175
1.8240469208211143
1.7644183773216031
1.7067448680351909
1.651026392961877
1.606060606060606
1.565982404692082
1.52297165200391
1.479960899315738
1.4389051808406648
1.4007820136852396
1.3655913978494625
1.3333333333333333
1.3049853372434017
1.2805474095796676
1.260019550342131
1.2443792766373412
1.2365591397849462
1.2336265884652982
1.2336265884652982
1.2365591397849462
1.2443792766373412
1.2570869990224829
1.273704789833822
1.2932551319648091
1.313782991202346
1.3333333333333333
1.3519061583577712
1.3695014662756595
1.391006842619746
1.4173998044965788
1.455522971652004
1.5190615835777126
1.6138807429130009
1.7878787878787878
1.9657869012707725
2.101661779081134
2.2580645161290325
2.412512218963832
2.549364613880743
2.659824046920821
2.740957966764418
2.788856304985337
2.812316715542522
2.823069403714565
2.819159335288368
2.803519061583578
2.7781036168132944
2.7438905180840663
2.7038123167155423
2.658846529814272
2.608993157380254
2.555229716520039
2.4995112414467253
2.44672531769306
2.3949169110459434
2.337243401759531
2.27761485826002
2.2160312805474094
2.15347018572825
2.090909090909091
2.0283479960899315
1.9667644183773216
1.9071358748778104
1.8484848484848484
1.790811339198436
1.7360703812316716
1.6901270772238517
1.6490713587487782
1.6050830889540566
1.5610948191593352
1.5190615835777126
1.479960899315738
1.4437927663734116
1.4105571847507332
1.380254154447703
1.35386119257087
1.332355816226784
1.3147605083088951
1.3049853372434017
1.3010752688172045
1.2981427174975562
1.2991202346041055
1.3049853372434017
1.3147605083088951
1.3294232649071358
1.3479960899315735
1.367546432062561
1.3870967741935485
1.404692082111437
1.4213098729227762
1.4389051808406648
1.4604105571847508
1.4936461388074291
1.5503421309872922
1.6373411534701858
1.7575757575757576
1.90811339198436
2.078201368523949
2.2551319648093844
2.4222873900293256
2.567937438905181
2.6852394916911044
2.7702834799608995
2.8211143695014664
2.84652981427175
2.857282502443793
2.854349951124145
2.838709677419355
2.811339198435973
2.776148582600196
2.7331378299120237
2.6852394916911044
2.632453567937439
2.575757575757576
2.5161290322580645
2.4545454545454546
2.3978494623655915
2.343108504398827
2.283479960899316
2.219941348973607
2.155425219941349
2.089931573802541
2.024437927663734
1.959921798631476
1.8963831867057677
1.833822091886608
1.772238514173998
1.7126099706744868
1.6627565982404693
1.6187683284457477
1.5708699902248289
1.52297165200391
1.47702834799609
1.434017595307918
1.393939393939394
1.356793743890518
1.3235581622678396
1.2942326490713587
1.267839687194526
1.24633431085044
1.2287390029325511
1.219941348973607
1.2160312805474096
1.2140762463343109
1.2160312805474096
1.2218963831867058
1.2326490713587488
1.2473118279569892
1.2649071358748778
1.284457478005865
1.3020527859237536
1.3176930596285434
1.332355816226784
1.3479960899315735
1.3685239491691104
1.4037145650048877
1.4613880742913
1.590420332355816
1.7311827956989247
1.8484848484848484
2.0009775171065494
2.2023460410557183
2.3812316715542523
2.496578690127077
2.598240469208211
2.67644183773216
2.7233626588465296
2.7468230694037143
2.757575757575758
2.7536656891495603
2.73802541544477
2.7126099706744866
2.679374389051808
2.6392961876832843
2.5943304007820136
2.544477028347996
2.4916911045943304
2.4349951124144678
2.3822091886608017
2.3304007820136854
2.2737047898338223
2.2130987292277613
2.150537634408602
2.0869990224828934
2.0234604105571847
1.959921798631476
1.8973607038123168
1.835777126099707
1.775171065493646
1.7165200391006843
1.6598240469208212
1.6129032258064515
1.5718475073313782
1.5268817204301075
1.4819159335288368
1.4389051808406648
1.3978494623655917
1.359726295210166
1.3255131964809383
1.2942326490713587
1.2668621700879763
1.2434017595307918
1.2238514173998043
1.2121212121212122
1.2052785923753666
1.2013685239491692
1.2013685239491692
1.203323558162268
1.2160312805474096
1.2316715542521994
1.2443792766373412
1.2619745845552297
1.2864125122189638
1.3128054740957966
1.3304007820136852
1.3479960899315735
1.3763440860215057
1.3998044965786902
1.4271749755620724
1.517106549364614
1.6637341153470186
1.826001955034213
2.0009775171065494
2.176930596285435
2.3421309872922778
2.4858260019550342
2.6021505376344085
2.6803519061583576
2.755620723362659
2.827956989247312
2.863147605083089
2.8719452590420333
2.860215053763441
2.833822091886608
2.7966764418377323
2.764418377321604
2.717497556207233
2.64613880742913
2.575757575757576
2.504398826979472
2.4389051808406648
