ppg
1.166177908113392
1.1564027370478984
1.1456500488758554
1.1358748778103618
1.1241446725317692
1.1133919843597262
1.1036168132942326
1.0899315738025417
1.078201368523949
1.0733137829912025
1.0821114369501466
1.1133919843597262
1.176930596285435
1.2766373411534702
1.41544477028348
1.5894428152492668
1.7898338220918866
2.005865102639296
2.193548387096774
2.358748778103617
2.525904203323558
2.674486803519061
2.792766373411535
2.87683284457478
2.924731182795699
2.940371456500489
2.9266862170087977
2.8905180840664717
2.8377321603128056
2.771260997067449
2.701857282502444
2.631476050830889
2.552297165200391
2.4682306940371457
2.383186705767351
2.297165200391007
2.212121212121212
2.1280547409579667
2.0439882697947214
1.9608993157380252
1.878787878787879
1.7976539589442817
1.7282502443792769
1.664711632453568
1.5962854349951123
1.5278592375366569
1.4623655913978495
1.401759530791789
1.3450635386119256
1.2932551319648091
1.2473118279569892
1.2072336265884651
1.1720430107526882
1.141739980449658
1.1163245356793745
1.1006842619745845
1.0909090909090908
1.083088954056696
1.078201368523949
1.0762463343108504
1.078201368523949
1.0821114369501466
1.0869990224828934
1.093841642228739
1.1016617790811338
1.1085043988269794
1.1143695014662756
1.1221896383186705
1.1300097751710656
1.1358748778103618
1.1397849462365592
1.141739980449658
1.141739980449658
1.1397849462365592
1.1358748778103618
1.130987292277615
1.1251221896383188
1.1192570869990224
1.1114369501466277
1.1026392961876832
1.0957966764418376
1.088954056695992
1.078201368523949
1.0654936461388074
1.050830889540567
1.0371456500488758
1.0303030303030305
1.0371456500488758
1.0654936461388074
1.1231671554252198
1.2258064516129032
1.3714565004887584
1.5180840664711632
1.6735092864125125
1.865102639296188
2.072336265884653
2.27761485826002
2.464320625610948
2.621700879765396
2.742913000977517
2.8260019550342133
2.870967741935484
2.8826979472140764
2.866080156402737
2.8289345063538613
2.7810361681329425
2.724340175953079
2.6559139784946235
2.579667644183773
2.4995112414467253
2.4173998044965788
2.335288367546432
2.2531769305962857
2.172043010752688
2.090909090909091
2.010752688172043
1.9315738025415443
1.8621700879765395
1.7976539589442817
1.7282502443792769
1.6578690127077225
1.587487781036168
1.5180840664711632
1.452590420332356
1.391006842619746
1.3333333333333333
1.2805474095796676
1.2326490713587488
1.1896383186705768
1.152492668621701
1.126099706744868
1.1065493646138806
1.088954056695992
1.0742913000977516
1.0654936461388074
1.0606060606060606
1.0596285434995112
1.0625610948191593
1.0694037145650048
1.0791788856304985
1.0899315738025417
1.1016617790811338
1.1133919843597262
1.1251221896383188
1.1358748778103618
1.1456500488758554
1.1544477028347997
1.1622678396871946
1.1681329423264908
1.1710654936461389
1.1720430107526882
1.1720430107526882
1.1691104594330402
1.1652003910068427
1.160312805474096
1.1573802541544478
1.1544477028347997
1.147605083088954
1.13880742913001
1.1270772238514175
1.1133919843597262
1.0987292277614855
1.0850439882697946
1.0762463343108504
1.0791788856304985
1.1016617790811338
1.152492668621701
1.219941348973607
1.310850439882698
1.444770283479961
1.6158357771260996
1.812316715542522
2.0205278592375366
2.2267839687194524
2.4164222873900294
2.578690127077224
2.7067448680351904
2.7966764418377323
2.849462365591398
2.8670576735092865
2.8582600195503423
2.8289345063538613
2.782991202346041
2.724340175953079
2.6559139784946235
2.578690127077224
2.495601173020528
2.409579667644184
2.3225806451612905
2.2355816226783967
2.1495601173020527
2.064516129032258
1.989247311827957
1.919843597262952
1.8455522971652003
1.76930596285435
1.694037145650049
1.619745845552297
1.5483870967741935
1.479960899315738
1.414467253176931
1.3528836754643203
1.2961876832844574
1.2453567937438903
1.2003910068426198
1.1652003910068427
1.1378299120234605
1.110459433040078
1.0869990224828934
1.0684261974584557
1.053763440860215
1.0449657869012707
1.0410557184750733
1.0420332355816226
1.04594330400782
1.0527859237536656
1.0625610948191593
1.0733137829912025
1.086021505376344
1.0987292277614855
1.110459433040078
1.1202346041055715
1.1280547409579669
1.133919843597263
1.1378299120234605
1.1407624633431086
1.141739980449658
1.1407624633431086
1.13880742913001
1.1348973607038124
1.1319648093841643
1.1300097751710656
1.1241446725317692
1.1173020527859236
1.1094819159335287
1.099706744868035
1.088954056695992
1.0762463343108504
1.0635386119257086
1.0518084066471165
1.043010752688172
1.0439882697947214
1.056695992179863
1.0869990224828934
1.144672531769306
1.2365591397849462
1.367546432062561
1.5356793743890518
1.732160312805474
1.945259042033236
2.160312805474096
2.363636363636364
2.5425219941348973
2.689149560117302
2.7976539589442817
2.8611925708699903
2.889540566959922
2.895405669599218
2.8797653958944283
2.843597262952102
2.790811339198436
2.7262952101661777
2.6529814271749754
2.5747800586510263
2.49266862170088
2.4086021505376345
2.32355816226784
2.24633431085044
2.1730205278592374
2.0948191593352883
2.01564027370479
1.935483870967742
1.855327468230694
1.7771260997067448
1.7008797653958945
1.6275659824046922
1.5571847507331378
1.4897360703812317
1.426197458455523
1.3743890518084063
1.3313782991202343
1.2873900293255132
1.2453567937438903
1.206256109481916
1.1720430107526882
1.1436950146627567
1.1202346041055715
1.1016617790811338
1.0879765395894427
1.0791788856304985
1.075268817204301
1.075268817204301
1.0791788856304985
1.0869990224828934
1.0948191593352885
1.1026392961876832
1.110459433040078
1.118279569892473
1.1251221896383188
1.1319648093841643
1.1368523949169111
1.1397849462365592
1.1407624633431086
1.1407624633431086
1.1407624633431086
1.1407624633431086
1.1368523949169111
1.1300097751710656
1.1221896383186705
1.1143695014662756
1.1065493646138806
1.0987292277614855
1.0899315738025417
1.0811339198435972
1.0713587487781036
1.0596285434995112
1.0449657869012707
1.0332355816226784
1.0234604105571847
1.0166177908113392
1.018572825024438
1.0391006842619743
1.0879765395894427
1.1700879765395895
1.289345063538612
1.4457478005865103
1.632453567937439
1.839687194525904
2.053763440860215
2.2346041055718477
2.388074291300098
2.5376344086021505
2.6637341153470184
2.757575757575758
2.81622678396872
2.841642228739003
2.8377321603128056
2.8084066471163247
2.760508308895406
2.699902248289345
2.6295210166177907
2.5532746823069403
2.4809384164222874
2.409579667644184
2.3304007820136854
2.247311827956989
2.1710654936461387
2.0977517106549364
2.0175953079178885
1.9345063538611929
1.8494623655913975
1.7653958944281525
1.683284457478006
1.6041055718475072
1.5366568914956011
1.47702834799609
1.414467253176931
1.3519061583577712
1.2913000977517106
1.2346041055718475
1.1837732160312806
1.1378299120234605
1.0987292277614855
1.0654936461388074
1.0381231671554252
1.0156402737047898
0.9990224828934506
0.9912023460410556
0.9902248289345064
0.9912023460410556
0.9941348973607038
1.0
1.0087976539589445
1.0205278592375366
1.035190615835777
1.0498533724340176
1.064516129032258
1.0791788856304985
1.0928641251221896
1.1065493646138806
1.118279569892473
1.126099706744868
1.1319648093841643
1.1358748778103618
1.1368523949169111
1.1358748778103618
1.1329423264907137
1.1280547409579669
1.1241446725317692
1.1202346041055715
1.1143695014662756
1.10752688172043
1.1026392961876832
1.0977517106549364
1.088954056695992
1.0772238514173995
1.0654936461388074
1.0576735092864125
1.0596285434995112
1.0791788856304985
1.1241446725317692
1.203323558162268
1.3206256109481915
1.474095796676442
1.629521016617791
1.7927663734115349
1.988269794721408
2.1915933528836757
2.3851417399804498
2.555229716520039
2.69208211143695
2.790811339198436
2.8514173998044967
2.87683284457478
2.8719452590420333
2.841642228739003
2.791788856304985
2.7341153470185726
2.6695992179863146
2.5943304007820136
2.5112414467253177
2.4222873900293256
2.3304007820136854
2.2375366568914954
2.144672531769306
2.0518084066471163
1.9608993157380252
1.871945259042033
1.7859237536656891
1.7116324535679377
1.6451612903225807
1.5747800586510263
1.504398826979472
1.435972629521017
1.370478983382209
1.310850439882698
1.2570869990224829
1.209188660801564
1.1681329423264908
1.1329423264907137
1.104594330400782
1.0821114369501466
1.0684261974584557
1.0625610948191593
1.0606060606060606
1.0625610948191593
1.0684261974584557
1.0791788856304985
1.0928641251221896
1.1085043988269794
1.1251221896383188
1.141739980449658
1.1583577712609971
1.173998044965787
1.1886608015640274
1.2013685239491692
1.2130987292277615
1.2218963831867058
1.227761485826002
1.2316715542521994
1.2316715542521994
1.2297165200391007
1.224828934506354
1.2179863147605083
1.2101661779081134
1.2023460410557183
1.1935483870967742
1.1867057673509287
1.1808406647116323
1.1720430107526882
1.160312805474096
1.1456500488758554
1.1290322580645162
1.1143695014662756
1.10752688172043
1.1143695014662756
1.144672531769306
1.2052785923753666
1.303030303030303
1.41544477028348
1.5483870967741935
1.726295210166178
1.9335288367546437
2.1524926686217007
2.3685239491691106
2.5650048875855327
2.732160312805474
2.863147605083089
2.95405669599218
3.004887585532747
3.0205278592375366
3.007820136852395
2.975562072336266
2.927663734115347
2.866080156402737
2.7947214076246336
2.716520039100684
2.634408602150537
2.5513196480938416
2.4672531769305963
2.383186705767351
2.300097751710655
2.217986314760508
2.136852394916911
2.065493646138808
1.9990224828934504
1.9257086999022484
1.8504398826979471
1.775171065493646
1.7008797653958945
1.6285434995112416
1.5591397849462365
1.4946236559139785
1.434017595307918
1.3792766373411536
1.3284457478005864
1.289345063538612
1.2580645161290325
1.2258064516129032
1.1964809384164223
1.1710654936461389
1.1505376344086022
1.1358748778103618
1.126099706744868
1.1221896383186705
1.121212121212121
1.1231671554252198
1.1270772238514175
1.130987292277615
1.1368523949169111
1.142717497556207
1.147605083088954
1.152492668621701
1.155425219941349
1.1583577712609971
1.1612903225806452
1.1622678396871946
1.1612903225806452
1.160312805474096
1.1573802541544478
1.152492668621701
1.1495601173020529
1.147605083088954
1.142717497556207
1.1348973607038124
1.126099706744868
1.1173020527859236
1.1055718475073313
1.0909090909090908
1.075268817204301
1.0596285434995112
1.0498533724340176
1.050830889540567
1.0713587487781036
1.1094819159335287
1.1710654936461389
1.270772238514174
1.4115347018572826
1.5884652981427174
1.793743890518084
2.0127077223851417
2.233626588465298
2.439882697947214
2.618768328445748
2.7624633431085046
2.8670576735092865
2.9257086999022484
2.9501466275659824
2.9530791788856305
2.932551319648094
2.89247311827957
2.8367546432062563
2.76930596285435
2.6930596285435
2.611925708699902
2.5268817204301075
2.439882697947214
2.3519061583577714
2.2639296187683287
2.1847507331378297
2.1114369501466275
2.032258064516129
1.951124144672532
1.869012707722385
1.7888563049853372
1.7096774193548387
1.632453567937439
1.5591397849462365
1.4887585532746823
1.4222873900293256
1.3587487781036167
1.3079178885630498
1.2658846529814272
1.2218963831867058
1.1808406647116323
1.1436950146627567
1.1124144672531768
1.086021505376344
1.0654936461388074
1.0498533724340176
1.0391006842619743
1.032258064516129
1.0342130987292275
1.043010752688172
1.0518084066471165
1.06158357771261
1.0703812316715542
1.0791788856304985
1.0869990224828934
1.0948191593352885
1.1036168132942326
1.110459433040078
1.1163245356793745
1.121212121212121
1.1251221896383188
1.1270772238514175
1.1290322580645162
1.130987292277615
1.1300097751710656
1.1270772238514175
1.1221896383186705
1.1163245356793745
1.1085043988269794
1.1006842619745845
1.0909090909090908
1.0801564027370478
1.0684261974584557
1.0557184750733135
1.043010752688172
1.0361681329423265
1.0342130987292275
1.040078201368524
1.0625610948191593
1.1094819159335287
1.187683284457478
1.3020527859237536
1.4516129032258065
1.629521016617791
1.8269794721407624
2.032258064516129
2.23069403714565
2.389051808406647
2.5131964809384164
2.624633431085044
2.7096774193548385
2.763440860215054
2.7859237536656893
2.7810361681329425
2.752688172043011
2.70772238514174
2.649071358748778
2.579667644183773
2.504398826979472
2.423264907135875
2.347018572825025
2.272727272727273
2.1925708699902247
2.1094819159335287
2.0254154447702835
1.9423264907135875
1.8592375366568916
1.7771260997067448
1.696969696969697
1.619745845552297
1.5464320625610948
1.47702834799609
1.418377321603128
1.3665689149560116
1.3128054740957966
1.2590420332355816
1.2082111436950147
1.1612903225806452
1.1192570869990224
1.0821114369501466
1.0518084066471165
1.0273704789833822
1.0097751710654936
0.997067448680352
0.9902248289345064
0.9902248289345064
0.9951124144672532
1.0019550342130987
1.010752688172043
1.0224828934506354
1.0371456500488758
1.053763440860215
1.0713587487781036
1.088954056695992
1.1065493646138806
1.1231671554252198
1.1378299120234605
1.1495601173020529
1.160312805474096
1.1671554252199414
1.1720430107526882
1.173998044965787
1.173998044965787
1.1720430107526882
1.1681329423264908
1.1622678396871946
1.1544477028347997
1.1466275659824048
1.13880742913001
1.1290322580645162
1.1221896383186705
1.1163245356793745
1.1055718475073313
1.0928641251221896
1.083088954056696
1.0791788856304985
1.1036168132942326
1.1407624633431086
1.18475073313783
1.2697947214076246
1.3949169110459434
1.555229716520039
1.7135874877810362
1.8748778103616808
2.06158357771261
2.251221896383187
2.4271749755620724
2.5777126099706744
2.695014662756598
2.7751710654936463
2.820136852394917
2.832844574780059
2.8181818181818183
2.7810361681329425
2.732160312805474
2.675464320625611
2.606060606060606
2.527859237536657
2.444770283479961
2.357771260997068
2.2688172043010755
2.1788856304985336
2.088954056695992
1.9990224828934504
1.9090909090909087
1.8211143695014664
1.7350928641251222
1.6608015640273706
1.5943304007820136
1.52297165200391
1.4516129032258065
1.3822091886608017
1.3176930596285434
1.2580645161290325
1.203323558162268
1.152492668621701
1.10752688172043
1.067448680351906
1.032258064516129
1.0087976539589445
0.9921798631476052
0.9775171065493646
0.9667644183773216
0.9618768328445748
0.9628543499511242
0.9687194525904204
0.9804496578690128
0.9960899315738024
1.0156402737047898
1.0381231671554252
1.0625610948191593
1.0879765395894427
1.1114369501466277
1.133919843597263
1.1564027370478984
1.176930596285435
1.1945259042033236
1.209188660801564
1.2209188660801564
1.2287390029325511
1.2336265884652982
1.2355816226783969
1.2336265884652982
1.2287390029325511
1.224828934506354
1.219941348973607
1.2111436950146628
1.1994134897360704
1.1857282502443791
1.1700879765395895
1.152492668621701
1.1329423264907137
1.1143695014662756
1.1016617790811338
1.1016617790811338
1.1221896383186705
1.1720430107526882
1.2394916911045943
1.3333333333333333
1.4721407624633431
1.6480938416422288
1.8514173998044965
2.0684261974584555
2.283479960899316
2.482893450635386
2.653958944281525
2.788856304985337
2.884652981427175
2.9423264907135875
2.962854349951124
2.956011730205278
2.9266862170087977
2.8797653958944283
2.8181818181818183
2.745845552297165
2.665689149560117
2.5806451612903225
2.49266862170088
2.4027370478983383
2.3118279569892475
2.220918866080156
2.1300097751710654
2.0498533724340176
1.9765395894428155
1.8973607038123168
1.8162267839687196
1.737047898338221
1.6608015640273706
1.587487781036168
1.5180840664711632
1.4535679374389052
1.393939393939394
1.3401759530791788
1.2932551319648091
1.2570869990224829
1.2287390029325511
1.2013685239491692
1.1779081133919844
1.160312805474096
1.1485826001955035
1.1436950146627567
1.1436950146627567
1.1495601173020529
1.160312805474096
1.1808406647116323
1.2013685239491692
1.2179863147605083
1.2365591397849462
1.2561094819159335
1.2776148582600195
1.2981427174975562
1.3176930596285434
1.3343108504398826
1.3479960899315735
1.3587487781036167
1.3655913978494625
1.3685239491691104
1.367546432062561
1.3636363636363635
1.3577712609970674
1.3509286412512218
1.3401759530791788
1.327468230694037
1.3128054740957966
1.305962854349951
1.303030303030303
1.2913000977517106
1.2746823069403714
1.2561094819159335
1.2404692082111437
1.2336265884652982
1.2434017595307918
1.267839687194526
1.3147605083088951
1.3988269794721409
1.52297165200391
1.683284457478006
1.8729227761485825
2.078201368523949
2.2873900293255134
2.484848484848485
2.6578690127077222
2.798631476050831
2.903225806451613
2.963831867057673
2.991202346041056
2.9960899315738025
2.979472140762464
2.9442815249266863
2.89345063538612
2.832844574780059
2.764418377321604
2.689149560117302
2.6099706744868034
2.5288367546432062
2.44672531769306
2.364613880742913
2.291300097751711
2.222873900293255
2.1495601173020527
2.075268817204301
2.0009775171065494
1.9266862170087975
1.8523949169110456
1.780058651026393
1.710654936461388
1.6441837732160314
1.581622678396872
1.521994134897361
1.4731182795698925
1.43108504398827
1.3870967741935485
1.3450635386119256
1.3069403714565004
1.273704789833822
1.24633431085044
1.2238514173998043
1.2072336265884651
1.1964809384164223
1.1896383186705768
1.1867057673509287
1.187683284457478
1.1915933528836755
1.198435972629521
1.206256109481916
1.2150537634408602
1.224828934506354
1.2336265884652982
1.241446725317693
1.2473118279569892
1.252199413489736
1.2561094819159335
1.2590420332355816
1.260019550342131
1.2609970674486803
1.2609970674486803
1.2580645161290325
1.2531769305962854
1.2453567937438903
1.2365591397849462
1.2267839687194526
1.2140762463343109
1.2013685239491692
1.1886608015640274
1.1749755620723363
1.1612903225806452
1.1456500488758554
1.133919843597263
1.1231671554252198
1.1094819159335287
1.0987292277614855
1.0977517106549364
1.115347018572825
1.1612903225806452
1.241446725317693
1.359726295210166
1.517106549364614
1.7067448680351909
1.9188660801564028
2.1094819159335287
2.283479960899316
2.4652981427174976
2.632453567937439
2.771260997067449
2.875855327468231
2.943304007820137
2.975562072336266
2.978494623655914
2.956989247311828
2.9149560117302054
2.859237536656892
2.798631476050831
2.713587487781036
2.6295210166177907
2.5669599217986314
2.4946236559139785
2.4173998044965788
2.3382209188660803
2.260019550342131
2.1818181818181817
2.103616813294233
2.026392961876833
1.949169110459433
1.8729227761485825
1.8064516129032255
1.7458455522971652
1.6813294232649072
1.6021505376344083
1.530791788856305
1.4809384164222874
1.4301075268817205
1.3685239491691104
1.313782991202346
1.2766373411534702
1.2404692082111437
1.2072336265884651
1.1827956989247312
1.166177908113392
1.1495601173020529
1.1358748778103618
1.1270772238514175
1.1231671554252198
1.1221896383186705
1.1270772238514175
1.1368523949169111
1.147605083088954
1.1593352883675463
1.1710654936461389
1.181818181818182
1.1925708699902249
1.203323558162268
1.2121212121212122
1.2189638318670577
1.224828934506354
1.227761485826002
1.2287390029325511
1.227761485826002
1.224828934506354
1.2209188660801564
1.2140762463343109
1.209188660801564
1.2043010752688172
1.1994134897360704
1.1915933528836755
1.1779081133919844
1.1652003910068427
1.1515151515151516
1.1368523949169111
1.121212121212121
1.1055718475073313
1.0948191593352885
1.093841642228739
1.110459433040078
1.142717497556207
1.1974584555229717
1.289345063538612
1.4193548387096775
1.58455522971652
1.7790811339198436
1.988269794721408
2.19941348973607
2.3978494623655915
2.572825024437928
2.716520039100684
2.822091886608016
2.884652981427175
2.913978494623656
2.921798631476051
2.90811339198436
2.875855327468231
2.827956989247312
2.768328445747801
2.7008797653958942
2.6285434995112413
2.5513196480938416
2.4711632453567938
2.3900293255131966
2.30791788856305
2.233626588465298
2.163245356793744
2.0879765395894427
2.0117302052785924
1.9345063538611929
1.857282502443793
1.7820136852394917
1.7086999022482894
1.6373411534701858
1.56891495601173
1.5034213098729228
1.4408602150537635
1.3900293255131966
1.346041055718475
1.300097751710655
1.2561094819159335
1.2160312805474096
1.1798631476050832
1.1485826001955035
1.1231671554252198
1.1026392961876832
1.0879765395894427
1.078201368523949
1.0733137829912025
1.072336265884653
1.0772238514173995
1.0850439882697946
1.0948191593352885
1.1055718475073313
1.1173020527859236
1.1300097751710656
1.142717497556207
1.155425219941349
1.1681329423264908
1.1788856304985338
1.187683284457478
1.1945259042033236
1.2003910068426198
1.206256109481916
1.2082111436950147
1.2072336265884651
1.2043010752688172
1.1994134897360704
1.1915933528836755
1.1837732160312806
1.1749755620723363
1.166177908113392
1.1564027370478984
1.1456500488758554
1.133919843597263
1.1251221896383188
1.1163245356793745
1.1036168132942326
1.0899315738025417
1.0811339198435972
1.0850439882697946
1.1094819159335287
1.1622678396871946
1.2502443792766371
1.3763440860215057
1.5386119257087
1.718475073313783
1.881720430107527
2.047898338220919
2.2375366568914954
2.4252199413489737
2.592375366568915
2.7282502443792764
2.827956989247312
2.8905180840664717
2.917888563049853
2.9159335288367547
2.8885630498533725
2.841642228739003
2.7810361681329425
2.716520039100684
2.6480938416422286
2.5698924731182795
2.4858260019550342
2.398826979472141
2.3098729227761488
2.220918866080156
2.132942326490713
2.04594330400782
1.9618768328445748
1.8778103616813293
1.7947214076246334
1.7233626588465298
1.6588465298142718
1.590420332355816
1.521994134897361
1.4545454545454546
1.3900293255131966
1.3284457478005864
1.2717497556207231
1.2189638318670577
1.1720430107526882
1.130987292277615
1.096774193548387
1.0684261974584557
1.050830889540567
1.040078201368524
1.0332355816226784
1.0312805474095796
1.0361681329423265
1.0478983382209188
1.0635386119257086
1.083088954056696
1.1055718475073313
1.1300097751710656
1.155425219941349
1.181818181818182
1.206256109481916
1.2287390029325511
1.2512218963831867
1.2717497556207231
1.289345063538612
1.303030303030303
1.3118279569892473
1.316715542521994
1.3176930596285434
1.3147605083088951
1.3088954056695992
1.3010752688172045
1.2942326490713587
1.2873900293255132
1.2756598240469208
1.2609970674486803
1.2453567937438903
1.227761485826002
1.2082111436950147
1.187683284457478
1.166177908113392
1.147605083088954
1.1358748778103618
1.1378299120234605
1.1612903225806452
1.2023460410557183
1.2688172043010753
1.375366568914956
1.521016617790811
1.7018572825024438
1.906158357771261
2.121212121212121
2.3313782991202348
2.52297165200391
2.686217008797654
2.8132942326490715
2.903225806451613
2.9501466275659824
2.963831867057673
2.956989247311828
2.929618768328446
2.884652981427175
2.8260019550342133
2.757575757575758
2.6823069403714563
2.603128054740958
2.520039100684262
2.4359726295210167
2.3519061583577714
2.2668621700879767
2.1915933528836757
2.120234604105572
2.0439882697947214
1.9667644183773216
1.8885630498533723
1.8103616813294232
1.7341153470185728
1.6608015640273706
1.5913978494623655
1.5249266862170088
1.4613880742913
1.401759530791789
1.35386119257087
1.3147605083088951
1.273704789833822
1.2355816226783969
1.2013685239491692
1.1710654936461389
1.147605083088954
1.1290322580645162
1.1163245356793745
1.1085043988269794
1.1055718475073313
1.10752688172043
1.1124144672531768
1.1202346041055715
1.1290322580645162
1.13880742913001
1.1485826001955035
1.1593352883675463
1.1681329423264908
1.1759530791788857
1.181818181818182
1.1867057673509287
1.1896383186705768
1.1906158357771262
