ppg
2.002932551319648
1.9716520039100685
1.9403714565004888
1.9100684261974583
1.878787878787879
1.8465298142717497
1.8162267839687196
1.7859237536656891
1.75366568914956
1.7204301075268815
1.6930596285434996
1.6686217008797657
1.6422287390029326
1.6138807429130009
1.585532746823069
1.560117302052786
1.5376344086021505
1.517106549364614
1.4965786901270772
1.4760508308895406
1.456500488758553
1.4379276637341154
1.4203323558162269
1.4086021505376345
1.3998044965786902
1.3890518084066472
1.35386119257087
1.3079178885630498
1.278592375366569
1.2580645161290325
1.2424242424242424
1.2287390029325511
1.2160312805474096
1.203323558162268
1.1925708699902249
1.1857282502443791
1.181818181818182
1.1759530791788857
1.1700879765395895
1.1652003910068427
1.160312805474096
1.155425219941349
1.1485826001955035
1.141739980449658
1.133919843597263
1.126099706744868
1.118279569892473
1.110459433040078
1.1055718475073313
1.1036168132942326
1.1006842619745845
1.096774193548387
1.0918866080156402
1.086021505376344
1.0791788856304985
1.072336265884653
1.067448680351906
1.0625610948191593
1.0586510263929618
1.0557184750733135
1.0557184750733135
1.0586510263929618
1.0606060606060606
1.0596285434995112
1.056695992179863
1.0527859237536656
1.050830889540567
1.0547409579667644
1.0684261974584557
1.099706744868035
1.152492668621701
1.2287390029325511
1.3294232649071358
1.434017595307918
1.5464320625610948
1.686217008797654
1.8387096774193548
1.9931573802541545
2.142717497556207
2.281524926686217
2.404692082111437
2.5102639296187683
2.5972629521016617
2.665689149560117
2.716520039100684
2.745845552297165
2.758553274682307
2.7653958944281527
2.764418377321604
2.7565982404692084
2.740957966764418
2.717497556207233
2.686217008797654
2.6471163245356792
2.5992179863147604
2.5454545454545454
2.4858260019550342
2.4222873900293256
2.361681329423265
2.302052785923754
2.236559139784946
2.172043010752688
2.1094819159335287
2.0527859237536656
2.002932551319648
1.9608993157380252
1.9257086999022484
1.8983382209188664
1.87683284457478
1.858260019550342
1.8435972629521016
1.83088954056696
1.8191593352883677
1.8064516129032255
1.7947214076246334
1.782991202346041
1.7712609970674489
1.758553274682307
1.7438905180840665
1.7282502443792769
1.710654936461388
1.6911045943304008
1.6686217008797657
1.64613880742913
1.6236559139784943
1.5962854349951123
1.5679374389051808
1.5395894428152492
1.5102639296187683
1.4819159335288368
1.455522971652004
1.4301075268817205
1.4056695992179864
1.380254154447703
1.3528836754643203
1.3304007820136852
1.3118279569892473
1.29227761485826
1.2727272727272727
1.2531769305962854
1.2336265884652982
1.2150537634408602
1.2003910068426198
1.1886608015640274
1.1788856304985338
1.1700879765395895
1.1622678396871946
1.1544477028347997
1.1495601173020529
1.144672531769306
1.1358748778103618
1.1231671554252198
1.1094819159335287
1.0948191593352885
1.0801564027370478
1.0664711632453567
1.053763440860215
1.043010752688172
1.0332355816226784
1.0254154447702837
1.021505376344086
1.0175953079178883
1.0097751710654936
1.0009775171065494
0.9931573802541545
0.9853372434017597
0.978494623655914
0.9716520039100685
0.9657869012707724
0.959921798631476
0.9530791788856304
0.9472140762463344
0.9433040078201368
0.9423264907135877
0.9433040078201368
0.9423264907135877
0.9423264907135877
0.9423264907135877
0.9423264907135877
0.9423264907135877
0.9423264907135877
0.9423264907135877
0.9423264907135877
0.9423264907135877
0.9413489736070382
0.9413489736070382
0.9423264907135877
0.9423264907135877
0.9433040078201368
0.9491691104594332
0.9667644183773216
1.0009775171065494
1.0557184750733135
1.1329423264907137
1.2355816226783969
1.3616813294232648
1.504398826979472
1.6578690127077225
1.7947214076246334
1.920821114369501
2.058651026392962
2.193548387096774
2.3167155425219943
2.4242424242424243
2.5161290322580645
2.590420332355816
2.6471163245356792
2.687194525904203
2.7116324535679373
2.7233626588465296
2.720430107526881
2.705767350928641
2.684261974584555
2.654936461388074
2.618768328445748
2.575757575757576
2.5268817204301075
2.472140762463343
2.412512218963832
2.3489736070381237
2.2825024437927666
2.21505376344086
2.155425219941349
2.1006842619745845
2.0449657869012707
1.991202346041056
1.945259042033236
1.9071358748778104
1.8758553274682308
1.8504398826979471
1.8299120234604105
1.8132942326490715
1.801564027370479
1.793743890518084
1.7878787878787878
1.782991202346041
1.7781036168132942
1.7702834799608993
1.7605083088954057
1.747800586510264
1.732160312805474
1.7126099706744868
1.6901270772238517
1.6666666666666667
1.643206256109482
1.619745845552297
1.5943304007820136
1.5708699902248289
1.5493646138807429
1.5249266862170088
1.498533724340176
1.4701857282502444
1.4418377321603129
1.4134897360703813
1.388074291300098
1.3636363636363635
1.3401759530791788
1.3186705767350928
1.2981427174975562
1.2776148582600195
1.2619745845552297
1.249266862170088
1.2355816226783969
1.2218963831867058
1.2072336265884651
1.1945259042033236
1.181818181818182
1.1681329423264908
1.1534701857282503
1.13880742913001
1.1270772238514175
1.1173020527859236
1.1114369501466277
1.10752688172043
1.1016617790811338
1.0948191593352885
1.0869990224828934
1.0791788856304985
1.072336265884653
1.067448680351906
1.0625610948191593
1.0586510263929618
1.0733137829912025
1.0987292277614855
1.110459433040078
1.1173020527859236
1.121212121212121
1.121212121212121
1.1192570869990224
1.1163245356793745
1.1124144672531768
1.1085043988269794
1.104594330400782
1.1006842619745845
1.0977517106549364
1.0948191593352885
1.0909090909090908
1.0899315738025417
1.0909090909090908
1.0879765395894427
1.083088954056696
1.0772238514173995
1.0713587487781036
1.0654936461388074
1.0596285434995112
1.0518084066471165
1.0439882697947214
1.0381231671554252
1.0332355816226784
1.0312805474095796
1.0381231671554252
1.056695992179863
1.0909090909090908
1.147605083088954
1.23069403714565
1.3411534701857282
1.47702834799609
1.6334310850439884
1.8025415444770283
1.9775171065493649
2.150537634408602
2.314760508308896
2.44672531769306
2.5542521994134897
2.66177908113392
2.757575757575758
2.8377321603128056
2.900293255131965
2.945259042033236
2.9745845552297165
2.989247311827957
2.991202346041056
2.983382209188661
2.9687194525904204
2.946236559139785
2.916911045943304
2.8826979472140764
2.841642228739003
2.793743890518084
2.7390029325513194
2.678396871945259
2.6129032258064515
2.544477028347996
2.4731182795698925
2.4027370478983383
2.335288367546432
2.2737047898338223
2.222873900293255
2.179863147605083
2.1378299120234603
2.1006842619745845
2.070381231671554
2.04594330400782
2.0254154447702835
2.005865102639296
1.988269794721408
1.970674486803519
1.9530791788856303
1.935483870967742
1.9159335288367547
1.8973607038123168
1.8797653958944285
1.858260019550342
1.833822091886608
1.8084066471163245
1.782991202346041
1.7575757575757576
1.7311827956989247
1.7028347996089932
1.6764418377321604
1.6500488758553276
1.6217008797653958
1.5972629521016617
1.5747800586510263
1.5493646138807429
1.5239491691104594
1.498533724340176
1.4731182795698925
1.4496578690127078
1.4291300097751711
1.4115347018572826
1.3958944281524928
1.3822091886608017
1.3685239491691104
1.3558162267839686
1.346041055718475
1.33822091886608
1.327468230694037
1.3157380254154447
1.3040078201368523
1.2903225806451613
1.2746823069403714
1.2590420332355816
1.2404692082111437
1.2179863147605083
1.1945259042033236
1.1710654936461389
1.1534701857282503
1.1407624633431086
1.1270772238514175
1.1133919843597262
1.1006842619745845
1.0879765395894427
1.0742913000977516
1.0625610948191593
1.053763440860215
1.0469208211143697
1.0420332355816226
1.0371456500488758
1.0342130987292275
1.0361681329423265
1.0391006842619743
1.0420332355816226
1.043010752688172
1.043010752688172
1.0420332355816226
1.0391006842619743
1.0371456500488758
1.0342130987292275
1.0312805474095796
1.0283479960899315
1.0273704789833822
1.0283479960899315
1.0312805474095796
1.0332355816226784
1.032258064516129
1.0312805474095796
1.029325513196481
1.0273704789833822
1.0273704789833822
1.0303030303030305
1.040078201368524
1.0606060606060606
1.0987292277614855
1.1593352883675463
1.23069403714565
1.3196480938416422
1.4418377321603129
1.5894428152492668
1.7556207233626588
1.9335288367546437
2.112414467253177
2.286412512218964
2.447702834799609
2.591397849462365
2.7155425219941347
2.820136852394917
2.8944281524926687
2.9472140762463344
2.9931573802541545
3.0303030303030303
3.056695992179863
3.074291300097752
3.083088954056696
3.0821114369501466
3.072336265884653
3.053763440860215
3.026392961876833
2.991202346041056
2.951124144672532
2.9100684261974585
2.868035190615836
2.8260019550342133
2.7859237536656893
2.7497556207233624
2.717497556207233
2.6901270772238512
2.665689149560117
2.643206256109482
2.6207233626588464
2.60019550342131
2.581622678396872
2.563049853372434
2.547409579667644
2.535679374389052
2.5239491691104594
2.5112414467253177
2.496578690127077
2.479960899315738
2.464320625610948
2.449657869012708
2.432062561094819
2.41544477028348
2.398826979472141
2.3792766373411536
2.360703812316716
2.3440860215053765
2.3274682306940373
2.310850439882698
2.294232649071359
2.275659824046921
2.2551319648093844
2.23069403714565
2.203323558162268
2.174975562072336
2.145650048875855
2.1163245356793743
2.089931573802541
2.0664711632453567
2.042033235581622
2.016617790811339
1.991202346041056
1.9657869012707725
1.9393939393939397
1.911045943304008
1.8797653958944285
1.8465298142717497
1.812316715542522
1.7781036168132942
1.7497556207233629
1.726295210166178
1.7018572825024438
1.6774193548387095
1.6559139784946235
1.6373411534701858
1.619745845552297
1.6021505376344083
1.587487781036168
1.5728250244379276
1.5571847507331378
1.5405669599217986
1.5239491691104594
1.5102639296187683
1.498533724340176
1.4858260019550342
1.4731182795698925
1.4623655913978495
1.4506353861192571
1.436950146627566
1.423264907135875
1.4086021505376345
1.3949169110459434
1.3812316715542523
1.3685239491691104
1.3587487781036167
1.3519061583577712
1.3440860215053765
1.335288367546432
1.3157380254154447
1.29227761485826
1.2746823069403714
1.2609970674486803
1.2502443792766371
1.241446725317693
1.2346041055718475
1.2267839687194526
1.2179863147605083
1.2101661779081134
1.2023460410557183
1.1906158357771262
1.1798631476050832
1.173998044965787
1.176930596285435
1.1945259042033236
1.2326490713587488
1.295210166177908
1.3841642228739004
1.498533724340176
1.6383186705767352
1.7732160312805474
1.906158357771261
2.059628543499511
2.218963831867057
2.3734115347018574
2.5161290322580645
2.643206256109482
2.752688172043011
2.844574780058651
2.919843597262952
2.979472140762464
3.022482893450636
3.050830889540567
3.0625610948191597
3.06158357771261
3.058651026392962
3.0498533724340176
3.034213098729228
3.010752688172043
2.978494623655914
2.93841642228739
2.8905180840664717
2.835777126099707
2.7751710654936463
2.710654936461388
2.6471163245356792
2.5835777126099706
2.5141739980449658
2.444770283479961
2.378299120234604
2.315738025415445
2.259042033235582
2.2082111436950145
2.1652003910068425
2.1300097751710654
2.101661779081134
2.0791788856304985
2.059628543499511
2.0410557184750733
2.024437927663734
2.0087976539589443
1.992179863147605
1.975562072336266
1.9589442815249267
1.9413489736070384
1.921798631476051
1.900293255131965
1.8778103616813293
1.8514173998044965
1.8240469208211143
1.7986314760508308
1.7761485826001957
1.7526881720430108
1.7282502443792769
1.7018572825024438
1.672531769305963
1.6422287390029326
1.6129032258064515
1.5835777126099706
1.5542521994134897
1.5268817204301075
1.5024437927663734
1.4819159335288368
1.466275659824047
1.4516129032258065
1.435972629521017
1.4193548387096775
1.4007820136852396
1.3812316715542523
1.3626588465298142
1.346041055718475
1.3304007820136852
1.316715542521994
1.3040078201368523
1.2913000977517106
1.2825024437927663
1.2746823069403714
1.2639296187683284
1.2531769305962854
1.2424242424242424
1.2326490713587488
1.2238514173998043
1.2150537634408602
1.206256109481916
1.198435972629521
1.1906158357771262
1.1808406647116323
1.1710654936461389
1.1652003910068427
1.1612903225806452
1.155425219941349
1.147605083088954
1.1397849462365592
1.1319648093841643
1.1241446725317692
1.1173020527859236
1.1114369501466277
1.1065493646138806
1.1016617790811338
1.0977517106549364
1.096774193548387
1.096774193548387
1.0948191593352885
1.0918866080156402
1.088954056695992
1.0850439882697946
1.0811339198435972
1.0772238514173995
1.0742913000977516
1.072336265884653
1.0713587487781036
1.072336265884653
1.0742913000977516
1.0801564027370478
1.0909090909090908
1.10752688172043
1.13880742913001
1.1896383186705768
1.2619745845552297
1.3587487781036167
1.479960899315738
1.6217008797653958
1.7771260997067448
1.93841642228739
2.0987292277614857
2.23069403714565
2.3411534701857284
2.450635386119257
2.550342130987292
2.634408602150537
2.702834799608993
2.7546432062561097
2.791788856304985
2.81622678396872
2.83088954056696
2.8367546432062563
2.834799608993157
2.822091886608016
2.801564027370479
2.776148582600196
2.7438905180840663
2.7038123167155423
2.6578690127077222
2.606060606060606
2.548387096774193
2.4858260019550342
2.419354838709677
2.3528836754643208
2.290322580645161
2.23069403714565
2.1818181818181817
2.1417399804496577
2.1055718475073317
2.074291300097752
2.0498533724340176
2.0303030303030303
2.016617790811339
2.0087976539589443
2.004887585532747
2.0009775171065494
1.9951124144672527
1.9872922776148585
1.9794721407624636
1.9716520039100685
1.962854349951124
1.951124144672532
1.9364613880742916
1.920821114369501
1.905180840664712
1.8875855327468232
1.869012707722385
1.8484848484848484
1.826001955034213
1.801564027370479
1.7781036168132942
1.758553274682307
1.7419354838709675
1.7253176930596286
1.7086999022482894
1.6920821114369502
1.675464320625611
1.6578690127077225
1.640273704789834
1.6217008797653958
1.6021505376344083
1.5826001955034212
1.5620723362658846
1.543499511241447
1.525904203323558
1.5083088954056696
1.4916911045943304
1.47702834799609
1.4652981427174976
1.455522971652004
1.4486803519061584
1.444770283479961
1.4418377321603129
1.439882697947214
1.4389051808406648
1.4379276637341154
1.4389051808406648
1.439882697947214
1.4408602150537635
1.4408602150537635
1.4418377321603129
1.4437927663734116
1.4467253176930597
1.452590420332356
1.458455522971652
1.4623655913978495
1.4643206256109482
1.4652981427174976
1.4672531769305963
1.469208211143695
1.4701857282502444
1.4701857282502444
1.4682306940371457
1.4633431085043989
1.456500488758553
1.4486803519061584
1.439882697947214
1.4281524926686218
1.414467253176931
1.396871945259042
1.3763440860215057
1.3607038123167154
1.346041055718475
1.3284457478005864
1.3098729227761483
1.289345063538612
1.2668621700879763
1.2434017595307918
1.2218963831867058
1.2013685239491692
1.1857282502443791
1.160312805474096
1.13880742913001
1.1436950146627567
1.1691104594330402
1.219941348973607
1.2961876832844574
1.396871945259042
1.5151515151515151
1.64613880742913
1.7849462365591398
1.9227761485826005
2.0547409579667644
2.177908113391984
2.289345063538612
2.386119257086999
2.4594330400782014
2.5141739980449658
2.5650048875855327
2.6041055718475072
2.631476050830889
2.6480938416422286
2.6510263929618767
2.6422287390029324
2.625610948191593
2.603128054740958
2.575757575757576
2.5464320625610948
2.5131964809384164
2.4760508308895406
2.4330400782013686
2.383186705767351
2.3274682306940373
2.2668621700879767
2.203323558162268
2.136852394916911
2.067448680351906
1.9960899315738023
1.9237536656891496
1.8504398826979471
1.7781036168132942
1.7174975562072337
1.6656891495601174
1.6138807429130009
1.5669599217986314
1.5239491691104594
1.4848484848484849
1.4457478005865103
1.4056695992179864
1.3626588465298142
1.3176930596285434
1.2727272727272727
1.2287390029325511
1.1935483870967742
1.163245356793744
1.130987292277615
1.1006842619745845
1.0742913000977516
1.0527859237536656
1.0381231671554252
1.029325513196481
1.0273704789833822
1.0303030303030305
1.0381231671554252
1.0498533724340176
1.064516129032258
1.0791788856304985
1.0928641251221896
1.1036168132942326
1.1094819159335287
1.110459433040078
1.1055718475073313
1.0957966764418376
1.083088954056696
1.0664711632453567
1.0469208211143697
1.0263929618768328
1.0058651026392962
0.9921798631476052
0.9833822091886608
0.9745845552297164
0.9696969696969696
0.9696969696969696
0.975562072336266
0.9872922776148584
1.0019550342130987
1.0166177908113392
1.029325513196481
1.040078201368524
1.0478983382209188
1.0527859237536656
1.0576735092864125
1.0625610948191593
1.064516129032258
1.0654936461388074
1.0664711632453567
1.0664711632453567
1.0664711632453567
1.067448680351906
1.0703812316715542
1.0742913000977516
1.078201368523949
1.0821114369501466
1.088954056695992
1.093841642228739
1.0987292277614855
1.104594330400782
1.1124144672531768
1.1221896383186705
1.1348973607038124
1.1505376344086022
1.1691104594330402
1.187683284457478
1.203323558162268
1.217008797653959
1.227761485826002
1.2355816226783969
1.2365591397849462
1.23069403714565
1.2189638318670577
1.2013685239491692
1.1808406647116323
1.1622678396871946
1.1485826001955035
1.1436950146627567
1.1534701857282503
1.1837732160312806
1.2375366568914956
1.3020527859237536
1.380254154447703
1.482893450635386
1.6001955034213098
1.7233626588465298
1.8455522971652003
1.9618768328445748
2.0684261974584555
2.164222873900293
2.251221896383187
2.3284457478005867
2.3958944281524928
2.444770283479961
2.479960899315738
2.509286412512219
2.5288367546432062
2.532746823069404
2.520039100684262
2.487781036168133
2.4359726295210167
2.364613880742913
2.2766373411534704
2.176930596285435
2.0684261974584555
1.9550342130987293
1.8533724340175952
1.758553274682307
1.6549364613880744
1.5513196480938416
1.4506353861192571
1.3577712609970674
1.2746823069403714
1.2013685239491692
1.1378299120234605
1.0850439882697946
1.0420332355816226
1.0058651026392962
0.9804496578690128
0.9628543499511242
0.9442815249266864
0.9257086999022482
0.9081133919843596
0.8905180840664711
0.8729227761485826
0.852394916911046
0.8299120234604106
0.8074291300097751
0.7839687194525904
0.7585532746823069
0.7311827956989247
0.7106549364613881
0.6930596285434996
0.6705767350928641
0.6471163245356794
0.6236559139784946
0.5992179863147605
0.5747800586510264
0.5503421309872922
0.5268817204301075
0.5043988269794721
0.4838709677419355
0.4672531769305962
0.458455522971652
0.4555229716520039
0.4486803519061583
0.4398826979472141
0.4320625610948191
0.4222873900293255
0.4134897360703812
0.407624633431085
0.4007820136852394
0.3949169110459433
0.3900293255131964
0.3851417399804496
0.3812316715542522
0.3831867057673509
0.3890518084066471
0.3919843597262952
0.3939393939393939
0.3949169110459433
0.3949169110459433
0.3958944281524926
0.3988269794721407
0.4017595307917888
0.4056695992179863
0.407624633431085
0.4086021505376344
0.4144672531769306
0.4242424242424242
0.4301075268817204
0.4330400782013685
0.4359726295210166
0.4389051808406647
0.4428152492668621
0.4467253176930596
0.4506353861192571
0.4545454545454545
0.4594330400782013
0.4652981427174975
0.4701857282502444
0.4780058651026393
0.4887585532746823
0.4965786901270772
0.5024437927663734
0.5063538611925709
0.509286412512219
0.512218963831867
0.5151515151515151
0.5161290322580645
0.5180840664711632
0.5210166177908113
0.5249266862170088
0.5317693059628543
0.5405669599217986
0.5483870967741935
0.5640273704789834
0.5933528836754643
0.6402737047898338
0.7116324535679375
0.8103616813294232
0.9345063538611924
1.0821114369501466
1.2482893450635386
1.4252199413489737
1.6050830889540566
1.7595307917888563
1.8963831867057677
2.040078201368524
2.174975562072336
2.3841642228739004
2.6177908113391983
2.7653958944281527
2.86217008797654
2.927663734115347
2.972629521016618
3.0019550342130987
3.0195503421309877
3.0234604105571847
3.018572825024438
3.0087976539589443
2.991202346041056
2.964809384164223
2.930596285434995
2.889540566959922
2.841642228739003
2.7869012707722387
2.727272727272727
2.6666666666666665
2.6070381231671558
2.549364613880743
2.4995112414467253
2.4574780058651027
2.4164222873900294
2.3792766373411536
2.347996089931574
2.320625610948192
2.2961876832844577
2.274682306940372
2.2580645161290325
2.244379276637341
2.23069403714565
2.217986314760508
2.206256109481916
2.193548387096774
2.177908113391984
2.161290322580645
2.144672531769306
2.1280547409579667
2.10850439882698
2.0869990224828934
2.0625610948191597
2.038123167155425
2.013685239491691
1.988269794721408
1.962854349951124
1.9413489736070384
1.9237536656891496
1.906158357771261
1.8875855327468232
1.8670576735092863
1.8465298142717497
1.826001955034213
1.8074291300097751
1.7878787878787878
1.7673509286412512
1.7468230694037146
1.7253176930596286
1.7086999022482894
1.6959921798631477
1.6823069403714566
1.6686217008797657
1.6549364613880744
1.6441837732160314
1.6334310850439884
1.6226783968719452
1.6129032258064515
1.603128054740958
1.5913978494623655
1.5806451612903225
1.5698924731182795
1.563049853372434
1.5571847507331378
1.5493646138807429
1.5405669599217986
1.533724340175953
1.5298142717497556
1.5288367546432062
1.5298142717497556
1.5317693059628543
1.5327468230694037
1.5298142717497556
1.521994134897361
1.5151515151515151
1.5063538611925709
1.490713587487781
1.4711632453567938
1.4496578690127078
1.4271749755620724
1.4037145650048877
1.3812316715542523
1.3616813294232648
1.3421309872922775
1.324535679374389
1.3079178885630498
1.2971652003910068
1.289345063538612
1.278592375366569
1.2658846529814272
1.2531769305962854
1.241446725317693
1.2316715542521994
1.2228739002932552
1.2140762463343109
1.2052785923753666
1.198435972629521
1.1964809384164223
1.2043010752688172
1.2228739002932552
1.2541544477028348
1.305962854349951
1.3812316715542523
1.4838709677419355
1.6109481915933528
1.758553274682307
1.919843597262952
2.0879765395894427
2.2561094819159337
2.4164222873900294
2.565982404692082
2.6832844574780057
2.779081133919844
2.8729227761485827
2.956989247311828
3.029325513196481
3.088954056695992
3.134897360703812
3.16911045943304
3.1925708699902247
3.2052785923753664
3.207233626588465
3.201368523949169
3.1867057673509285
3.164222873900293
3.1358748778103616
3.102639296187683
3.0635386119257086
3.0175953079178885
2.9667644183773216
2.913000977517106
2.8563049853372435
2.7996089931573804
2.744868035190616
2.6930596285435
2.64613880742913
2.6070381231671558
2.575757575757576
2.548387096774193
2.525904203323558
2.5083088954056696
2.495601173020528
2.4858260019550342
2.47702834799609
2.4701857282502444
2.463343108504399
2.455522971652004
2.44672531769306
2.4349951124144678
2.421309872922776
2.404692082111437
2.3851417399804498
2.364613880742913
2.3411534701857284
2.314760508308896
2.2873900293255134
2.260997067448681
2.2346041055718477
2.209188660801564
2.1837732160312804
2.1593352883675463
2.139784946236559
2.1221896383186705
2.102639296187683
2.0821114369501466
2.0625610948191597
2.04594330400782
2.0332355816226784
2.026392961876833
2.0234604105571847
2.022482893450636
2.022482893450636
2.022482893450636
2.022482893450636
2.0234604105571847
2.024437927663734
2.024437927663734
2.024437927663734
2.0234604105571847
2.021505376344086
2.0195503421309877
2.016617790811339
2.0117302052785924
2.003910068426197
1.994134897360704
1.9824046920821117
1.9696969696969695
1.9579667644183771
1.9423264907135875
1.9266862170087975
1.913978494623656
