ppg
3.0127077223851417
2.981427174975562
2.945259042033236
2.9042033235581624
2.857282502443793
2.803519061583578
2.7438905180840663
2.674486803519061
2.5943304007820136
2.5083088954056696
2.4173998044965788
2.332355816226784
2.249266862170088
2.1593352883675463
2.0684261974584555
1.981427174975562
1.900293255131965
1.8269794721407624
1.761485826001955
1.70772238514174
1.6637341153470186
1.629521016617791
1.603128054740958
1.581622678396872
1.564027370478983
1.5513196480938416
1.541544477028348
1.5327468230694037
1.5239491691104594
1.5151515151515151
1.5083088954056696
1.500488758553275
1.4926686217008798
1.4838709677419355
1.4731182795698925
1.4623655913978495
1.452590420332356
1.4437927663734116
1.4271749755620724
1.4066471163245358
1.391006842619746
1.375366568914956
1.359726295210166
1.3440860215053765
1.3284457478005864
1.3128054740957966
1.2971652003910068
1.281524926686217
1.2688172043010753
1.2609970674486803
1.2541544477028348
1.2453567937438903
1.2365591397849462
1.227761485826002
1.2189638318670577
1.2111436950146628
1.203323558162268
1.1974584555229717
1.1906158357771262
1.1837732160312806
1.176930596285435
1.1730205278592376
1.1691104594330402
1.1622678396871946
1.152492668621701
1.1436950146627567
1.1358748778103618
1.1300097751710656
1.1270772238514175
1.126099706744868
1.1251221896383188
1.1251221896383188
1.1241446725317692
1.121212121212121
1.121212121212121
1.121212121212121
1.1192570869990224
1.118279569892473
1.1173020527859236
1.1173020527859236
1.1173020527859236
1.1173020527859236
1.1173020527859236
1.1173020527859236
1.1163245356793745
1.1133919843597262
1.1133919843597262
1.115347018572825
1.1143695014662756
1.1114369501466277
1.110459433040078
1.1094819159335287
1.1094819159335287
1.10752688172043
1.1026392961876832
1.0957966764418376
1.0879765395894427
1.0801564027370478
1.0742913000977516
1.0733137829912025
1.078201368523949
1.0909090909090908
1.1202346041055715
1.1720430107526882
1.2512218963831867
1.359726295210166
1.495601173020528
1.6520039100684265
1.8211143695014664
1.994134897360704
2.161290322580645
2.2991202346041058
2.4134897360703813
2.529814271749756
2.6373411534701856
2.7282502443792764
2.8044965786901277
2.866080156402737
2.9120234604105573
2.9442815249266863
2.963831867057673
2.973607038123167
2.9745845552297165
2.964809384164223
2.949169110459433
2.9315738025415445
2.909090909090909
2.881720430107527
2.8484848484848486
2.809384164222874
2.763440860215054
2.710654936461388
2.6510263929618767
2.5865102639296187
2.515151515151515
2.436950146627566
2.360703812316716
2.283479960899316
2.196480938416422
2.103616813294233
2.010752688172043
1.9188660801564028
1.83088954056696
1.7487781036168133
1.675464320625611
1.6129032258064515
1.5610948191593352
1.520039100684262
1.490713587487781
1.4682306940371457
1.4496578690127078
1.434017595307918
1.4203323558162269
1.4076246334310851
1.3949169110459434
1.3841642228739004
1.3743890518084063
1.3655913978494625
1.356793743890518
1.348973607038123
1.3411534701857282
1.335288367546432
1.3304007820136852
1.3235581622678396
1.3157380254154447
1.3069403714565004
1.2961876832844574
1.2834799608993157
1.270772238514174
1.2590420332355816
1.2473118279569892
1.2346041055718475
1.2238514173998043
1.217008797653959
1.2121212121212122
1.2052785923753666
1.2003910068426198
1.1945259042033236
1.187683284457478
1.1808406647116323
1.173998044965787
1.166177908113392
1.160312805474096
1.155425219941349
1.1495601173020529
1.141739980449658
1.1368523949169111
1.133919843597263
1.130987292277615
1.1300097751710656
1.1290322580645162
1.1290322580645162
1.1290322580645162
1.1290322580645162
1.1290322580645162
1.1290322580645162
1.1300097751710656
1.1300097751710656
1.1300097751710656
1.1300097751710656
1.1290322580645162
1.1290322580645162
1.1290322580645162
1.1300097751710656
1.130987292277615
1.1329423264907137
1.133919843597263
1.1329423264907137
1.1329423264907137
1.1319648093841643
1.130987292277615
1.1329423264907137
1.1358748778103618
1.1397849462365592
1.1436950146627567
1.147605083088954
1.1515151515151516
1.155425219941349
1.1593352883675463
1.163245356793744
1.1671554252199414
1.1710654936461389
1.1730205278592376
1.1749755620723363
1.1779081133919844
1.1788856304985338
1.1808406647116323
1.1867057673509287
1.2023460410557183
1.2346041055718475
1.2883675464320623
1.3685239491691104
1.47702834799609
1.6138807429130009
1.7732160312805474
1.9472140762463344
2.1006842619745845
2.241446725317693
2.393939393939394
2.5405669599217986
2.675464320625611
2.792766373411535
2.8914956011730206
2.972629521016618
3.037145650048876
3.085043988269794
3.118279569892473
3.1378299120234603
3.1407624633431084
3.131964809384164
3.1221896383186705
3.1094819159335287
3.093841642228739
3.072336265884653
3.04594330400782
3.013685239491691
2.975562072336266
2.9315738025415445
2.881720430107527
2.825024437927664
2.7595307917888565
2.6930596285435
2.6236559139784945
2.544477028347996
2.4574780058651027
2.3655913978494625
2.270772238514174
2.175953079178885
2.0840664711632453
1.997067448680352
1.916911045943304
1.8455522971652003
1.7839687194525904
1.7350928641251222
1.6959921798631477
1.6598240469208212
1.6275659824046922
1.5992179863147604
1.5747800586510263
1.555229716520039
1.5376344086021505
1.521994134897361
1.5083088954056696
1.495601173020528
1.482893450635386
1.4701857282502444
1.4604105571847508
1.4516129032258065
1.4408602150537635
1.4301075268817205
1.4164222873900294
1.4007820136852396
1.3841642228739004
1.367546432062561
1.3284457478005864
1.2766373411534702
1.241446725317693
1.2160312805474096
1.1994134897360704
1.1857282502443791
1.1720430107526882
1.1583577712609971
1.144672531769306
1.1290322580645162
1.1124144672531768
1.0977517106549364
1.0840664711632453
1.072336265884653
1.0625610948191593
1.0547409579667644
1.0469208211143697
1.0420332355816226
1.040078201368524
1.0371456500488758
1.032258064516129
1.0254154447702837
1.018572825024438
1.010752688172043
1.0039100684261977
0.997067448680352
0.9921798631476052
0.9872922776148584
0.9833822091886608
0.981427174975562
0.9804496578690128
0.9765395894428152
0.9716520039100685
0.967741935483871
0.9648093841642228
0.9608993157380256
0.9579667644183774
0.9560117302052786
0.9530791788856304
0.9501466275659824
0.946236559139785
0.9423264907135877
0.9423264907135877
0.9442815249266864
0.9452590420332356
0.946236559139785
0.946236559139785
0.946236559139785
0.946236559139785
0.946236559139785
0.9452590420332356
0.9433040078201368
0.9403714565004888
0.9364613880742912
0.935483870967742
0.9364613880742912
0.9345063538611924
0.9345063538611924
0.9413489736070382
0.9608993157380256
1.0009775171065494
1.064516129032258
1.155425219941349
1.2746823069403714
1.418377321603128
1.5786901270772238
1.7243401759530792
1.8592375366568916
2.007820136852395
2.15347018572825
2.2854349951124147
2.401759530791789
2.5004887585532747
2.581622678396872
2.64613880742913
2.6940371456500487
2.730205278592375
2.7546432062561097
2.768328445747801
2.76930596285435
2.7614858260019552
2.7497556207233624
2.7341153470185726
2.713587487781036
2.689149560117302
2.658846529814272
2.6236559139784945
2.58455522971652
2.539589442815249
2.489736070381232
2.434017595307918
2.377321603128055
2.318670576735093
2.2502443792766376
2.172043010752688
2.086021505376344
1.9951124144672527
1.903225806451613
1.8113391984359728
1.7223851417399805
1.640273704789834
1.565982404692082
1.501466275659824
1.447702834799609
1.4076246334310851
1.3773216031280548
1.348973607038123
1.3255131964809383
1.3079178885630498
1.295210166177908
1.2854349951124144
1.2766373411534702
1.2688172043010753
1.2609970674486803
1.2531769305962854
1.2453567937438903
1.2394916911045943
1.2336265884652982
1.224828934506354
1.2140762463343109
1.2023460410557183
1.1915933528836755
1.1827956989247312
1.1749755620723363
1.166177908113392
1.1564027370478984
1.1456500488758554
1.1348973607038124
1.1241446725317692
1.115347018572825
1.1085043988269794
1.0987292277614855
1.088954056695992
1.078201368523949
1.0684261974584557
1.0606060606060606
1.0547409579667644
1.0498533724340176
1.0439882697947214
1.0391006842619743
1.035190615835777
1.0332355816226784
1.0342130987292275
1.0342130987292275
1.0332355816226784
1.0312805474095796
1.029325513196481
1.0273704789833822
1.024437927663734
1.021505376344086
1.0205278592375366
1.0195503421309873
1.0195503421309873
1.0195503421309873
1.021505376344086
1.024437927663734
1.0254154447702837
1.0273704789833822
1.029325513196481
1.0303030303030305
1.0303030303030305
1.0303030303030305
1.0303030303030305
1.032258064516129
1.035190615835777
1.0371456500488758
1.040078201368524
1.043010752688172
1.0449657869012707
1.04594330400782
1.0478983382209188
1.050830889540567
1.0518084066471165
1.053763440860215
1.0557184750733135
1.056695992179863
1.0576735092864125
1.0586510263929618
1.0576735092864125
1.0586510263929618
1.0586510263929618
1.0576735092864125
1.0576735092864125
1.0606060606060606
1.072336265884653
1.099706744868035
1.1515151515151516
1.2316715542521994
1.3411534701857282
1.4760508308895406
1.6304985337243405
1.7741935483870968
1.9100684261974583
2.06158357771261
2.212121212121212
2.35386119257087
2.4789833822091887
2.58455522971652
2.6725317693059627
2.742913000977517
2.7966764418377323
2.834799608993157
2.860215053763441
2.875855327468231
2.877810361681329
2.8690127077223853
2.857282502443793
2.8406647116324537
2.820136852394917
2.7947214076246336
2.763440860215054
2.7282502443792764
2.687194525904203
2.641251221896383
2.589442815249267
2.530791788856305
2.4711632453567938
2.407624633431085
2.334310850439883
2.2521994134897363
2.164222873900293
2.071358748778104
1.9765395894428155
1.881720430107527
1.790811339198436
1.704789833822092
1.6275659824046922
1.560117302052786
1.501466275659824
1.457478005865103
1.423264907135875
1.3900293255131966
1.3626588465298142
1.3411534701857282
1.324535679374389
1.3128054740957966
1.3049853372434017
1.2981427174975562
1.2903225806451613
1.2825024437927663
1.2756598240469208
1.2697947214076246
1.2649071358748778
1.2590420332355816
1.252199413489736
1.2443792766373412
1.2355816226783969
1.224828934506354
1.2121212121212122
1.198435972629521
1.187683284457478
1.176930596285435
1.166177908113392
1.1544477028347997
1.1466275659824048
1.1397849462365592
1.147605083088954
1.163245356793744
1.164222873900293
1.1573802541544478
1.1485826001955035
1.1397849462365592
1.1329423264907137
1.1270772238514175
1.1231671554252198
1.118279569892473
1.115347018572825
1.1133919843597262
1.110459433040078
1.1065493646138806
1.1026392961876832
1.0987292277614855
1.0948191593352885
1.0909090909090908
1.086021505376344
1.0801564027370478
1.0742913000977516
1.0684261974584557
1.0635386119257086
1.0635386119257086
1.0654936461388074
1.0664711632453567
1.0664711632453567
1.0664711632453567
1.0664711632453567
1.0664711632453567
1.0664711632453567
1.0664711632453567
1.064516129032258
1.06158357771261
1.0596285434995112
1.0586510263929618
1.0586510263929618
1.056695992179863
1.053763440860215
1.0527859237536656
1.0518084066471165
1.0518084066471165
1.0518084066471165
1.0518084066471165
1.0518084066471165
1.050830889540567
1.0478983382209188
1.0469208211143697
1.0449657869012707
1.040078201368524
1.0342130987292275
1.0273704789833822
1.021505376344086
1.021505376344086
1.0342130987292275
1.0664711632453567
1.1221896383186705
1.2072336265884651
1.3206256109481915
1.458455522971652
1.5923753665689149
1.726295210166178
1.8826979472140764
2.0449657869012707
2.201368523949169
2.345063538611926
2.472140762463343
2.5806451612903225
2.670576735092864
2.742913000977517
2.798631476050831
2.8396871945259043
2.86217008797654
2.870967741935484
2.874877810361681
2.873900293255132
2.8670576735092865
2.852394916911046
2.833822091886608
2.8103616813294234
2.7810361681329425
2.747800586510264
2.710654936461388
2.667644183773216
2.619745845552297
2.570869990224829
2.517106549364614
2.453567937438905
2.3812316715542523
2.303030303030303
2.219941348973607
2.131964809384164
2.0391006842619745
1.946236559139785
1.8563049853372435
1.7702834799608993
1.6901270772238517
1.6256109481915937
1.5718475073313782
1.521994134897361
1.478983382209189
1.4428152492668622
1.414467253176931
1.3919843597262953
1.3763440860215057
1.364613880742913
1.3558162267839686
1.3479960899315735
1.3401759530791788
1.332355816226784
1.3264907135874875
1.321603128054741
1.313782991202346
1.3020527859237536
1.2883675464320623
1.273704789833822
1.2590420332355816
1.24633431085044
1.2336265884652982
1.2209188660801564
1.2072336265884651
1.1945259042033236
1.1857282502443791
1.176930596285435
1.166177908113392
1.152492668621701
1.1368523949169111
1.121212121212121
1.1055718475073313
1.0909090909090908
1.078201368523949
1.0664711632453567
1.056695992179863
1.0478983382209188
1.040078201368524
1.035190615835777
1.0312805474095796
1.0254154447702837
1.018572825024438
1.0127077223851415
1.007820136852395
1.002932551319648
0.9990224828934506
0.9941348973607038
0.989247311827957
0.9843597262952102
0.9804496578690128
0.9794721407624634
0.9804496578690128
0.9824046920821116
0.9833822091886608
0.9833822091886608
0.9843597262952102
0.9853372434017597
0.9863147605083088
0.9882697947214076
0.9912023460410556
0.9941348973607038
0.9951124144672532
0.9960899315738024
0.9980449657869012
1.0
1.0009775171065494
1.0019550342130987
1.0019550342130987
1.002932551319648
1.0039100684261977
1.0048875855327468
1.0068426197458455
1.007820136852395
1.007820136852395
1.007820136852395
1.0087976539589445
1.0097751710654936
1.0087976539589445
1.007820136852395
1.0048875855327468
1.0019550342130987
1.0
1.0019550342130987
1.0117302052785924
1.0371456500488758
1.0840664711632453
1.1573802541544478
1.260019550342131
1.367546432062561
1.4858260019550342
1.6363636363636365
1.801564027370479
1.9696969696969695
2.1309872922776147
2.280547409579668
2.412512218963832
2.525904203323558
2.6207233626588464
2.696969696969697
2.757575757575758
2.795698924731183
2.817204301075269
2.833822091886608
2.843597262952102
2.84652981427175
2.8426197458455524
2.832844574780059
2.8181818181818183
2.7966764418377323
2.76930596285435
2.7370478983382207
2.7008797653958942
2.658846529814272
2.6148582600195502
2.567937438905181
2.515151515151515
2.455522971652004
2.386119257086999
2.3088954056695994
2.2238514173998043
2.133919843597263
2.040078201368524
1.9472140762463344
1.8592375366568916
1.775171065493646
1.7038123167155426
1.6422287390029326
1.5826001955034212
1.5288367546432062
1.482893450635386
1.4437927663734116
1.412512218963832
1.388074291300098
1.370478983382209
1.3577712609970674
1.3479960899315735
1.3401759530791788
1.332355816226784
1.3264907135874875
1.321603128054741
1.3157380254154447
1.3088954056695992
1.2991202346041055
1.2864125122189638
1.2727272727272727
1.2590420332355816
1.24633431085044
1.2346041055718475
1.2238514173998043
1.2130987292277615
1.2043010752688172
1.1974584555229717
1.187683284457478
1.176930596285435
1.1652003910068427
1.1515151515151516
1.1368523949169111
1.121212121212121
1.1065493646138806
1.1026392961876832
1.104594330400782
1.1016617790811338
1.0987292277614855
1.0957966764418376
1.0918866080156402
1.0869990224828934
1.0801564027370478
1.072336265884653
1.0654936461388074
1.0596285434995112
1.0547409579667644
1.050830889540567
1.0469208211143697
1.0439882697947214
1.0410557184750733
1.0410557184750733
1.0420332355816226
1.0410557184750733
1.0391006842619743
1.0371456500488758
1.0342130987292275
1.0312805474095796
1.0312805474095796
1.0332355816226784
1.040078201368524
1.0586510263929618
1.0977517106549364
1.1505376344086022
1.2218963831867058
1.3264907135874875
1.4613880742913
1.6187683284457477
1.790811339198436
1.9687194525904204
2.1436950146627565
2.3098729227761488
2.4604105571847508
2.590420332355816
2.6989247311827955
2.787878787878788
2.8484848484848486
2.8885630498533725
2.921798631476051
2.945259042033236
2.9589442815249267
2.963831867057673
2.960899315738025
2.951124144672532
2.936461388074292
2.917888563049853
2.8944281524926687
2.8641251221896384
2.8299120234604107
2.791788856304985
2.7468230694037143
2.6959921798631474
2.6392961876832843
2.575757575757576
2.505376344086021
2.4281524926686218
2.3421309872922778
2.2502443792766376
2.1544477028347995
2.056695992179863
1.9608993157380252
1.8797653958944285
1.8074291300097751
1.7341153470185728
1.664711632453568
1.6041055718475072
1.552297165200391
1.509286412512219
1.474095796676442
1.4467253176930597
1.4252199413489737
1.4076246334310851
1.3949169110459434
1.3870967741935485
1.3812316715542523
1.3734115347018572
1.3655913978494625
1.3577712609970674
1.3499511241446724
1.3421309872922775
1.3343108504398826
1.324535679374389
1.3128054740957966
1.300097751710655
1.2873900293255132
1.2746823069403714
1.2658846529814272
1.2590420332355816
1.2502443792766371
1.241446725317693
1.2316715542521994
1.2209188660801564
1.2101661779081134
1.1994134897360704
1.1886608015640274
1.1779081133919844
1.1681329423264908
1.1593352883675463
1.1544477028347997
1.1505376344086022
1.144672531769306
1.1397849462365592
1.1368523949169111
1.1358748778103618
1.1329423264907137
1.1300097751710656
1.1280547409579669
1.1251221896383188
1.1221896383186705
1.1202346041055715
1.1192570869990224
1.1202346041055715
1.1202346041055715
1.1192570869990224
1.1163245356793745
1.1133919843597262
1.1114369501466277
1.110459433040078
1.110459433040078
1.110459433040078
1.110459433040078
1.110459433040078
1.110459433040078
1.1124144672531768
1.115347018572825
1.1173020527859236
1.118279569892473
1.118279569892473
1.118279569892473
1.118279569892473
1.118279569892473
1.118279569892473
1.118279569892473
1.118279569892473
1.118279569892473
1.118279569892473
1.1202346041055715
1.1231671554252198
1.1251221896383188
1.126099706744868
1.126099706744868
1.126099706744868
1.126099706744868
1.126099706744868
1.126099706744868
1.1290322580645162
1.141739980449658
1.1730205278592376
1.2179863147605083
1.281524926686217
1.3782991202346042
1.5053763440860215
1.6559139784946235
1.8240469208211143
1.9990224828934504
2.172043010752688
2.335288367546432
2.482893450635386
2.6129032258064515
2.7223851417399803
2.811339198435973
2.8699902248289346
2.909090909090909
2.945259042033236
2.972629521016618
2.9902248289345064
2.99902248289345
2.99902248289345
2.991202346041056
2.975562072336266
2.9550342130987293
2.929618768328446
2.898338220918866
2.86217008797654
2.823069403714565
2.779081133919844
2.729227761485826
2.6725317693059627
2.608993157380254
2.5376344086021505
2.4574780058651027
2.3704789833822093
2.278592375366569
2.1837732160312804
2.0879765395894427
1.9931573802541545
1.911045943304008
1.8377321603128052
1.7634408602150538
1.694037145650049
1.6304985337243405
1.576735092864125
1.533724340175953
1.499511241446725
1.4721407624633431
1.4506353861192571
1.4349951124144673
1.4222873900293256
1.4115347018572826
1.4027370478983383
1.3949169110459434
1.3870967741935485
1.3763440860215057
1.364613880742913
1.3509286412512218
1.3362658846529814
1.3206256109481915
1.305962854349951
1.29227761485826
1.2795698924731185
1.2697947214076246
1.2619745845552297
1.252199413489736
1.241446725317693
1.2297165200391007
1.2179863147605083
1.203323558162268
1.1886608015640274
1.173998044965787
1.160312805474096
1.147605083088954
1.1348973607038124
1.1221896383186705
1.1133919843597262
1.10752688172043
1.1006842619745845
1.086021505376344
1.067448680351906
1.053763440860215
1.043010752688172
1.0342130987292275
1.0254154447702837
1.0166177908113392
1.0097751710654936
1.0039100684261977
1.0019550342130987
1.0019550342130987
1.0009775171065494
1.0019550342130987
1.0039100684261977
1.0048875855327468
1.0048875855327468
1.0039100684261977
1.0009775171065494
0.997067448680352
0.9931573802541545
0.9902248289345064
0.9902248289345064
0.9931573802541545
0.997067448680352
1.0
1.0009775171065494
1.0019550342130987
1.0019550342130987
1.0019550342130987
1.002932551319648
1.0039100684261977
1.0048875855327468
1.0068426197458455
1.007820136852395
1.0097751710654936
1.0127077223851415
1.013685239491691
1.0117302052785924
1.0087976539589445
1.0058651026392962
1.0019550342130987
0.9980449657869012
0.9951124144672532
0.9941348973607038
0.9990224828934506
1.0146627565982405
1.050830889540567
1.1006842619745845
1.1671554252199414
1.2668621700879763
1.3958944281524928
1.5493646138807429
1.7194525904203324
1.8944281524926687
2.0664711632453567
2.2277614858260018
2.372434017595308
2.4995112414467253
2.6080156402737047
2.687194525904203
2.7438905180840663
2.795698924731183
2.835777126099707
2.8641251221896384
2.8807429130009776
2.8885630498533725
2.886608015640274
2.87683284457478
2.860215053763441
2.8377321603128056
2.8103616813294234
2.7781036168132944
2.7419354838709675
2.701857282502444
2.656891495601173
2.6070381231671558
2.5513196480938416
2.489736070381232
2.420332355816227
2.3440860215053765
2.260997067448681
2.172043010752688
2.078201368523949
1.9833822091886608
1.900293255131965
1.825024437927664
1.7458455522971652
1.6695992179863148
1.6011730205278591
1.5405669599217986
1.4887585532746823
1.4467253176930597
1.4134897360703813
1.3870967741935485
1.3685239491691104
1.3548387096774193
1.3440860215053765
1.3362658846529814
1.3304007820136852
1.324535679374389
1.3186705767350928
1.3128054740957966
1.3079178885630498
1.3020527859237536
1.295210166177908
1.2864125122189638
1.2766373411534702
1.2668621700879763
1.2580645161290325
1.2531769305962854
1.249266862170088
1.241446725317693
1.2326490713587488
1.2218963831867058
1.2101661779081134
1.198435972629521
1.1867057673509287
1.173998044965787
1.1622678396871946
1.1505376344086022
1.1407624633431086
1.1319648093841643
1.1270772238514175
1.1231671554252198
1.1173020527859236
1.110459433040078
1.104594330400782
1.099706744868035
1.0948191593352885
1.0928641251221896
1.0899315738025417
1.0850439882697946
1.0801564027370478
1.075268817204301
1.072336265884653
1.0713587487781036
1.0684261974584557
1.067448680351906
1.0664711632453567
1.0664711632453567
1.0664711632453567
1.0654936461388074
1.0625610948191593
1.0606060606060606
1.0576735092864125
1.0547409579667644
1.0518084066471165
1.0527859237536656
1.0527859237536656
1.050830889540567
1.0498533724340176
1.0478983382209188
1.0449657869012707
1.043010752688172
1.0420332355816226
1.0420332355816226
1.0420332355816226
1.0420332355816226
1.0420332355816226
1.0439882697947214
1.0469208211143697
1.0478983382209188
1.0488758553274682
1.0488758553274682
1.0488758553274682
1.0478983382209188
1.04594330400782
1.0439882697947214
1.0449657869012707
1.0527859237536656
1.075268817204301
1.1192570869990224
1.1749755620723363
1.249266862170088
1.3548387096774193
1.4868035190615836
1.6422287390029326
1.8113391984359728
1.9843597262952104
2.1524926686217007
2.3069403714565007
2.447702834799609
2.5698924731182795
2.673509286412512
2.747800586510264
2.801564027370479
2.8514173998044967
2.8914956011730206
2.921798631476051
2.943304007820137
2.9550342130987293
2.956011730205278
2.949169110459433
2.935483870967742
2.916911045943304
2.8944281524926687
2.866080156402737
2.834799608993157
2.801564027370479
2.764418377321604
2.7223851417399803
2.673509286412512
2.616813294232649
2.552297165200391
2.4780058651026398
2.3958944281524928
2.30791788856305
2.2140762463343107
2.1192570869990224
2.035190615835777
1.9589442815249267
1.881720430107527
1.8084066471163245
