ppg
1.0048875855327468
0.9990224828934506
0.997067448680352
0.9980449657869012
0.9960899315738024
0.9951124144672532
0.9941348973607038
0.9941348973607038
0.9931573802541545
0.9921798631476052
0.9931573802541545
0.9980449657869012
1.010752688172043
1.0381231671554252
1.0869990224828934
1.1485826001955035
1.227761485826002
1.3411534701857282
1.4848484848484849
1.6520039100684265
1.8347996089931573
2.0234604105571847
2.207233626588465
2.380254154447703
2.5347018572825024
2.668621700879765
2.7810361681329425
2.859237536656892
2.913000977517106
2.9589442815249267
2.9931573802541545
3.01564027370479
3.027370478983382
3.0283479960899315
3.0205278592375366
3.002932551319648
2.975562072336266
2.9374389051808407
2.8885630498533725
2.834799608993157
2.7751710654936463
2.7038123167155423
2.6236559139784945
2.5376344086021505
2.4486803519061584
2.358748778103617
2.271749755620724
2.190615835777126
2.1163245356793743
2.047898338220919
1.988269794721408
1.9374389051808407
1.8983382209188664
1.8670576735092863
1.8387096774193548
1.8132942326490715
1.790811339198436
1.7702834799608993
1.7487781036168133
1.7282502443792769
1.7067448680351909
1.683284457478006
1.6578690127077225
1.6314760508308896
1.607038123167155
1.5835777126099706
1.5562072336265884
1.525904203323558
1.4936461388074291
1.4604105571847508
1.4281524926686218
1.3958944281524928
1.364613880742913
1.3343108504398826
1.3049853372434017
1.2766373411534702
1.2512218963831867
1.2326490713587488
1.2179863147605083
1.2003910068426198
1.1808406647116323
1.163245356793744
1.147605083088954
1.1329423264907137
1.1192570869990224
1.1065493646138806
1.0948191593352885
1.0850439882697946
1.0772238514173995
1.0733137829912025
1.072336265884653
1.0703812316715542
1.0694037145650048
1.0694037145650048
1.0694037145650048
1.0694037145650048
1.0684261974584557
1.0664711632453567
1.064516129032258
1.0635386119257086
1.0635386119257086
1.0654936461388074
1.0684261974584557
1.0713587487781036
1.0713587487781036
1.0703812316715542
1.0684261974584557
1.0664711632453567
1.064516129032258
1.0606060606060606
1.056695992179863
1.053763440860215
1.0527859237536656
1.0576735092864125
1.0694037145650048
1.0918866080156402
1.1319648093841643
1.195503421309873
1.284457478005865
1.4007820136852396
1.542521994134897
1.704789833822092
1.878787878787879
2.0557184750733137
2.2277614858260018
2.3870967741935485
2.527859237536657
2.632453567937439
2.7116324535679373
2.7839687194525906
2.844574780058651
2.8905180840664717
2.919843597262952
2.935483870967742
2.940371456500489
2.9345063538611926
2.916911045943304
2.8905180840664717
2.855327468230694
2.8132942326490715
2.7653958944281527
2.7067448680351904
2.6392961876832843
2.5650048875855327
2.4858260019550342
2.401759530791789
2.317693059628544
2.2355816226783967
2.157380254154448
2.086021505376344
2.021505376344086
1.964809384164223
1.919843597262952
1.8836754643206255
1.8494623655913975
1.8191593352883677
1.7917888563049853
1.7663734115347018
1.7419354838709675
1.718475073313783
1.6950146627565983
1.672531769305963
1.6500488758553276
1.6256109481915937
1.603128054740958
1.5806451612903225
1.5542521994134897
1.5249266862170088
1.495601173020528
1.466275659824047
1.4379276637341154
1.409579667644184
1.3822091886608017
1.3548387096774193
1.3284457478005864
1.303030303030303
1.278592375366569
1.260019550342131
1.2434017595307918
1.224828934506354
1.2072336265884651
1.1896383186705768
1.1730205278592376
1.1583577712609971
1.1466275659824048
1.1358748778103618
1.126099706744868
1.1163245356793745
1.1065493646138806
1.1006842619745845
1.096774193548387
1.0909090909090908
1.0840664711632453
1.0772238514173995
1.072336265884653
1.0684261974584557
1.0654936461388074
1.0625610948191593
1.0596285434995112
1.0557184750733135
1.0518084066471165
1.0478983382209188
1.0469208211143697
1.04594330400782
1.0439882697947214
1.0410557184750733
1.0391006842619743
1.0371456500488758
1.0342130987292275
1.032258064516129
1.0303030303030305
1.029325513196481
1.0273704789833822
1.0273704789833822
1.032258064516129
1.0449657869012707
1.0684261974584557
1.1094819159335287
1.173998044965787
1.2649071358748778
1.3841642228739004
1.5288367546432062
1.6930596285434996
1.8699902248289344
2.0498533724340176
2.222873900293255
2.383186705767351
2.509286412512219
2.608993157380254
2.702834799608993
2.782991202346041
2.84652981427175
2.895405669599218
2.927663734115347
2.946236559139785
2.9530791788856305
2.948191593352884
2.9335288367546437
2.909090909090909
2.87683284457478
2.8377321603128056
2.789833822091887
2.732160312805474
2.665689149560117
2.591397849462365
2.512218963831867
2.4301075268817205
2.347996089931574
2.2668621700879767
2.188660801564027
2.115347018572825
2.0498533724340176
1.997067448680352
1.9530791788856303
1.9120234604105573
1.8758553274682308
1.8435972629521016
1.8142717497556209
1.7888563049853372
1.7653958944281525
1.7419354838709675
1.718475073313783
1.6959921798631477
1.672531769305963
1.6520039100684265
1.632453567937439
1.6080156402737047
1.5806451612903225
1.5503421309872922
1.520039100684262
1.4887585532746823
1.456500488758553
1.4242424242424243
1.393939393939394
1.364613880742913
1.3372434017595307
1.3147605083088951
1.2961876832844574
1.2756598240469208
1.2541544477028348
1.2326490713587488
1.2121212121212122
1.1935483870967742
1.1759530791788857
1.160312805474096
1.1466275659824048
1.1348973607038124
1.1251221896383188
1.115347018572825
1.1094819159335287
1.1055718475073313
1.0987292277614855
1.0909090909090908
1.0840664711632453
1.0791788856304985
1.075268817204301
1.0733137829912025
1.0733137829912025
1.0733137829912025
1.072336265884653
1.0703812316715542
1.0713587487781036
1.0733137829912025
1.0733137829912025
1.072336265884653
1.0703812316715542
1.067448680351906
1.064516129032258
1.0625610948191593
1.0606060606060606
1.0576735092864125
1.0547409579667644
1.050830889540567
1.0478983382209188
1.0478983382209188
1.050830889540567
1.0557184750733135
1.0684261974584557
1.0948191593352885
1.1397849462365592
1.209188660801564
1.305962854349951
1.4301075268817205
1.5777126099706744
1.7429130009775171
1.916911045943304
2.069403714565005
2.2052785923753664
2.347996089931574
2.482893450635386
2.603128054740958
2.7038123167155423
2.7839687194525906
2.8455522971652005
2.889540566959922
2.916911045943304
2.929618768328446
2.929618768328446
2.917888563049853
2.8963831867057674
2.8670576735092865
2.8299120234604107
2.7839687194525906
2.729227761485826
2.665689149560117
2.595307917888563
2.520039100684262
2.4408602150537635
2.3597262952101663
2.280547409579668
2.2052785923753664
2.1407624633431084
2.0840664711632453
2.0283479960899315
1.978494623655914
1.9335288367546437
1.895405669599218
1.8621700879765395
1.833822091886608
1.8093841642228736
1.7859237536656891
1.7624633431085044
1.7390029325513197
1.7135874877810362
1.6911045943304008
1.6705767350928642
1.6471163245356797
1.6217008797653958
1.595307917888563
1.5679374389051808
1.5405669599217986
1.5112414467253177
1.478983382209189
1.4467253176930597
1.41544477028348
1.3841642228739004
1.359726295210166
1.3391984359726294
1.316715542521994
1.2961876832844574
1.2766373411534702
1.2580645161290325
1.2404692082111437
1.2238514173998043
1.2072336265884651
1.1915933528836755
1.176930596285435
1.164222873900293
1.1534701857282503
1.1466275659824048
1.141739980449658
1.1348973607038124
1.1270772238514175
1.118279569892473
1.110459433040078
1.1036168132942326
1.0977517106549364
1.0928641251221896
1.0879765395894427
1.0840664711632453
1.0811339198435972
1.0801564027370478
1.0811339198435972
1.0791788856304985
1.0772238514173995
1.075268817204301
1.072336265884653
1.0694037145650048
1.0664711632453567
1.0635386119257086
1.0606060606060606
1.0576735092864125
1.0547409579667644
1.050830889540567
1.0488758553274682
1.0488758553274682
1.0478983382209188
1.0488758553274682
1.0576735092864125
1.0791788856304985
1.118279569892473
1.181818181818182
1.2717497556207231
1.391006842619746
1.5347018572825024
1.6979472140762464
1.8494623655913975
1.9931573802541545
2.1524926686217007
2.3118279569892475
2.4604105571847508
2.590420332355816
2.6989247311827955
2.7859237536656893
2.8514173998044967
2.8993157380254155
2.930596285434995
2.948191593352884
2.95405669599218
2.946236559139785
2.9286412512218964
2.906158357771261
2.87683284457478
2.8377321603128056
2.788856304985337
2.730205278592375
2.66177908113392
2.5865102639296187
2.5083088954056696
2.4271749755620724
2.345063538611926
2.272727272727273
2.207233626588465
2.139784946236559
2.0762463343108504
2.0175953079178885
1.964809384164223
1.9188660801564028
1.8797653958944285
1.8465298142717497
1.8172043010752688
1.790811339198436
1.7663734115347018
1.7429130009775171
1.7223851417399805
1.7028347996089932
1.678396871945259
1.6520039100684265
1.6236559139784943
1.595307917888563
1.565982404692082
1.5347018572825024
1.5034213098729228
1.4731182795698925
1.4428152492668622
1.412512218963832
1.3861192570869991
1.3636363636363635
1.33822091886608
1.3118279569892473
1.2864125122189638
1.2619745845552297
1.238514173998045
1.2160312805474096
1.1974584555229717
1.1798631476050832
1.163245356793744
1.1485826001955035
1.13880742913001
1.130987292277615
1.121212121212121
1.1124144672531768
1.1026392961876832
1.093841642228739
1.0840664711632453
1.075268817204301
1.0664711632453567
1.0606060606060606
1.056695992179863
1.053763440860215
1.050830889540567
1.050830889540567
1.0527859237536656
1.0527859237536656
1.0518084066471165
1.0498533724340176
1.0478983382209188
1.04594330400782
1.0439882697947214
1.0410557184750733
1.0391006842619743
1.0371456500488758
1.0342130987292275
1.035190615835777
1.0361681329423265
1.035190615835777
1.032258064516129
1.0283479960899315
1.024437927663734
1.0224828934506354
1.0283479960899315
1.04594330400782
1.0821114369501466
1.142717497556207
1.2316715542521994
1.348973607038123
1.469208211143695
1.598240469208211
1.7575757575757576
1.932551319648094
2.110459433040078
2.280547409579668
2.436950146627566
2.573802541544477
2.6901270772238512
2.78494623655914
2.8582600195503423
2.9120234604105573
2.941348973607038
2.95405669599218
2.960899315738025
2.9589442815249267
2.948191593352884
2.927663734115347
2.897360703812317
2.8582600195503423
2.809384164222874
2.750733137829912
2.6832844574780057
2.608993157380254
2.529814271749756
2.4545454545454546
2.3822091886608017
2.3059628543499517
2.23069403714565
2.158357771260997
2.09188660801564
2.03128054740958
1.978494623655914
1.932551319648094
1.89247311827957
1.858260019550342
1.8269794721407624
1.801564027370479
1.7790811339198436
1.7546432062561097
1.729227761485826
1.7038123167155426
1.675464320625611
1.6451612903225807
1.611925708699902
1.5757575757575757
1.5366568914956011
1.495601173020528
1.4535679374389052
1.4105571847507332
1.3734115347018572
1.3411534701857282
1.305962854349951
1.2697947214076246
1.2336265884652982
1.1974584555229717
1.164222873900293
1.133919843597263
1.104594330400782
1.0801564027370478
1.0606060606060606
1.0449657869012707
1.0371456500488758
1.0342130987292275
1.0332355816226784
1.035190615835777
1.040078201368524
1.0469208211143697
1.056695992179863
1.0684261974584557
1.0821114369501466
1.0977517106549364
1.1143695014662756
1.130987292277615
1.147605083088954
1.164222873900293
1.1798631476050832
1.1915933528836755
1.2003910068426198
1.2043010752688172
1.2043010752688172
1.2003910068426198
1.1915933528836755
1.1788856304985338
1.163245356793744
1.144672531769306
1.1251221896383188
1.1094819159335287
1.096774193548387
1.0801564027370478
1.0625610948191593
1.0439882697947214
1.024437927663734
1.0048875855327468
0.9882697947214076
0.9765395894428152
0.9736070381231672
0.9853372434017597
1.0195503421309873
1.083088954056696
1.160312805474096
1.2590420332355816
1.396871945259042
1.5679374389051808
1.7605083088954057
1.9657869012707725
2.1730205278592374
2.3714565004887587
2.552297165200391
2.7096774193548385
2.8406647116324537
2.943304007820137
3.0087976539589443
3.047898338220919
3.0772238514174
3.09188660801564
3.090909090909091
3.0772238514174
3.0518084066471163
3.01564027370479
2.9687194525904204
2.913000977517106
2.84652981427175
2.7722385141739982
2.6911045943304006
2.6129032258064515
2.535679374389052
2.450635386119257
2.363636363636364
2.27761485826002
2.196480938416422
2.124144672531769
2.0625610948191597
2.010752688172043
1.9687194525904204
1.935483870967742
1.911045943304008
1.8934506353861196
1.878787878787879
1.8670576735092863
1.857282502443793
1.847507331378299
1.8377321603128052
1.826001955034213
1.8113391984359728
1.793743890518084
1.7732160312805474
1.7497556207233629
1.7233626588465298
1.694037145650049
1.6666666666666667
1.640273704789834
1.6080156402737047
1.573802541544477
1.5376344086021505
1.499511241446725
1.4613880742913
1.4242424242424243
1.3870967741935485
1.3509286412512218
1.3157380254154447
1.2825024437927663
1.2551319648093842
1.2316715542521994
1.2052785923753666
1.1788856304985338
1.1534701857282503
1.1300097751710656
1.1094819159335287
1.0909090909090908
1.075268817204301
1.0625610948191593
1.053763440860215
1.0478983382209188
1.0449657869012707
1.0469208211143697
1.050830889540567
1.053763440860215
1.0576735092864125
1.0606060606060606
1.064516129032258
1.0684261974584557
1.0713587487781036
1.0742913000977516
1.0762463343108504
1.0772238514173995
1.0772238514173995
1.0791788856304985
1.083088954056696
1.0850439882697946
1.0850439882697946
1.083088954056696
1.0801564027370478
1.0762463343108504
1.0713587487781036
1.064516129032258
1.0654936461388074
1.0703812316715542
1.072336265884653
1.078201368523949
1.0918866080156402
1.1192570869990224
1.1681329423264908
1.2424242424242424
1.3450635386119256
1.474095796676442
1.624633431085044
1.7898338220918866
1.9618768328445748
2.1309872922776147
2.289345063538612
2.43108504398827
2.5376344086021505
2.619745845552297
2.696969696969697
2.7624633431085046
2.8132942326490715
2.850439882697948
2.874877810361681
2.886608015640274
2.8885630498533725
2.8826979472140764
2.868035190615836
2.843597262952102
2.812316715542522
2.773216031280548
2.724340175953079
2.665689149560117
2.5992179863147604
2.5268817204301075
2.4486803519061584
2.367546432062561
2.2854349951124147
2.206256109481916
2.131964809384164
2.0635386119257086
2.0009775171065494
1.9501466275659824
1.90811339198436
1.869012707722385
1.8328445747800584
1.801564027370479
1.7732160312805474
1.7468230694037146
1.7223851417399805
1.6979472140762464
1.6735092864125125
1.6480938416422288
1.6217008797653958
1.598240469208211
1.576735092864125
1.5513196480938416
1.5239491691104594
1.4965786901270772
1.4682306940371457
1.4389051808406648
1.409579667644184
1.3812316715542523
1.3548387096774193
1.3294232649071358
1.305962854349951
1.2834799608993157
1.2668621700879763
1.2541544477028348
1.2394916911045943
1.2238514173998043
1.209188660801564
1.1935483870967742
1.1788856304985338
1.164222873900293
1.1505376344086022
1.1378299120234605
1.126099706744868
1.1163245356793745
1.110459433040078
1.1065493646138806
1.1006842619745845
1.093841642228739
1.0879765395894427
1.0811339198435972
1.0742913000977516
1.0694037145650048
1.0654936461388074
1.0606060606060606
1.056695992179863
1.0518084066471165
1.0469208211143697
1.0449657869012707
1.0439882697947214
1.040078201368524
1.0371456500488758
1.0342130987292275
1.032258064516129
1.029325513196481
1.0273704789833822
1.0263929618768328
1.0254154447702837
1.024437927663734
1.0224828934506354
1.0234604105571847
1.0263929618768328
1.0283479960899315
1.035190615835777
1.0518084066471165
1.0840664711632453
1.1358748778103618
1.2130987292277615
1.316715542521994
1.444770283479961
1.5933528836754642
1.7575757575757576
1.927663734115347
2.074291300097752
2.2023460410557183
2.3362658846529816
2.4613880742913
2.56891495601173
2.656891495601173
2.7253176930596283
2.774193548387097
2.806451612903226
2.825024437927664
2.83088954056696
2.8269794721407626
2.8132942326490715
2.791788856304985
2.764418377321604
2.7282502443792764
2.6832844574780057
2.63049853372434
2.5698924731182795
2.5024437927663734
2.4301075268817205
2.3548387096774195
2.27761485826002
2.201368523949169
2.129032258064516
2.0684261974584555
2.01564027370479
1.964809384164223
1.9178885630498532
1.8778103616813293
1.844574780058651
1.8172043010752688
1.7927663734115349
1.7712609970674489
1.7517106549364614
1.732160312805474
1.7126099706744868
1.6950146627565983
1.6774193548387095
1.656891495601173
1.6334310850439884
1.6080156402737047
1.5806451612903225
1.552297165200391
1.52297165200391
1.4946236559139785
1.466275659824047
1.4379276637341154
1.409579667644184
1.3822091886608017
1.359726295210166
1.3401759530791788
1.3186705767350928
1.2971652003910068
1.2756598240469208
1.2541544477028348
1.2336265884652982
1.2150537634408602
1.198435972629521
1.1827956989247312
1.1700879765395895
1.1593352883675463
1.1534701857282503
1.1495601173020529
1.142717497556207
1.1358748778103618
1.1300097751710656
1.1241446725317692
1.1192570869990224
1.115347018572825
1.1124144672531768
1.1094819159335287
1.10752688172043
1.104594330400782
1.1006842619745845
1.099706744868035
1.099706744868035
1.0977517106549364
1.0948191593352885
1.0909090909090908
1.0879765395894427
1.086021505376344
1.0840664711632453
1.0821114369501466
1.0791788856304985
1.0772238514173995
1.075268817204301
1.075268817204301
1.0772238514173995
1.0762463343108504
1.0742913000977516
1.0742913000977516
1.0791788856304985
1.0957966764418376
1.1300097751710656
1.1857282502443791
1.2668621700879763
1.3743890518084063
1.5073313782991202
1.6608015640273706
1.8035190615835777
1.9403714565004888
2.093841642228739
2.24633431085044
2.388074291300098
2.5131964809384164
2.618768328445748
2.702834799608993
2.7673509286412514
2.814271749755621
2.8455522971652005
2.863147605083089
2.865102639296188
2.8563049853372435
2.8426197458455524
2.8211143695014664
2.790811339198436
2.750733137829912
2.7038123167155423
2.6480938416422286
2.5835777126099706
2.5131964809384164
2.4379276637341154
2.358748778103617
2.2873900293255134
2.220918866080156
2.150537634408602
2.083088954056696
2.021505376344086
1.9667644183773216
1.919843597262952
1.878787878787879
1.844574780058651
1.81524926686217
1.7898338220918866
1.7673509286412512
1.7448680351906158
1.7243401759530792
1.7057673509286413
1.6852394916911049
1.6666666666666667
1.6490713587487782
1.6265884652981428
1.6011730205278591
1.5728250244379276
1.543499511241447
1.5141739980449658
1.4838709677419355
1.4545454545454546
1.43108504398827
1.409579667644184
1.3861192570869991
1.3616813294232648
1.3372434017595307
1.3128054740957966
1.2903225806451613
1.2697947214076246
1.2502443792766371
1.2316715542521994
1.2140762463343109
1.1974584555229717
1.1808406647116323
1.1691104594330402
1.1612903225806452
1.1515151515151516
1.142717497556207
1.1348973607038124
1.1280547409579669
1.1221896383186705
1.1173020527859236
1.1124144672531768
1.10752688172043
1.1036168132942326
1.1006842619745845
1.1016617790811338
1.1085043988269794
1.1221896383186705
1.1485826001955035
1.1935483870967742
1.260019550342131
1.3499511241446724
1.4643206256109482
1.5992179863147604
1.7487781036168133
1.905180840664712
2.059628543499511
2.206256109481916
2.32355816226784
2.418377321603128
2.5102639296187683
2.5884652981427174
2.6510263929618767
2.6959921798631474
2.7262952101661777
2.7419354838709675
2.744868035190616
2.7370478983382207
2.719452590420332
2.6911045943304006
2.656891495601173
2.6158357771261
2.5650048875855327
2.505376344086021
2.4379276637341154
2.363636363636364
2.283479960899316
2.201368523949169
2.120234604105572
2.042033235581622
1.9696969696969695
1.9042033235581624
1.8465298142717497
1.8005865102639296
1.7644183773216031
1.732160312805474
1.704789833822092
1.6823069403714566
1.6637341153470186
1.6480938416422288
1.6314760508308896
1.6148582600195502
1.5972629521016617
1.5786901270772238
1.5581622678396871
1.5405669599217986
1.52297165200391
1.5024437927663734
1.478983382209189
1.4535679374389052
1.4281524926686218
1.4027370478983383
1.3773216031280548
1.3519061583577712
1.3264907135874875
1.3010752688172045
1.2766373411534702
1.252199413489736
1.2336265884652982
1.2189638318670577
1.2003910068426198
1.1827956989247312
1.166177908113392
1.1515151515151516
1.13880742913001
1.1280547409579669
1.118279569892473
1.1094819159335287
1.104594330400782
1.1065493646138806
1.1163245356793745
1.1368523949169111
1.1730205278592376
1.227761485826002
1.3049853372434017
1.4056695992179864
1.5268817204301075
1.6637341153470186
1.8103616813294232
1.9589442815249267
2.101661779081134
2.231671554252199
2.343108504398827
2.4242424242424243
2.482893450635386
2.5317693059628543
2.5669599217986314
2.5855327468230693
2.587487781036168
2.575757575757576
2.552297165200391
2.5180840664711632
2.472140762463343
2.4164222873900294
2.3528836754643208
2.289345063538612
2.2248289345063537
2.1495601173020527
2.070381231671554
1.9902248289345064
1.9130009775171064
1.842619745845552
1.780058651026393
1.7253176930596286
1.6793743890518085
1.6422287390029326
1.6138807429130009
1.5933528836754642
1.5786901270772238
1.56891495601173
1.560117302052786
1.5513196480938416
1.542521994134897
1.5327468230694037
1.521016617790811
1.5073313782991202
1.4916911045943304
1.474095796676442
1.4545454545454546
1.4330400782013686
1.4134897360703813
1.393939393939394
1.370478983382209
1.3440860215053765
1.316715542521994
1.2903225806451613
1.2639296187683284
1.238514173998045
1.2140762463343109
1.1906158357771262
1.1691104594330402
1.1485826001955035
1.1290322580645162
1.115347018572825
1.1036168132942326
1.0899315738025417
1.078201368523949
1.0664711632453567
1.056695992179863
1.0478983382209188
1.0410557184750733
1.0361681329423265
1.032258064516129
1.0273704789833822
1.0224828934506354
1.0205278592375366
1.0205278592375366
1.018572825024438
1.0156402737047898
1.0127077223851415
1.010752688172043
1.007820136852395
1.0058651026392962
1.0039100684261977
1.0009775171065494
0.9980449657869012
0.9960899315738024
0.9960899315738024
0.997067448680352
0.9951124144672532
0.9931573802541545
0.9912023460410556
0.9902248289345064
0.989247311827957
0.989247311827957
0.989247311827957
0.989247311827957
0.989247311827957
0.9882697947214076
0.9872922776148584
0.989247311827957
0.9931573802541545
0.9951124144672532
0.9960899315738024
0.997067448680352
0.9980449657869012
0.9990224828934506
1.0
1.0
1.0
1.0
1.0
1.0039100684261977
1.013685239491691
1.035190615835777
1.078201368523949
1.1505376344086022
1.2561094819159335
1.3958944281524928
1.56891495601173
1.7663734115347018
1.978494623655914
2.1925708699902247
2.39980449657869
2.590420332355816
2.73802541544477
2.8514173998044967
2.956011730205278
3.0410557184750733
3.102639296187683
3.1407624633431084
3.1593352883675463
3.160312805474096
3.146627565982405
3.118279569892473
3.078201368523949
3.0254154447702835
2.967741935483871
2.9042033235581624
2.83088954056696
2.750733137829912
2.667644183773216
2.582600195503421
2.498533724340176
2.4164222873900294
2.324535679374389
2.24633431085044
2.172043010752688
2.089931573802541
2.03128054740958
1.989247311827957
1.956989247311828
1.9286412512218964
1.903225806451613
1.8797653958944285
1.857282502443793
1.8347996089931573
1.8113391984359728
1.7878787878787878
1.7624633431085044
1.7350928641251222
1.7057673509286413
1.678396871945259
