ppg
2.4701857282502444
2.5405669599217986
2.60019550342131
2.650048875855328
2.6911045943304006
2.7262952101661777
2.7546432062561097
2.7781036168132944
2.7976539589442817
2.8084066471163247
2.8132942326490715
2.8181818181818183
2.8211143695014664
2.820136852394917
2.8152492668621703
2.8054740957966766
2.789833822091887
2.768328445747801
2.740957966764418
2.7067448680351904
2.665689149560117
2.622678396871945
2.576735092864125
2.52297165200391
2.462365591397849
2.396871945259042
2.329423264907136
2.2629521016617797
2.198435972629521
2.1378299120234603
2.0821114369501466
2.03128054740958
1.986314760508309
1.9472140762463344
1.916911045943304
1.8914956011730208
1.8670576735092863
1.844574780058651
1.823069403714565
1.8025415444770283
1.782991202346041
1.7624633431085044
1.7429130009775171
1.7243401759530792
1.704789833822092
1.6842619745845553
1.6666666666666667
1.651026392961877
1.6334310850439884
1.6158357771260996
1.5972629521016617
1.5786901270772238
1.560117302052786
1.542521994134897
1.5249266862170088
1.5083088954056696
1.4916911045943304
1.4760508308895406
1.4652981427174976
1.457478005865103
1.447702834799609
1.435972629521017
1.423264907135875
1.409579667644184
1.396871945259042
1.3851417399804498
1.3743890518084063
1.364613880742913
1.356793743890518
1.3499511241446724
1.3440860215053765
1.3411534701857282
1.3391984359726294
1.3362658846529814
1.3333333333333333
1.3313782991202343
1.3304007820136852
1.3304007820136852
1.3304007820136852
1.3294232649071358
1.3284457478005864
1.3264907135874875
1.3225806451612905
1.3206256109481915
1.3196480938416422
1.3157380254154447
1.310850439882698
1.305962854349951
1.3010752688172045
1.295210166177908
1.2913000977517106
1.289345063538612
1.2903225806451613
1.2981427174975562
1.3157380254154447
1.3470185728250244
1.3870967741935485
1.4389051808406648
1.512218963831867
1.606060606060606
1.7174975562072337
1.8435972629521016
1.9794721407624636
2.120234604105572
2.260997067448681
2.3978494623655915
2.5562072336265884
2.718475073313783
2.832844574780059
2.918866080156403
3.0019550342130987
3.0762463343108504
3.1407624633431084
3.1974584555229715
3.24633431085044
3.2883675464320627
3.3255131964809386
3.357771260997068
3.3870967741935485
3.412512218963832
3.434017595307918
3.444770283479961
3.447702834799609
3.4516129032258065
3.453567937438905
3.4516129032258065
3.442815249266862
3.4281524926686218
3.407624633431085
3.380254154447703
3.347018572825025
3.30791788856305
3.2629521016617797
3.2130987292277613
3.158357771260997
3.0957966764418376
3.026392961876833
2.951124144672532
2.870967741935484
2.7869012707722387
2.701857282502444
2.6177908113391983
2.5386119257087
2.462365591397849
2.3919843597262958
2.3274682306940373
2.274682306940372
2.2297165200391005
2.1867057673509285
2.145650048875855
2.10752688172043
2.072336265884653
2.038123167155425
2.004887585532747
1.970674486803519
1.9364613880742916
1.903225806451613
1.868035190615836
1.836754643206256
1.8084066471163245
1.775171065493646
1.7390029325513197
1.7018572825024438
1.664711632453568
1.6275659824046922
1.5933528836754642
1.5610948191593352
1.530791788856305
1.5024437927663734
1.474095796676442
1.4467253176930597
1.4252199413489737
1.4086021505376345
1.388074291300098
1.3665689149560116
1.3450635386119256
1.324535679374389
1.3040078201368523
1.2854349951124144
1.2688172043010753
1.2541544477028348
1.2404692082111437
1.227761485826002
1.219941348973607
1.2140762463343109
1.2052785923753666
1.195503421309873
1.18475073313783
1.1730205278592376
1.1622678396871946
1.1515151515151516
1.142717497556207
1.1348973607038124
1.126099706744868
1.1173020527859236
1.1085043988269794
1.104594330400782
1.1026392961876832
1.0977517106549364
1.0918866080156402
1.0869990224828934
1.0840664711632453
1.0840664711632453
1.0899315738025417
1.1055718475073313
1.133919843597263
1.1779081133919844
1.2404692082111437
1.310850439882698
1.392961876832845
1.4975562072336266
1.6187683284457477
1.7526881720430108
1.89247311827957
2.0332355816226784
2.1710654936461387
2.3010752688172045
2.421309872922776
2.527859237536657
2.6207233626588464
2.701857282502444
2.7614858260019552
2.806451612903226
2.850439882697948
2.8914956011730206
2.9286412512218964
2.962854349951124
2.994134897360704
3.021505376344086
3.046920821114369
3.069403714565005
3.0869990224828934
3.101661779081134
3.1065493646138806
3.104594330400782
3.1006842619745845
3.0948191593352883
3.085043988269794
3.069403714565005
3.047898338220919
3.0195503421309877
2.98435972629521
2.9423264907135875
2.89345063538612
2.8377321603128056
2.776148582600196
2.7155425219941347
2.653958944281525
2.5855327468230693
2.5131964809384164
2.439882697947214
2.367546432062561
2.2961876832844577
2.228739002932551
2.166177908113392
2.110459433040078
2.06158357771261
2.0195503421309877
1.986314760508309
1.9589442815249267
1.9305962854349952
1.903225806451613
1.873900293255132
1.8435972629521016
1.812316715542522
1.7790811339198436
1.7458455522971652
1.7126099706744868
1.6793743890518085
1.6471163245356797
1.6138807429130009
1.5865102639296187
1.5610948191593352
1.5317693059628543
1.5024437927663734
1.4731182795698925
1.4428152492668622
1.414467253176931
1.3861192570869991
1.3577712609970674
1.3313782991202343
1.3069403714565004
1.284457478005865
1.267839687194526
1.2551319648093842
1.2394916911045943
1.2238514173998043
1.2101661779081134
1.1974584555229717
1.1857282502443791
1.173998044965787
1.1622678396871946
1.1515151515151516
1.141739980449658
1.1329423264907137
1.1280547409579669
1.126099706744868
1.1202346041055715
1.1143695014662756
1.1085043988269794
1.1026392961876832
1.096774193548387
1.0909090909090908
1.083088954056696
1.075268817204301
1.067448680351906
1.0606060606060606
1.053763440860215
1.0518084066471165
1.053763440860215
1.053763440860215
1.0557184750733135
1.0625610948191593
1.0772238514173995
1.104594330400782
1.147605083088954
1.2101661779081134
1.2932551319648091
1.3958944281524928
1.5151515151515151
1.629521016617791
1.7429130009775171
1.8729227761485825
2.0087976539589443
2.1436950146627565
2.272727272727273
2.3919843597262958
2.498533724340176
2.592375366568915
2.674486803519061
2.744868035190616
2.8025415444770285
2.850439882697948
2.8836754643206257
2.909090909090909
2.9374389051808407
2.9657869012707723
2.992179863147605
3.01564027370479
3.0361681329423265
3.0527859237536656
3.065493646138808
3.0733137829912023
3.0762463343108504
3.0733137829912023
3.0625610948191597
3.04594330400782
3.0254154447702835
3.0
2.967741935483871
2.9286412512218964
2.881720430107527
2.827956989247312
2.766373411534702
2.697947214076246
2.624633431085044
2.547409579667644
2.469208211143695
2.39980449657869
2.3362658846529816
2.270772238514174
2.207233626588465
2.0928641251221896
1.9579667644183771
1.8729227761485825
1.81524926686217
1.772238514173998
1.7360703812316716
1.7057673509286413
1.6774193548387095
1.6529814271749756
1.6314760508308896
1.608993157380254
1.585532746823069
1.560117302052786
1.533724340175953
1.5053763440860215
1.4760508308895406
1.4467253176930597
1.418377321603128
1.3900293255131966
1.3626588465298142
1.3362658846529814
1.3147605083088951
1.2961876832844574
1.2746823069403714
1.2512218963831867
1.227761485826002
1.2043010752688172
1.181818181818182
1.160312805474096
1.1397849462365592
1.1192570869990224
1.099706744868035
1.083088954056696
1.072336265884653
1.0654936461388074
1.0557184750733135
1.0449657869012707
1.0332355816226784
1.021505376344086
1.0117302052785924
1.0048875855327468
0.9990224828934506
0.9931573802541545
0.9872922776148584
0.9804496578690128
0.9736070381231672
0.9696969696969696
0.967741935483871
0.9628543499511242
0.9579667644183774
0.9530791788856304
0.9481915933528836
0.9423264907135877
0.9374389051808406
0.9335288367546432
0.9305962854349952
0.9286412512218964
0.9286412512218964
0.9345063538611924
0.9481915933528836
0.9696969696969696
1.0039100684261977
1.0527859237536656
1.118279569892473
1.1994134897360704
1.2942326490713587
1.4007820136852396
1.5151515151515151
1.6334310850439884
1.7497556207233629
1.8621700879765395
1.9550342130987293
2.034213098729228
2.115347018572825
2.189638318670577
2.2561094819159337
2.3118279569892475
2.358748778103617
2.3978494623655915
2.429130009775171
2.4545454545454546
2.4760508308895406
2.493646138807429
2.5034213098729228
2.509286412512219
2.5161290322580645
2.52297165200391
2.527859237536657
2.530791788856305
2.529814271749756
2.5249266862170088
2.515151515151515
2.5004887585532747
2.4809384164222874
2.4565004887585533
2.426197458455523
2.3929618768328447
2.355816226783969
2.3118279569892475
2.260997067448681
2.206256109481916
2.150537634408602
2.0928641251221896
2.035190615835777
1.978494623655914
1.9257086999022484
1.87683284457478
1.833822091886608
1.7986314760508308
1.76930596285435
1.7409579667644184
1.715542521994135
1.6920821114369502
1.6695992179863148
1.6490713587487782
1.629521016617791
1.6109481915933528
1.5923753665689149
1.573802541544477
1.5562072336265884
1.5376344086021505
1.521994134897361
1.5063538611925709
1.487781036168133
1.469208211143695
1.4496578690127078
1.4301075268817205
1.4115347018572826
1.392961876832845
1.375366568914956
1.3587487781036167
1.3440860215053765
1.3304007820136852
1.321603128054741
1.3157380254154447
1.3079178885630498
1.2991202346041055
1.289345063538612
1.2795698924731185
1.2697947214076246
1.260019550342131
1.252199413489736
1.2453567937438903
1.2404692082111437
1.2375366568914956
1.2346041055718475
1.2346041055718475
1.2355816226783969
1.2355816226783969
1.2355816226783969
1.2375366568914956
1.238514173998045
1.2394916911045943
1.2394916911045943
1.2394916911045943
1.2394916911045943
1.2394916911045943
1.2394916911045943
1.241446725317693
1.2443792766373412
1.24633431085044
1.2473118279569892
1.2502443792766371
1.2570869990224829
1.2697947214076246
1.29227761485826
1.327468230694037
1.3773216031280548
1.4428152492668622
1.5239491691104594
1.603128054740958
1.6871945259042034
1.7898338220918866
1.903225806451613
2.0205278592375366
2.1378299120234603
2.249266862170088
2.3519061583577714
2.444770283479961
2.5249266862170088
2.595307917888563
2.6559139784946235
2.705767350928641
2.739980449657869
2.764418377321604
2.790811339198436
2.81622678396872
2.8396871945259043
2.86217008797654
2.8826979472140764
2.9012707722385143
2.916911045943304
2.9286412512218964
2.9374389051808407
2.941348973607038
2.93841642228739
2.9286412512218964
2.918866080156403
2.906158357771261
2.8885630498533725
2.868035190615836
2.841642228739003
2.809384164222874
2.7702834799608995
2.7253176930596283
2.67644183773216
2.622678396871945
2.5640273704789838
2.50733137829912
2.4516129032258065
2.3919843597262958
2.3313782991202348
2.270772238514174
2.2130987292277613
2.1593352883675463
2.1094819159335287
2.065493646138808
2.027370478983382
1.9931573802541545
1.9618768328445748
1.9364613880742916
1.9130009775171064
1.8866080156402736
1.8602150537634408
1.8328445747800584
1.8054740957966764
1.7771260997067448
1.7487781036168133
1.7204301075268815
1.6930596285434996
1.6656891495601174
1.6373411534701858
1.6080156402737047
1.5826001955034212
1.560117302052786
1.5347018572825024
1.5083088954056696
1.482893450635386
1.457478005865103
1.4330400782013686
1.4086021505376345
1.3851417399804498
1.3626588465298142
1.3411534701857282
1.3206256109481915
1.3040078201368523
1.2913000977517106
1.2756598240469208
1.2590420332355816
1.2434017595307918
1.2287390029325511
1.2150537634408602
1.2023460410557183
1.1896383186705768
1.1779081133919844
1.1671554252199414
1.1749755620723363
1.1915933528836755
1.198435972629521
1.2013685239491692
1.1974584555229717
1.1915933528836755
1.18475073313783
1.1788856304985338
1.1720430107526882
1.166177908113392
1.1612903225806452
1.1544477028347997
1.147605083088954
1.141739980449658
1.1407624633431086
1.141739980449658
1.142717497556207
1.1466275659824048
1.1564027370478984
1.1759530791788857
1.2101661779081134
1.2609970674486803
1.3284457478005864
1.412512218963832
1.509286412512219
1.6158357771260996
1.729227761485826
1.83088954056696
1.9237536656891496
2.0254154447702835
2.126099706744868
2.2218963831867056
2.3098729227761488
2.388074291300098
2.455522971652004
2.5131964809384164
2.5620723362658846
2.603128054740958
2.6392961876832843
2.6637341153470184
2.681329423264907
2.702834799608993
2.724340175953079
2.7438905180840663
2.7614858260019552
2.776148582600196
2.7869012707722387
2.7947214076246336
2.798631476050831
2.7976539589442817
2.792766373411535
2.782991202346041
2.7673509286412514
2.7468230694037143
2.721407624633431
2.69208211143695
2.656891495601173
2.616813294232649
2.5718475073313782
2.52297165200391
2.469208211143695
2.410557184750733
2.3499511241446727
2.2873900293255134
2.23069403714565
2.177908113391984
2.1221896383186705
2.0684261974584555
2.018572825024438
1.9726295210166176
1.9315738025415443
1.8944281524926687
1.8602150537634408
1.8299120234604105
1.8025415444770283
1.7771260997067448
1.7517106549364614
1.729227761485826
1.70772238514174
1.683284457478006
1.6559139784946235
1.6285434995112416
1.6001955034213098
1.5718475073313782
1.544477028347996
1.5161290322580645
1.487781036168133
1.4604105571847508
1.4330400782013686
1.4105571847507332
1.392961876832845
1.3734115347018572
1.3528836754643203
1.3333333333333333
1.313782991202346
1.2961876832844574
1.278592375366569
1.2609970674486803
1.2443792766373412
1.2287390029325511
1.2140762463343109
1.2003910068426198
1.1906158357771262
1.18475073313783
1.1759530791788857
1.166177908113392
1.1564027370478984
1.1466275659824048
1.1378299120234605
1.1300097751710656
1.1221896383186705
1.1143695014662756
1.1065493646138806
1.0987292277614855
1.0948191593352885
1.0928641251221896
1.088954056695992
1.0850439882697946
1.0801564027370478
1.075268817204301
1.0703812316715542
1.0654936461388074
1.06158357771261
1.0586510263929618
1.056695992179863
1.056695992179863
1.0635386119257086
1.0772238514173995
1.099706744868035
1.1329423264907137
1.1808406647116323
1.2443792766373412
1.3225806451612905
1.414467253176931
1.5190615835777126
1.6304985337243405
1.7458455522971652
1.8602150537634408
1.9726295210166176
2.065493646138808
2.145650048875855
2.228739002932551
2.3059628543499517
2.3743890518084068
2.434017595307918
2.484848484848485
2.529814271749756
2.56891495601173
2.6021505376344085
2.631476050830889
2.656891495601173
2.673509286412512
2.684261974584555
2.696969696969697
2.7096774193548385
2.7223851417399803
2.732160312805474
2.7370478983382207
2.73802541544477
2.7341153470185726
2.7253176930596283
2.7116324535679373
2.6930596285435
2.670576735092864
2.643206256109482
2.610948191593353
2.572825024437928
2.5268817204301075
2.474095796676442
2.4164222873900294
2.355816226783969
2.2952101661779083
2.2346041055718477
2.174975562072336
2.117302052785924
2.064516129032258
2.0195503421309877
1.981427174975562
1.9423264907135875
1.906158357771261
1.8729227761485825
1.8416422287390029
1.8132942326490715
1.7878787878787878
1.7624633431085044
1.737047898338221
1.710654936461388
1.6852394916911049
1.6598240469208212
1.6383186705767352
1.6187683284457477
1.5943304007820136
1.5679374389051808
1.5395894428152492
1.5102639296187683
1.479960899315738
1.4496578690127078
1.4213098729227762
1.3949169110459434
1.3695014662756595
1.346041055718475
1.3284457478005864
1.3157380254154447
1.300097751710655
1.2825024437927663
1.2649071358748778
1.2473118279569892
1.2316715542521994
1.2160312805474096
1.2013685239491692
1.1886608015640274
1.1779081133919844
1.1681329423264908
1.1593352883675463
1.1534701857282503
1.1495601173020529
1.1436950146627567
1.1378299120234605
1.130987292277615
1.1241446725317692
1.1163245356793745
1.1094819159335287
1.1026392961876832
1.0957966764418376
1.0899315738025417
1.086021505376344
1.0850439882697946
1.0850439882697946
1.083088954056696
1.0791788856304985
1.0742913000977516
1.067448680351906
1.0606060606060606
1.0547409579667644
1.050830889540567
1.0527859237536656
1.0625610948191593
1.0840664711632453
1.118279569892473
1.160312805474096
1.2130987292277615
1.284457478005865
1.3714565004887584
1.4721407624633431
1.5826001955034212
1.6979472140762464
1.81524926686217
1.9286412512218964
2.035190615835777
2.131964809384164
2.218963831867057
2.286412512218964
2.3411534701857284
2.393939393939394
2.442815249266862
2.4858260019550342
2.5650048875855327
2.6608015640273703
2.721407624633431
2.763440860215054
2.793743890518084
2.817204301075269
2.834799608993157
2.8484848484848486
2.8533724340175954
2.852394916911046
2.852394916911046
2.8484848484848486
2.8406647116324537
2.8269794721407626
2.8084066471163247
2.7839687194525906
2.752688172043011
2.7145650048875853
2.6695992179863146
2.616813294232649
2.5640273704789838
2.5102639296187683
2.44672531769306
2.377321603128055
2.3059628543499517
2.2346041055718477
2.1652003910068425
2.099706744868035
2.038123167155425
1.9824046920821117
1.9315738025415443
1.884652981427175
1.8435972629521016
1.8113391984359728
1.7839687194525904
1.7556207233626588
1.7282502443792769
1.699902248289345
1.672531769305963
1.6441837732160314
1.6158357771260996
1.5884652981427174
1.5620723362658846
1.5347018572825024
1.5083088954056696
1.4868035190615836
1.466275659824047
1.439882697947214
1.412512218963832
1.3851417399804498
1.356793743890518
1.3294232649071358
1.3040078201368523
1.278592375366569
1.2531769305962854
1.2297165200391007
1.2082111436950147
1.187683284457478
1.173998044965787
1.163245356793744
1.1495601173020529
1.1358748778103618
1.1221896383186705
1.110459433040078
1.099706744868035
1.088954056695992
1.078201368523949
1.067448680351906
1.056695992179863
1.0478983382209188
1.0439882697947214
1.043010752688172
1.040078201368524
1.035190615835777
1.0303030303030305
1.0254154447702837
1.0195503421309873
1.013685239491691
1.0087976539589445
1.002932551319648
0.997067448680352
0.9921798631476052
0.9853372434017597
0.981427174975562
0.981427174975562
0.9804496578690128
0.9843597262952102
0.9960899315738024
1.018572825024438
1.0557184750733135
1.1114369501466277
1.1857282502443791
1.2766373411534702
1.3841642228739004
1.5053763440860215
1.619745845552297
1.7302052785923754
1.8543499511241448
1.981427174975562
2.103616813294233
2.2170087976539588
2.318670576735093
2.4086021505376345
2.4858260019550342
2.550342130987292
2.6050830889540566
2.650048875855328
2.6803519061583576
2.702834799608993
2.7262952101661777
2.747800586510264
2.766373411534702
2.782013685239492
2.7947214076246336
2.803519061583578
2.8084066471163247
2.8084066471163247
2.803519061583578
2.792766373411535
2.776148582600196
2.7536656891495603
2.727272727272727
2.6940371456500487
2.653958944281525
2.6070381231671558
2.5532746823069403
2.4946236559139785
2.432062561094819
2.3655913978494625
2.300097751710655
2.2375366568914954
2.176930596285435
2.1251221896383186
2.0791788856304985
2.0332355816226784
1.991202346041056
1.9530791788856303
1.919843597262952
1.889540566959922
1.8621700879765395
1.8387096774193548
1.8172043010752688
1.796676441837732
1.7771260997067448
1.7575757575757576
1.7429130009775171
1.7302052785923754
1.7145650048875856
1.696969696969697
1.6774193548387095
1.6578690127077225
1.6383186705767352
1.6187683284457477
1.5992179863147604
1.581622678396872
1.5650048875855327
1.5493646138807429
1.5376344086021505
1.5278592375366569
1.5161290322580645
1.5034213098729228
1.4916911045943304
1.479960899315738
1.4682306940371457
1.457478005865103
1.4467253176930597
1.4349951124144673
1.423264907135875
1.4105571847507332
1.3988269794721409
1.391006842619746
1.3870967741935485
1.3822091886608017
1.3763440860215057
1.370478983382209
1.3655913978494625
1.359726295210166
1.35386119257087
1.348973607038123
1.343108504398827
1.3372434017595307
1.332355816226784
1.3313782991202343
1.3333333333333333
1.3343108504398826
1.3343108504398826
1.3343108504398826
1.3343108504398826
1.3333333333333333
1.3313782991202343
1.327468230694037
1.3225806451612905
1.3176930596285434
1.3128054740957966
1.3088954056695992
1.3088954056695992
1.313782991202346
1.324535679374389
1.346041055718475
1.3812316715542523
1.4349951124144673
1.5083088954056696
1.6001955034213098
1.710654936461388
1.8347996089931573
1.9687194525904204
2.10752688172043
2.2277614858260018
2.3362658846529816
2.453567937438905
2.56891495601173
2.677419354838709
2.776148582600196
2.86217008797654
2.936461388074292
3.0
3.053763440860215
3.101661779081134
3.1436950146627565
3.1808406647116323
3.204301075268817
3.220918866080156
3.242424242424242
3.2629521016617797
3.280547409579668
3.2952101661779083
3.304985337243402
3.310850439882698
3.310850439882698
3.304007820136853
3.291300097751711
3.272727272727273
3.247311827956989
3.21505376344086
3.179863147605083
3.139784946236559
3.0957966764418376
3.04594330400782
2.988269794721408
2.9237536656891496
2.8533724340175954
2.779081133919844
2.7038123167155423
2.625610948191593
2.547409579667644
2.4789833822091887
2.41544477028348
2.350928641251222
2.2873900293255134
2.228739002932551
2.174975562072336
2.1270772238514173
2.083088954056696
2.0439882697947214
2.0087976539589443
1.975562072336266
1.9178885630498532
1.8523949169110456
1.8093841642228736
1.7732160312805474
1.7409579667644184
1.710654936461388
1.6803519061583578
1.6500488758553276
1.6207233626588464
1.5913978494623655
1.5610948191593352
1.530791788856305
1.501466275659824
1.4731182795698925
1.4506353861192571
1.4320625610948192
1.4105571847507332
1.3890518084066472
1.3685239491691104
1.348973607038123
1.3294232649071358
1.310850439882698
1.2932551319648091
1.2776148582600195
1.262952101661779
1.249266862170088
1.2394916911045943
1.23069403714565
1.219941348973607
1.209188660801564
1.198435972629521
1.187683284457478
1.1779081133919844
1.1681329423264908
1.1583577712609971
1.1485826001955035
1.1407624633431086
1.133919843597263
1.1280547409579669
1.1251221896383188
1.1241446725317692
1.1221896383186705
1.118279569892473
1.1124144672531768
1.1055718475073313
1.0987292277614855
1.0918866080156402
1.0850439882697946
1.078201368523949
1.0742913000977516
1.0742913000977516
1.0811339198435972
1.0957966764418376
1.121212121212121
1.1593352883675463
1.2121212121212122
1.2795698924731185
1.3616813294232648
1.456500488758553
1.5610948191593352
1.6715542521994136
1.7849462365591398
1.8963831867057677
2.003910068426197
2.09188660801564
2.164222873900293
2.236559139784946
2.304985337243402
2.364613880742913
2.4173998044965788
2.463343108504399
2.504398826979472
2.5405669599217986
2.5718475073313782
2.60019550342131
2.624633431085044
2.6402737047898337
2.652003910068426
2.665689149560117
2.677419354838709
2.687194525904203
2.695014662756598
2.6989247311827955
2.697947214076246
2.69208211143695
2.681329423264907
2.6666666666666665
2.6471163245356792
2.622678396871945
2.5943304007820136
2.5610948191593352
2.52297165200391
2.4780058651026398
2.426197458455523
2.3704789833822093
2.3118279569892475
2.2521994134897363
2.1925708699902247
2.133919843597263
2.0772238514174
2.0234604105571847
1.978494623655914
1.9393939393939397
1.8993157380254155
1.86119257086999
1.8269794721407624
1.796676441837732
1.76930596285435
1.7448680351906158
1.7204301075268815
1.6950146627565983
1.6705767350928642
1.64613880742913
1.6256109481915937
1.607038123167155
1.585532746823069
1.5610948191593352
1.5347018572825024
1.5063538611925709
1.478005865102639
