ppg
1.721407624633431
1.7517106549364614
1.7976539589442817
1.8494623655913975
1.911045943304008
1.9951124144672527
2.0948191593352883
2.204301075268817
2.314760508308896
2.421309872922776
2.5190615835777126
2.6041055718475072
2.674486803519061
2.729227761485826
2.76930596285435
2.7966764418377323
2.8084066471163247
2.809384164222874
2.8054740957966766
2.7966764418377323
2.782013685239492
2.7624633431085046
2.739980449657869
2.7145650048875853
2.686217008797654
2.6559139784946235
2.6236559139784945
2.5884652981427174
2.5532746823069403
2.517106549364614
2.47702834799609
2.43108504398827
2.380254154447703
2.32355816226784
2.26197458455523
2.196480938416422
2.1270772238514173
2.0547409579667644
1.9833822091886608
1.913978494623656
1.857282502443793
1.8103616813294232
1.7644183773216031
1.7253176930596286
1.6950146627565983
1.6735092864125125
1.6598240469208212
1.653958944281525
1.653958944281525
1.6578690127077225
1.6656891495601174
1.6735092864125125
1.6823069403714566
1.6911045943304008
1.6989247311827955
1.7067448680351909
1.715542521994135
1.7243401759530792
1.7331378299120237
1.7419354838709675
1.7497556207233629
1.758553274682307
1.7673509286412512
1.7761485826001957
1.7839687194525904
1.790811339198436
1.796676441837732
1.801564027370479
1.8054740957966764
1.8084066471163245
1.8103616813294232
1.812316715542522
1.8142717497556209
1.8142717497556209
1.8132942326490715
1.8113391984359728
1.8074291300097751
1.8035190615835777
1.801564027370479
1.8005865102639296
1.7996089931573802
1.7986314760508308
1.7986314760508308
1.7986314760508308
1.7986314760508308
1.7986314760508308
1.7986314760508308
1.7996089931573802
1.801564027370479
1.8025415444770283
1.8035190615835777
1.8035190615835777
1.8025415444770283
1.8005865102639296
1.7986314760508308
1.7956989247311828
1.7917888563049853
1.7898338220918866
1.7917888563049853
1.8025415444770283
1.825024437927664
1.8641251221896384
1.9227761485826005
1.986314760508309
2.056695992179863
2.1485826001955037
2.2521994134897363
2.3597262952101663
2.464320625610948
2.5620723362658846
2.6480938416422286
2.720430107526881
2.777126099706745
2.817204301075269
2.8426197458455524
2.852394916911046
2.850439882697948
2.8426197458455524
2.8289345063538613
2.8103616813294234
2.7859237536656893
2.757575757575758
2.7262952101661777
2.6930596285435
2.6578690127077222
2.619745845552297
2.579667644183773
2.5376344086021505
2.496578690127077
2.455522971652004
2.4086021505376345
2.357771260997068
2.302052785923754
2.241446725317693
2.174975562072336
2.103616813294233
2.0303030303030303
1.9560117302052784
1.8836754643206255
1.8142717497556209
1.758553274682307
1.7126099706744868
1.6695992179863148
1.6314760508308896
1.5992179863147604
1.573802541544477
1.555229716520039
1.541544477028348
1.5317693059628543
1.5239491691104594
1.517106549364614
1.5102639296187683
1.5034213098729228
1.499511241446725
1.495601173020528
1.4897360703812317
1.4819159335288368
1.4731182795698925
1.4633431085043989
1.4535679374389052
1.444770283479961
1.4379276637341154
1.4320625610948192
1.4271749755620724
1.4242424242424243
1.4242424242424243
1.426197458455523
1.4271749755620724
1.4281524926686218
1.4301075268817205
1.43108504398827
1.4320625610948192
1.434017595307918
1.435972629521017
1.4379276637341154
1.439882697947214
1.4418377321603129
1.4457478005865103
1.4506353861192571
1.456500488758553
1.4604105571847508
1.4633431085043989
1.4652981427174976
1.4672531769305963
1.469208211143695
1.4711632453567938
1.4731182795698925
1.4750733137829912
1.478005865102639
1.4819159335288368
1.4868035190615836
1.4926686217008798
1.499511241446725
1.5053763440860215
1.5102639296187683
1.5151515151515151
1.521016617790811
1.5298142717497556
1.542521994134897
1.563049853372434
1.5972629521016617
1.6480938416422288
1.7165200391006843
1.7888563049853372
1.868035190615836
1.967741935483871
2.0791788856304985
2.1955034213098727
2.30791788856305
2.4115347018572826
2.501466275659824
2.576735092864125
2.636363636363636
2.679374389051808
2.70772238514174
2.720430107526881
2.7223851417399803
2.719452590420332
2.7116324535679373
2.697947214076246
2.679374389051808
2.656891495601173
2.631476050830889
2.6021505376344085
2.570869990224829
2.5386119257087
2.5034213098729228
2.4672531769305963
2.432062561094819
2.378299120234604
2.304985337243402
2.231671554252199
2.15347018572825
2.069403714565005
1.978494623655914
1.8826979472140764
1.782991202346041
1.6823069403714566
1.5835777126099706
1.490713587487781
1.4164222873900294
1.356793743890518
1.300097751710655
1.2502443792766371
1.2121212121212122
1.18475073313783
1.166177908113392
1.155425219941349
1.1505376344086022
1.147605083088954
1.1466275659824048
1.1456500488758554
1.147605083088954
1.1505376344086022
1.1515151515151516
1.152492668621701
1.152492668621701
1.152492668621701
1.1515151515151516
1.1485826001955035
1.1456500488758554
1.142717497556207
1.13880742913001
1.1358748778103618
1.133919843597263
1.1348973607038124
1.1368523949169111
1.1378299120234605
1.13880742913001
1.13880742913001
1.1397849462365592
1.141739980449658
1.1436950146627567
1.1456500488758554
1.147605083088954
1.1495601173020529
1.1515151515151516
1.1544477028347997
1.1593352883675463
1.1612903225806452
1.1622678396871946
1.163245356793744
1.163245356793744
1.163245356793744
1.163245356793744
1.1652003910068427
1.1681329423264908
1.1730205278592376
1.1779081133919844
1.1837732160312806
1.1915933528836755
1.2003910068426198
1.2082111436950147
1.2150537634408602
1.2209188660801564
1.2267839687194526
1.2346041055718475
1.2473118279569892
1.267839687194526
1.3010752688172045
1.3528836754643203
1.4281524926686218
1.5112414467253177
1.606060606060606
1.7331378299120237
1.881720430107527
2.0410557184750733
2.20039100684262
2.3519061583577714
2.489736070381232
2.6099706744868034
2.708699902248289
2.78494623655914
2.838709677419355
2.8719452590420333
2.8836754643206257
2.8807429130009776
2.8699902248289346
2.8514173998044967
2.8269794721407626
2.7966764418377323
2.7614858260019552
2.7223851417399803
2.6803519061583576
2.635386119257087
2.587487781036168
2.536656891495601
2.486803519061584
2.4359726295210167
2.377321603128055
2.3098729227761488
2.2355816226783967
2.1544477028347995
2.067448680351906
1.9736070381231672
1.8758553274682308
1.775171065493646
1.6744868035190617
1.576735092864125
1.4858260019550342
1.4134897360703813
1.3558162267839686
1.3020527859237536
1.2570869990224829
1.2218963831867058
1.1974584555229717
1.1837732160312806
1.176930596285435
1.1759530791788857
1.1779081133919844
1.1808406647116323
1.1837732160312806
1.187683284457478
1.1925708699902249
1.1945259042033236
1.1945259042033236
1.1935483870967742
1.1915933528836755
1.1896383186705768
1.187683284457478
1.1867057673509287
1.1857282502443791
1.18475073313783
1.1837732160312806
1.1837732160312806
1.18475073313783
1.1857282502443791
1.1857282502443791
1.1857282502443791
1.1857282502443791
1.1857282502443791
1.1857282502443791
1.1867057673509287
1.187683284457478
1.1886608015640274
1.1886608015640274
1.1886608015640274
1.1896383186705768
1.1915933528836755
1.1935483870967742
1.195503421309873
1.1964809384164223
1.198435972629521
1.2003910068426198
1.2013685239491692
1.203323558162268
1.206256109481916
1.209188660801564
1.2111436950146628
1.2140762463343109
1.2189638318670577
1.2258064516129032
1.2346041055718475
1.24633431085044
1.2580645161290325
1.2697947214076246
1.2834799608993157
1.300097751710655
1.3235581622678396
1.3587487781036167
1.4115347018572826
1.4868035190615836
1.56891495601173
1.664711632453568
1.7917888563049853
1.9403714565004888
2.101661779081134
2.2658846529814274
2.423264907135875
2.5669599217986314
2.6930596285435
2.798631476050831
2.8826979472140764
2.9442815249266863
2.986314760508309
3.006842619745845
3.0117302052785924
3.0097751710654936
3.0009775171065494
2.9853372434017595
2.963831867057673
2.9374389051808407
2.906158357771261
2.870967741935484
2.832844574780059
2.790811339198436
2.745845552297165
2.6989247311827955
2.6510263929618767
2.5972629521016617
2.5376344086021505
2.4711632453567938
2.396871945259042
2.314760508308896
2.2248289345063537
2.1300097751710654
2.0303030303030303
1.9305962854349952
1.833822091886608
1.7429130009775171
1.6695992179863148
1.6109481915933528
1.5571847507331378
1.512218963831867
1.47702834799609
1.4506353861192571
1.4320625610948192
1.4193548387096775
1.409579667644184
1.4007820136852396
1.3919843597262953
1.3822091886608017
1.3734115347018572
1.364613880742913
1.3519061583577712
1.335288367546432
1.3147605083088951
1.2913000977517106
1.2658846529814272
1.2375366568914956
1.2052785923753666
1.1710654936461389
1.1358748778103618
1.1006842619745845
1.0654936461388074
1.0381231671554252
1.013685239491691
0.9853372434017597
0.9550342130987292
0.9257086999022482
0.895405669599218
0.8641251221896383
0.833822091886608
0.804496578690127
0.7761485826001955
0.7497556207233627
0.7243401759530792
0.7067448680351907
0.6930596285434996
0.6754643206256109
0.656891495601173
0.6383186705767351
0.6207233626588465
0.603128054740958
0.5865102639296188
0.6803519061583577
0.83088954056696
0.8983382209188661
0.9266862170087976
0.9403714565004888
0.9472140762463344
0.9442815249266864
0.9374389051808406
0.927663734115347
0.9159335288367546
0.9032258064516128
0.8924731182795699
0.8836754643206256
0.8797653958944281
0.884652981427175
0.9032258064516128
0.9413489736070382
0.9921798631476052
1.0606060606060606
1.155425219941349
1.2727272727272727
1.4086021505376345
1.5532746823069403
1.7008797653958945
1.842619745845552
1.9745845552297163
2.09188660801564
2.1915933528836757
2.2737047898338223
2.3313782991202348
2.372434017595308
2.406647116324536
2.432062561094819
2.447702834799609
2.455522971652004
2.4565004887585533
2.4516129032258065
2.441837732160313
2.4271749755620724
2.409579667644184
2.3900293255131966
2.366568914956012
2.343108504398827
2.3167155425219943
2.2844574780058653
2.247311827956989
2.203323558162268
2.1515151515151514
2.09188660801564
2.0234604105571847
1.949169110459433
1.8699902248289344
1.7869012707722385
1.7038123167155426
1.6334310850439884
1.5728250244379276
1.5112414467253177
1.4545454545454546
1.404692082111437
1.3626588465298142
1.3304007820136852
1.3069403714565004
1.289345063538612
1.2776148582600195
1.2697947214076246
1.2639296187683284
1.2580645161290325
1.2551319648093842
1.2531769305962854
1.2473118279569892
1.238514173998045
1.2287390029325511
1.217008797653959
1.203323558162268
1.1896383186705768
1.176930596285435
1.1652003910068427
1.1544477028347997
1.1456500488758554
1.141739980449658
1.1407624633431086
1.13880742913001
1.1368523949169111
1.1358748778103618
1.1358748778103618
1.1368523949169111
1.13880742913001
1.142717497556207
1.1485826001955035
1.1544477028347997
1.160312805474096
1.166177908113392
1.1749755620723363
1.1857282502443791
1.195503421309873
1.203323558162268
1.2101661779081134
1.2150537634408602
1.219941348973607
1.224828934506354
1.2287390029325511
1.23069403714565
1.2316715542521994
1.2316715542521994
1.2336265884652982
1.2365591397849462
1.2365591397849462
1.2355816226783969
1.2346041055718475
1.2336265884652982
1.2336265884652982
1.2394916911045943
1.2570869990224829
1.2903225806451613
1.3421309872922775
1.4164222873900294
1.5141739980449658
1.6158357771260996
1.7253176930596286
1.8602150537634408
2.0087976539589443
2.161290322580645
2.310850439882698
2.4486803519061584
2.5698924731182795
2.673509286412512
2.758553274682307
2.8269794721407626
2.8797653958944283
2.911045943304008
2.929618768328446
2.946236559139785
2.9579667644183774
2.9657869012707723
2.967741935483871
2.963831867057673
2.956011730205278
2.943304007820137
2.927663734115347
2.906158357771261
2.8797653958944283
2.8484848484848486
2.814271749755621
2.7751710654936463
2.7282502443792764
2.674486803519061
2.611925708699902
2.5405669599217986
2.4613880742913
2.375366568914956
2.286412512218964
2.1974584555229715
2.110459433040078
2.0283479960899315
1.9608993157380252
1.905180840664712
1.8523949169110456
1.8054740957966764
1.7653958944281525
1.7331378299120237
1.7067448680351909
1.6842619745845553
1.6656891495601174
1.6500488758553276
1.635386119257087
1.6217008797653958
1.607038123167155
1.5943304007820136
1.5835777126099706
1.5698924731182795
1.5532746823069403
1.5356793743890518
1.517106549364614
1.499511241446725
1.482893450635386
1.4672531769305963
1.4535679374389052
1.4408602150537635
1.4301075268817205
1.4252199413489737
1.4242424242424243
1.423264907135875
1.4242424242424243
1.4252199413489737
1.4281524926686218
1.4320625610948192
1.436950146627566
1.4408602150537635
1.4457478005865103
1.4496578690127078
1.4545454545454546
1.458455522971652
1.4643206256109482
1.4701857282502444
1.4760508308895406
1.4819159335288368
1.4868035190615836
1.490713587487781
1.4936461388074291
1.4946236559139785
1.4946236559139785
1.4916911045943304
1.4887585532746823
1.4838709677419355
1.4809384164222874
1.478983382209189
1.474095796676442
1.4682306940371457
1.4613880742913
1.4535679374389052
1.4457478005865103
1.4408602150537635
1.4418377321603129
1.452590420332356
1.478983382209189
1.5249266862170088
1.5806451612903225
1.6520039100684265
1.7517106549364614
1.8758553274682308
2.0175953079178885
2.16911045943304
2.3196480938416424
2.462365591397849
2.593352883675464
2.7096774193548385
2.807429130009776
2.886608015640274
2.948191593352884
2.9853372434017595
3.005865102639296
3.021505376344086
3.0283479960899315
3.027370478983382
3.018572825024438
3.002932551319648
2.981427174975562
2.95405669599218
2.921798631476051
2.884652981427175
2.843597262952102
2.8025415444770285
2.758553274682307
2.7096774193548385
2.654936461388074
2.5943304007820136
2.527859237536657
2.4545454545454546
2.3743890518084068
2.2883675464320627
2.1974584555229715
2.103616813294233
2.0097751710654936
1.9178885630498532
1.8416422287390029
1.7771260997067448
1.7302052785923754
1.6989247311827955
1.6637341153470186
1.6314760508308896
1.6041055718475072
1.581622678396872
1.563049853372434
1.547409579667644
1.533724340175953
1.521016617790811
1.5112414467253177
1.5024437927663734
1.490713587487781
1.478005865102639
1.4643206256109482
1.4516129032258065
1.4379276637341154
1.4242424242424243
1.4105571847507332
1.3978494623655917
1.3851417399804498
1.3743890518084063
1.364613880742913
1.359726295210166
1.3587487781036167
1.3577712609970674
1.3577712609970674
1.359726295210166
1.3636363636363635
1.3685239491691104
1.3763440860215057
1.3841642228739004
1.3919843597262953
1.4007820136852396
1.4086021505376345
1.418377321603128
1.4301075268817205
1.4408602150537635
1.4516129032258065
1.4623655913978495
1.4731182795698925
1.4819159335288368
1.4897360703812317
1.498533724340176
1.5063538611925709
1.512218963831867
1.517106549364614
1.521994134897361
1.5268817204301075
1.530791788856305
1.533724340175953
1.5356793743890518
1.5376344086021505
1.5395894428152492
1.542521994134897
1.544477028347996
1.5454545454545454
1.5464320625610948
1.5464320625610948
1.547409579667644
1.5513196480938416
1.5591397849462365
1.5728250244379276
1.598240469208211
1.6392961876832846
1.7018572825024438
1.7859237536656891
1.8905180840664717
2.013685239491691
2.1485826001955037
2.289345063538612
2.4271749755620724
2.557184750733138
2.658846529814272
2.739980449657869
2.8181818181818183
2.886608015640274
2.9423264907135875
2.9853372434017595
3.01564027370479
3.035190615835777
3.0439882697947214
3.0439882697947214
3.037145650048876
3.024437927663734
3.004887585532747
2.9804496578690127
2.95405669599218
2.9257086999022484
2.8944281524926687
2.8582600195503423
2.819159335288368
2.7751710654936463
2.7262952101661777
2.6715542521994133
2.610948191593353
2.544477028347996
2.4711632453567938
2.401759530791789
2.332355816226784
2.254154447702835
2.172043010752688
2.090909090909091
2.0127077223851417
1.9413489736070384
1.878787878787879
1.825024437927664
1.780058651026393
1.7429130009775171
1.7145650048875856
1.6950146627565983
1.6803519061583578
1.6666666666666667
1.653958944281525
1.643206256109482
1.629521016617791
1.6177908113391983
1.6080156402737047
1.5972629521016617
1.585532746823069
1.573802541544477
1.5610948191593352
1.5493646138807429
1.5405669599217986
1.5327468230694037
1.5249266862170088
1.5190615835777126
1.5141739980449658
1.5112414467253177
1.5102639296187683
1.512218963831867
1.5151515151515151
1.5190615835777126
1.5239491691104594
1.5298142717497556
1.5376344086021505
1.547409579667644
1.5581622678396871
1.5698924731182795
1.5796676441837731
1.5884652981427174
1.5972629521016617
1.6050830889540566
1.6129032258064515
1.6207233626588464
1.6285434995112416
1.6363636363636365
1.6422287390029326
1.6480938416422288
1.653958944281525
1.6588465298142718
1.6627565982404693
1.6666666666666667
1.6705767350928642
1.675464320625611
1.6793743890518085
1.683284457478006
1.6871945259042034
1.6911045943304008
1.6930596285434996
1.6950146627565983
1.6979472140762464
1.699902248289345
1.7028347996089932
1.7086999022482894
1.721407624633431
1.7468230694037146
1.7888563049853372
1.8514173998044965
1.9345063538611929
2.0361681329423265
2.1524926686217007
2.27761485826002
2.386119257086999
2.4838709677419355
2.5884652981427174
2.689149560117302
2.779081133919844
2.8563049853372435
2.918866080156403
2.9667644183773216
3.0019550342130987
3.024437927663734
3.0361681329423265
3.0391006842619745
3.032258064516129
3.0195503421309877
3.003910068426197
2.986314760508309
2.9657869012707723
2.941348973607038
2.913978494623656
2.881720430107527
2.84652981427175
2.806451612903226
2.7624633431085046
2.7145650048875853
2.665689149560117
2.613880742913001
2.5532746823069403
2.4858260019550342
2.4115347018572826
2.3313782991202348
2.249266862170088
2.167155425219941
2.0869990224828934
2.0127077223851417
1.945259042033236
1.8885630498533723
1.8406647116324533
1.8054740957966764
1.780058651026393
1.7595307917888563
1.7438905180840665
1.732160312805474
1.7243401759530792
1.7194525904203324
1.7165200391006843
1.7135874877810362
1.7116324535679377
1.710654936461388
1.7096774193548387
1.7096774193548387
1.7096774193548387
1.7096774193548387
1.7096774193548387
1.710654936461388
1.7116324535679377
1.7135874877810362
1.715542521994135
1.7174975562072337
1.7194525904203324
1.721407624633431
1.7243401759530792
1.7282502443792769
1.7331378299120237
1.7380254154447703
1.7429130009775171
1.747800586510264
1.750733137829912
1.75366568914956
1.7556207233626588
1.7575757575757576
1.7595307917888563
1.7605083088954057
1.7605083088954057
1.761485826001955
1.7624633431085044
1.7634408602150538
1.7644183773216031
1.7644183773216031
1.7644183773216031
1.7644183773216031
1.7634408602150538
1.761485826001955
1.7595307917888563
1.6881720430107527
1.5826001955034212
1.5298142717497556
1.504398826979472
1.4926686217008798
1.4868035190615836
1.482893450635386
1.479960899315738
1.4760508308895406
1.4701857282502444
1.4652981427174976
1.4633431085043989
1.4682306940371457
1.4848484848484849
1.5190615835777126
1.5757575757575757
1.640273704789834
1.718475073313783
1.8240469208211143
1.949169110459433
2.085043988269794
2.2238514173998043
2.356793743890518
2.4789833822091887
2.5855327468230693
2.675464320625611
2.747800586510264
2.803519061583578
2.843597262952102
2.8641251221896384
2.870967741935484
2.8719452590420333
2.8670576735092865
2.8533724340175954
2.832844574780059
2.8054740957966766
2.7722385141739982
2.736070381231672
2.695014662756598
2.6510263929618767
2.6041055718475072
2.557184750733138
2.5102639296187683
2.4574780058651027
2.39980449657869
2.335288367546432
2.264907135874878
2.188660801564027
2.1055718475073317
2.0175953079178885
1.9257086999022484
1.8318670576735088
1.7380254154447703
1.6480938416422288
1.5728250244379276
1.5102639296187683
1.4486803519061584
1.392961876832845
1.3450635386119256
1.305962854349951
1.2746823069403714
1.2512218963831867
1.2316715542521994
1.2160312805474096
1.2023460410557183
1.1896383186705768
1.1808406647116323
1.173998044965787
1.163245356793744
1.1495601173020529
1.133919843597263
1.1173020527859236
1.099706744868035
1.0801564027370478
1.0606060606060606
1.043010752688172
1.0254154447702837
1.0087976539589445
0.9931573802541545
0.9833822091886608
0.9775171065493646
0.9696969696969696
0.9618768328445748
0.9560117302052786
0.9511241446725318
0.9481915933528836
0.9472140762463344
0.9472140762463344
0.9481915933528836
0.9511241446725318
0.9550342130987292
0.9618768328445748
0.9706744868035192
0.9765395894428152
0.9804496578690128
0.9853372434017597
0.9902248289345064
0.9951124144672532
1.0
1.0048875855327468
1.0097751710654936
1.0146627565982405
1.018572825024438
1.0224828934506354
1.029325513196481
1.0371456500488758
1.0439882697947214
1.0498533724340176
1.0547409579667644
1.0596285434995112
1.064516129032258
1.0684261974584557
1.072336265884653
1.0772238514173995
1.0869990224828934
1.115347018572825
1.147605083088954
1.181818181818182
1.241446725317693
1.327468230694037
1.4408602150537635
1.5777126099706744
1.7311827956989247
1.8944281524926687
2.060606060606061
2.2218963831867056
2.372434017595308
2.506353861192571
2.621700879765396
2.7067448680351904
2.768328445747801
2.823069403714565
2.8641251221896384
2.8914956011730206
2.902248289345064
2.9042033235581624
2.900293255131965
2.887585532746823
2.859237536656892
2.8289345063538613
2.7947214076246336
2.7595307917888565
2.718475073313783
2.66177908113392
2.621700879765396
2.5718475073313782
2.4995112414467253
2.4271749755620724
2.3714565004887587
2.302052785923754
2.2023460410557183
2.1300097751710654
2.0449657869012707
1.9403714565004888
1.8514173998044965
1.7839687194525904
1.7086999022482894
1.6138807429130009
1.5356793743890518
1.4721407624633431
1.4203323558162269
1.380254154447703
1.3499511241446724
1.3264907135874875
1.3088954056695992
1.2971652003910068
1.289345063538612
1.2825024437927663
1.2766373411534702
1.2697947214076246
1.2619745845552297
1.2531769305962854
1.2434017595307918
1.2355816226783969
1.2287390029325511
1.2228739002932552
1.2189638318670577
1.217008797653959
1.217008797653959
1.217008797653959
1.217008797653959
1.2179863147605083
1.2209188660801564
1.2258064516129032
1.2326490713587488
1.2404692082111437
1.2502443792766371
1.2619745845552297
1.273704789833822
1.284457478005865
1.295210166177908
1.305962854349951
1.3157380254154447
1.3255131964809383
1.3343108504398826
1.3411534701857282
1.3470185728250244
1.3509286412512218
1.3528836754643203
1.35386119257087
1.35386119257087
1.35386119257087
1.3548387096774193
1.3558162267839686
1.3548387096774193
1.3519061583577712
1.348973607038123
1.346041055718475
1.3450635386119256
1.3450635386119256
1.346041055718475
1.3470185728250244
1.3499511241446724
1.3519061583577712
1.35386119257087
1.3577712609970674
1.3636363636363635
1.3724340175953078
1.3890518084066472
1.418377321603128
1.4652981427174976
1.5356793743890518
1.6304985337243405
1.7468230694037146
1.8797653958944285
2.024437927663734
2.1739980449657867
2.300097751710655
2.409579667644184
2.52297165200391
2.6265884652981426
2.7155425219941347
2.787878787878788
2.8426197458455524
2.8797653958944283
2.902248289345064
2.911045943304008
2.909090909090909
2.898338220918866
2.878787878787879
2.8533724340175954
2.823069403714565
2.788856304985337
2.752688172043011
2.713587487781036
2.6715542521994133
2.6265884652981426
2.578690127077224
2.5288367546432062
2.474095796676442
2.412512218963832
2.3440860215053765
2.27761485826002
