ppg
1.6011730205278591
1.5913978494623655
1.5806451612903225
1.5669599217986314
1.552297165200391
1.5376344086021505
1.52297165200391
1.5083088954056696
1.4946236559139785
1.482893450635386
1.4701857282502444
1.4535679374389052
1.4349951124144673
1.41544477028348
1.3949169110459434
1.375366568914956
1.359726295210166
1.346041055718475
1.335288367546432
1.3264907135874875
1.316715542521994
1.3069403714565004
1.2991202346041055
1.29227761485826
1.284457478005865
1.273704789833822
1.2609970674486803
1.249266862170088
1.2375366568914956
1.2267839687194526
1.2189638318670577
1.2121212121212122
1.206256109481916
1.2023460410557183
1.2013685239491692
1.2003910068426198
1.2003910068426198
1.2003910068426198
1.1974584555229717
1.1935483870967742
1.1886608015640274
1.1837732160312806
1.1808406647116323
1.1788856304985338
1.1779081133919844
1.1779081133919844
1.1779081133919844
1.1798631476050832
1.1886608015640274
1.2111436950146628
1.2561094819159335
1.3313782991202343
1.439882697947214
1.581622678396872
1.7468230694037146
1.9257086999022484
2.10850439882698
2.2844574780058653
2.44672531769306
2.572825024437928
2.6695992179863146
2.7595307917888565
2.838709677419355
2.903225806451613
2.948191593352884
2.975562072336266
2.991202346041056
2.9960899315738025
2.9931573802541545
2.98435972629521
2.970674486803519
2.956011730205278
2.9374389051808407
2.913000977517106
2.8885630498533725
2.860215053763441
2.827956989247312
2.790811339198436
2.7468230694037143
2.6959921798631474
2.638318670576735
2.5718475073313782
2.496578690127077
2.4144672531769307
2.3382209188660803
2.2639296187683287
2.179863147605083
2.0928641251221896
2.004887585532747
1.920821114369501
1.8435972629521016
1.7732160312805474
1.7135874877810362
1.664711632453568
1.624633431085044
1.5933528836754642
1.56891495601173
1.5513196480938416
1.5386119257087
1.525904203323558
1.5141739980449658
1.504398826979472
1.4936461388074291
1.4838709677419355
1.4721407624633431
1.457478005865103
1.4389051808406648
1.4193548387096775
1.3998044965786902
1.3822091886608017
1.3655913978494625
1.3470185728250244
1.3284457478005864
1.3098729227761483
1.2913000977517106
1.2717497556207231
1.249266862170088
1.2258064516129032
1.2052785923753666
1.1886608015640274
1.1749755620723363
1.163245356793744
1.155425219941349
1.1505376344086022
1.142717497556207
1.1348973607038124
1.1270772238514175
1.1192570869990224
1.1114369501466277
1.1036168132942326
1.0957966764418376
1.0879765395894427
1.0821114369501466
1.0772238514173995
1.0772238514173995
1.0772238514173995
1.075268817204301
1.0742913000977516
1.0733137829912025
1.0733137829912025
1.0733137829912025
1.0733137829912025
1.0733137829912025
1.0703812316715542
1.0654936461388074
1.0586510263929618
1.0518084066471165
1.0488758553274682
1.0518084066471165
1.0625610948191593
1.0909090909090908
1.144672531769306
1.2258064516129032
1.33822091886608
1.4809384164222874
1.6480938416422288
1.83088954056696
2.016617790811339
2.1955034213098727
2.3391984359726297
2.455522971652004
2.567937438905181
2.667644183773216
2.748778103616813
2.812316715542522
2.8611925708699903
2.8944281524926687
2.9149560117302054
2.9266862170087977
2.929618768328446
2.924731182795699
2.9120234604105573
2.89247311827957
2.8699902248289346
2.843597262952102
2.8132942326490715
2.7810361681329425
2.745845552297165
2.704789833822092
2.659824046920821
2.6099706744868034
2.5532746823069403
2.4916911045943304
2.421309872922776
2.3519061583577714
2.2825024437927666
2.203323558162268
2.118279569892473
2.0332355816226784
1.9521016617790807
1.873900293255132
1.8005865102639296
1.7360703812316716
1.6813294232649072
1.6373411534701858
1.6011730205278591
1.5747800586510263
1.5562072336265884
1.5405669599217986
1.5288367546432062
1.5190615835777126
1.5102639296187683
1.5024437927663734
1.4926686217008798
1.482893450635386
1.4721407624633431
1.457478005865103
1.4389051808406648
1.4193548387096775
1.4037145650048877
1.3890518084066472
1.3714565004887584
1.35386119257087
1.3372434017595307
1.3206256109481915
1.303030303030303
1.2854349951124144
1.2688172043010753
1.2531769305962854
1.2375366568914956
1.2218963831867058
1.2101661779081134
1.2003910068426198
1.187683284457478
1.1730205278592376
1.1583577712609971
1.142717497556207
1.1290322580645162
1.1163245356793745
1.104594330400782
1.093841642228739
1.083088954056696
1.072336265884653
1.0625610948191593
1.0557184750733135
1.053763440860215
1.0518084066471165
1.0478983382209188
1.0420332355816226
1.0342130987292275
1.0263929618768328
1.021505376344086
1.018572825024438
1.0175953079178883
1.0166177908113392
1.0166177908113392
1.0175953079178883
1.0175953079178883
1.0166177908113392
1.0166177908113392
1.018572825024438
1.0312805474095796
1.0606060606060606
1.1143695014662756
1.2043010752688172
1.3284457478005864
1.4819159335288368
1.6549364613880744
1.835777126099707
1.991202346041056
2.126099706744868
2.26197458455523
2.383186705767351
2.484848484848485
2.5640273704789838
2.6236559139784945
2.6666666666666665
2.6959921798631474
2.7116324535679373
2.7155425219941347
2.710654936461388
2.697947214076246
2.678396871945259
2.6559139784946235
2.63049853372434
2.60019550342131
2.5669599217986314
2.5317693059628543
2.4975562072336266
2.462365591397849
2.4222873900293256
2.376344086021505
2.32355816226784
2.26197458455523
2.19941348973607
2.134897360703812
2.06158357771261
1.981427174975562
1.8983382209188664
1.8172043010752688
1.7419354838709675
1.6735092864125125
1.611925708699902
1.5581622678396871
1.5151515151515151
1.479960899315738
1.455522971652004
1.439882697947214
1.4271749755620724
1.418377321603128
1.4134897360703813
1.4115347018572826
1.4105571847507332
1.409579667644184
1.4066471163245358
1.3998044965786902
1.391006842619746
1.3812316715542523
1.3714565004887584
1.3626588465298142
1.35386119257087
1.343108504398827
1.3313782991202343
1.3186705767350928
1.305962854349951
1.2932551319648091
1.2805474095796676
1.2688172043010753
1.2590420332355816
1.2502443792766371
1.2404692082111437
1.2346041055718475
1.2297165200391007
1.2218963831867058
1.2140762463343109
1.2082111436950147
1.2023460410557183
1.1964809384164223
1.1915933528836755
1.1867057673509287
1.1808406647116323
1.1759530791788857
1.1710654936461389
1.1671554252199414
1.166177908113392
1.166177908113392
1.164222873900293
1.163245356793744
1.164222873900293
1.1671554252199414
1.1710654936461389
1.1749755620723363
1.176930596285435
1.1779081133919844
1.176930596285435
1.173998044965787
1.1720430107526882
1.1710654936461389
1.1681329423264908
1.1652003910068427
1.166177908113392
1.1779081133919844
1.2072336265884651
1.2609970674486803
1.3440860215053765
1.458455522971652
1.603128054740958
1.7702834799608993
1.951124144672532
2.1094819159335287
2.249266862170088
2.3978494623655915
2.5376344086021505
2.658846529814272
2.757575757575758
2.834799608993157
2.89345063538612
2.9315738025415445
2.95405669599218
2.961876832844575
2.959921798631476
2.948191593352884
2.9315738025415445
2.913000977517106
2.8905180840664717
2.866080156402737
2.8396871945259043
2.811339198435973
2.7810361681329425
2.747800586510264
2.708699902248289
2.664711632453568
2.613880742913001
2.5610948191593352
2.504398826979472
2.4379276637341154
2.3626588465298144
2.280547409579668
2.1945259042033234
2.1055718475073317
2.016617790811339
1.9305962854349952
1.8494623655913975
1.7761485826001957
1.7135874877810362
1.66177908113392
1.6236559139784943
1.595307917888563
1.5698924731182795
1.5483870967741935
1.5298142717497556
1.5131964809384164
1.499511241446725
1.487781036168133
1.47702834799609
1.466275659824047
1.455522971652004
1.4437927663734116
1.434017595307918
1.4252199413489737
1.4115347018572826
1.393939393939394
1.375366568914956
1.3548387096774193
1.3362658846529814
1.3186705767350928
1.3010752688172045
1.2825024437927663
1.2639296187683284
1.2443792766373412
1.2258064516129032
1.2130987292277615
1.2013685239491692
1.1857282502443791
1.1720430107526882
1.1583577712609971
1.1436950146627567
1.1300097751710656
1.1173020527859236
1.1055718475073313
1.0948191593352885
1.0840664711632453
1.0733137829912025
1.067448680351906
1.0625610948191593
1.0547409579667644
1.04594330400782
1.0381231671554252
1.029325513196481
1.0205278592375366
1.0117302052785924
1.0058651026392962
1.002932551319648
1.0019550342130987
1.0009775171065494
1.0009775171065494
1.0019550342130987
1.002932551319648
1.0019550342130987
1.0
0.9980449657869012
0.9980449657869012
1.002932551319648
1.021505376344086
1.0606060606060606
1.126099706744868
1.2228739002932552
1.3499511241446724
1.47702834799609
1.6099706744868034
1.7683284457478006
1.935483870967742
2.0957966764418376
2.241446725317693
2.3685239491691106
2.4731182795698925
2.5562072336265884
2.6177908113391983
2.66177908113392
2.689149560117302
2.704789833822092
2.7067448680351904
2.699902248289345
2.6911045943304006
2.679374389051808
2.662756598240469
2.6422287390029324
2.619745845552297
2.592375366568915
2.5591397849462365
2.520039100684262
2.47702834799609
2.429130009775171
2.3812316715542523
2.3304007820136854
2.272727272727273
2.2082111436950145
2.136852394916911
2.059628543499511
1.9775171065493649
1.8934506353861196
1.8093841642228736
1.729227761485826
1.6549364613880744
1.587487781036168
1.5288367546432062
1.4868035190615836
1.456500488758553
1.43108504398827
1.4134897360703813
1.4027370478983383
1.3988269794721409
1.4007820136852396
1.4076246334310851
1.41544477028348
1.423264907135875
1.4291300097751711
1.4320625610948192
1.436950146627566
1.4428152492668622
1.4457478005865103
1.447702834799609
1.4486803519061584
1.4467253176930597
1.439882697947214
1.43108504398827
1.4213098729227762
1.4115347018572826
1.401759530791789
1.3900293255131966
1.3773216031280548
1.3685239491691104
1.3587487781036167
1.3470185728250244
1.33822091886608
1.3313782991202343
1.3255131964809383
1.3176930596285434
1.3079178885630498
1.2981427174975562
1.2873900293255132
1.2776148582600195
1.2668621700879763
1.2619745845552297
1.2590420332355816
1.2551319648093842
1.2502443792766371
1.2453567937438903
1.2404692082111437
1.2355816226783969
1.2297165200391007
1.224828934506354
1.219941348973607
1.2140762463343109
1.209188660801564
1.203323558162268
1.2003910068426198
1.1994134897360704
1.1964809384164223
1.1896383186705768
1.1808406647116323
1.1749755620723363
1.1720430107526882
1.1759530791788857
1.195503421309873
1.2394916911045943
1.3157380254154447
1.4252199413489737
1.541544477028348
1.6705767350928642
1.833822091886608
2.0146627565982405
2.1974584555229715
2.3685239491691106
2.517106549364614
2.6402737047898337
2.7390029325513194
2.814271749755621
2.870967741935484
2.911045943304008
2.936461388074292
2.945259042033236
2.943304007820137
2.936461388074292
2.9257086999022484
2.911045943304008
2.8914956011730206
2.868035190615836
2.843597262952102
2.817204301075269
2.7869012707722387
2.7517106549364616
2.710654936461388
2.667644183773216
2.621700879765396
2.5669599217986314
2.504398826979472
2.4330400782013686
2.3548387096774195
2.272727272727273
2.185728250244379
2.0957966764418376
2.005865102639296
1.916911045943304
1.8328445747800584
1.7575757575757576
1.696969696969697
1.6480938416422288
1.6041055718475072
1.5679374389051808
1.5376344086021505
1.5141739980449658
1.498533724340176
1.4868035190615836
1.478983382209189
1.4721407624633431
1.4633431085043989
1.4535679374389052
1.444770283479961
1.4349951124144673
1.4222873900293256
1.4066471163245358
1.388074291300098
1.3685239491691104
1.3499511241446724
1.332355816226784
1.3157380254154447
1.2991202346041055
1.2834799608993157
1.267839687194526
1.2561094819159335
1.2443792766373412
1.2297165200391007
1.2140762463343109
1.1974584555229717
1.1808406647116323
1.1671554252199414
1.155425219941349
1.1436950146627567
1.1329423264907137
1.1221896383186705
1.1114369501466277
1.1006842619745845
1.093841642228739
1.088954056695992
1.0811339198435972
1.075268817204301
1.072336265884653
1.067448680351906
1.06158357771261
1.0557184750733135
1.0488758553274682
1.040078201368524
1.032258064516129
1.0254154447702837
1.0224828934506354
1.0205278592375366
1.0166177908113392
1.0127077223851415
1.0087976539589445
1.0068426197458455
1.0048875855327468
1.0039100684261977
1.0048875855327468
1.0068426197458455
1.0156402737047898
1.040078201368524
1.0879765395894427
1.1515151515151516
1.2365591397849462
1.359726295210166
1.512218963831867
1.6852394916911049
1.865102639296188
2.040078201368524
2.19941348973607
2.337243401759531
2.449657869012708
2.5376344086021505
2.6041055718475072
2.6451612903225805
2.668621700879765
2.6852394916911044
2.6940371456500487
2.6940371456500487
2.686217008797654
2.670576735092864
2.650048875855328
2.624633431085044
2.595307917888563
2.5620723362658846
2.5268817204301075
2.489736070381232
2.452590420332356
2.4134897360703813
2.36950146627566
2.317693059628544
2.2580645161290325
2.189638318670577
2.114369501466276
2.0332355816226784
1.949169110459433
1.865102639296188
1.7839687194525904
1.7086999022482894
1.6490713587487782
1.5992179863147604
1.5503421309872922
1.5073313782991202
1.4731182795698925
1.4467253176930597
1.4271749755620724
1.4134897360703813
1.404692082111437
1.4007820136852396
1.3988269794721409
1.3978494623655917
1.396871945259042
1.3978494623655917
1.396871945259042
1.391006842619746
1.383186705767351
1.3714565004887584
1.3558162267839686
1.3401759530791788
1.324535679374389
1.3079178885630498
1.2903225806451613
1.273704789833822
1.2570869990224829
1.2434017595307918
1.2316715542521994
1.2150537634408602
1.1945259042033236
1.173998044965787
1.155425219941349
1.13880742913001
1.1221896383186705
1.10752688172043
1.093841642228739
1.0801564027370478
1.0664711632453567
1.0547409579667644
1.0469208211143697
1.0420332355816226
1.0342130987292275
1.0254154447702837
1.0166177908113392
1.0097751710654936
1.0058651026392962
1.0058651026392962
1.0058651026392962
1.0058651026392962
1.0068426197458455
1.0087976539589445
1.013685239491691
1.021505376344086
1.029325513196481
1.0371456500488758
1.0439882697947214
1.050830889540567
1.0576735092864125
1.0635386119257086
1.0703812316715542
1.0772238514173995
1.088954056695992
1.1124144672531768
1.152492668621701
1.2043010752688172
1.2766373411534702
1.3851417399804498
1.5278592375366569
1.696969696969697
1.8807429130009776
2.0733137829912023
2.2658846529814274
2.4389051808406648
2.587487781036168
2.708699902248289
2.8025415444770285
2.866080156402737
2.9071358748778104
2.93841642228739
2.9579667644183774
2.967741935483871
2.9696969696969697
2.9657869012707723
2.9550342130987293
2.9393939393939394
2.917888563049853
2.89247311827957
2.863147605083089
2.832844574780059
2.801564027370479
2.7673509286412514
2.727272727272727
2.6803519061583576
2.625610948191593
2.563049853372434
2.49266862170088
2.4173998044965788
2.3382209188660803
2.2551319648093844
2.1710654936461387
2.0869990224828934
2.0146627565982405
1.9472140762463344
1.87683284457478
1.8113391984359728
1.7526881720430108
1.7038123167155426
1.6627565982404693
1.6314760508308896
1.6080156402737047
1.5884652981427174
1.5718475073313782
1.5591397849462365
1.547409579667644
1.5366568914956011
1.525904203323558
1.5131964809384164
1.500488758553275
1.4858260019550342
1.4701857282502444
1.4535679374389052
1.434017595307918
1.4134897360703813
1.392961876832845
1.3714565004887584
1.3519061583577712
1.33822091886608
1.3264907135874875
1.3128054740957966
1.2981427174975562
1.2825024437927663
1.2668621700879763
1.2512218963831867
1.2346041055718475
1.2189638318670577
1.2043010752688172
1.1925708699902249
1.1837732160312806
1.1788856304985338
1.1730205278592376
1.1671554252199414
1.163245356793744
1.1583577712609971
1.1544477028347997
1.1495601173020529
1.144672531769306
1.142717497556207
1.141739980449658
1.1378299120234605
1.1319648093841643
1.1270772238514175
1.1241446725317692
1.1231671554252198
1.121212121212121
1.1202346041055715
1.1192570869990224
1.1173020527859236
1.1124144672531768
1.104594330400782
1.096774193548387
1.0918866080156402
1.0909090909090908
1.1006842619745845
1.1241446725317692
1.166177908113392
1.2346041055718475
1.3333333333333333
1.4613880742913
1.6129032258064515
1.780058651026393
1.95405669599218
2.124144672531769
2.281524926686217
2.421309872922776
2.5376344086021505
2.631476050830889
2.6940371456500487
2.736070381231672
2.7702834799608995
2.792766373411535
2.8054740957966766
2.809384164222874
2.803519061583578
2.789833822091887
2.76930596285435
2.742913000977517
2.7145650048875853
2.6852394916911044
2.654936461388074
2.6207233626588464
2.5806451612903225
2.536656891495601
2.487781036168133
2.43108504398827
2.367546432062561
2.297165200391007
2.218963831867057
2.134897360703812
2.04594330400782
1.9530791788856303
1.8602150537634408
1.780058651026393
1.7086999022482894
1.635386119257087
1.5679374389051808
1.5102639296187683
1.4623655913978495
1.426197458455523
1.401759530791789
1.3841642228739004
1.3724340175953078
1.3665689149560116
1.3626588465298142
1.359726295210166
1.3577712609970674
1.35386119257087
1.3479960899315735
1.3421309872922775
1.335288367546432
1.3255131964809383
1.3128054740957966
1.2981427174975562
1.2825024437927663
1.2658846529814272
1.2473118279569892
1.23069403714565
1.2179863147605083
1.2072336265884651
1.1945259042033236
1.1798631476050832
1.164222873900293
1.1466275659824048
1.1270772238514175
1.1085043988269794
1.0909090909090908
1.0742913000977516
1.0576735092864125
1.0420332355816226
1.032258064516129
1.024437927663734
1.0146627565982405
1.0058651026392962
0.9990224828934506
0.9931573802541545
0.9872922776148584
0.981427174975562
0.9765395894428152
0.9726295210166178
0.9706744868035192
0.967741935483871
0.9657869012707724
0.9667644183773216
0.9687194525904204
0.9687194525904204
0.9687194525904204
0.9687194525904204
0.9696969696969696
0.9726295210166178
0.9775171065493646
0.9824046920821116
0.9872922776148584
0.9921798631476052
1.0
1.0146627565982405
1.0420332355816226
1.0928641251221896
1.1749755620723363
1.3362658846529814
1.504398826979472
1.6383186705767352
1.8054740957966764
1.9872922776148585
2.167155425219941
2.335288367546432
2.4838709677419355
2.6099706744868034
2.7008797653958942
2.763440860215054
2.8152492668621703
2.8533724340175954
2.877810361681329
2.8914956011730206
2.8963831867057674
2.895405669599218
2.887585532746823
2.8729227761485827
2.854349951124145
2.832844574780059
2.806451612903226
2.776148582600196
2.740957966764418
2.701857282502444
2.6578690127077222
2.6080156402737047
2.552297165200391
2.4887585532746823
2.419354838709677
2.345063538611926
2.2639296187683287
2.1788856304985336
2.0928641251221896
2.0175953079178885
1.948191593352884
1.8758553274682308
1.8074291300097751
1.747800586510264
1.6979472140762464
1.656891495601173
1.624633431085044
1.5992179863147604
1.5786901270772238
1.560117302052786
1.543499511241447
1.5317693059628543
1.521994134897361
1.5131964809384164
1.504398826979472
1.4946236559139785
1.4838709677419355
1.4721407624633431
1.4594330400782014
1.447702834799609
1.434017595307918
1.4193548387096775
1.4037145650048877
1.3861192570869991
1.380254154447703
1.3812316715542523
1.3734115347018572
1.3616813294232648
1.3479960899315735
1.332355816226784
1.316715542521994
1.3010752688172045
1.2864125122189638
1.2727272727272727
1.2580645161290325
1.2434017595307918
1.2336265884652982
1.2258064516129032
1.2179863147605083
1.2130987292277615
1.2111436950146628
1.2082111436950147
1.2043010752688172
1.1994134897360704
1.1925708699902249
1.1837732160312806
1.173998044965787
1.164222873900293
1.1544477028347997
1.147605083088954
1.142717497556207
1.1348973607038124
1.1290322580645162
1.126099706744868
1.126099706744868
1.1270772238514175
1.1290322580645162
1.130987292277615
1.1319648093841643
1.1329423264907137
1.1368523949169111
1.1495601173020529
1.173998044965787
1.2160312805474096
1.2864125122189638
1.3870967741935485
1.517106549364614
1.6715542521994136
1.839687194525904
2.013685239491691
2.182795698924731
2.3382209188660803
2.4750733137829912
2.5777126099706744
2.653958944281525
2.721407624633431
2.777126099706745
2.8181818181818183
2.843597262952102
2.8563049853372435
2.860215053763441
2.8582600195503423
2.850439882697948
2.8377321603128056
2.820136852394917
2.798631476050831
2.771260997067449
2.7419354838709675
2.7096774193548385
2.673509286412512
2.632453567937439
2.5855327468230693
2.5317693059628543
2.449657869012708
2.3704789833822093
2.30791788856305
2.2297165200391005
2.1436950146627565
2.0664711632453567
1.9931573802541545
1.9120234604105573
1.83088954056696
1.7526881720430108
1.6823069403714566
1.619745845552297
1.5679374389051808
1.5239491691104594
1.4887585532746823
1.4623655913978495
1.4418377321603129
1.426197458455523
1.4164222873900294
1.4086021505376345
1.3988269794721409
1.3890518084066472
1.380254154447703
1.3714565004887584
1.3607038123167154
1.3470185728250244
1.332355816226784
1.316715542521994
1.3010752688172045
1.2854349951124144
1.273704789833822
1.2639296187683284
1.2502443792766371
1.2355816226783969
1.2218963831867058
1.209188660801564
1.1964809384164223
1.1837732160312806
1.1720430107526882
1.160312805474096
1.1495601173020529
1.13880742913001
1.1270772238514175
1.118279569892473
1.1114369501466277
1.1006842619745845
1.0899315738025417
1.0791788856304985
1.0684261974584557
1.0576735092864125
1.0488758553274682
1.0420332355816226
1.035190615835777
1.029325513196481
1.0263929618768328
1.029325513196481
1.0332355816226784
1.0342130987292275
1.0312805474095796
1.0303030303030305
1.029325513196481
1.029325513196481
1.032258064516129
1.0361681329423265
1.0391006842619743
1.0410557184750733
1.0420332355816226
1.0420332355816226
1.0449657869012707
1.050830889540567
1.06158357771261
1.0879765395894427
1.1368523949169111
1.2140762463343109
1.3235581622678396
1.4633431085043989
1.6256109481915937
1.8005865102639296
1.978494623655914
2.1495601173020527
2.2883675464320627
2.40078201368524
2.506353861192571
2.5962854349951123
2.668621700879765
2.724340175953079
2.7614858260019552
2.782991202346041
2.791788856304985
2.790811339198436
2.7810361681329425
2.764418377321604
2.740957966764418
2.7145650048875853
2.6852394916911044
2.652003910068426
2.6158357771261
2.575757575757576
2.5347018572825024
2.489736070381232
2.439882697947214
2.3822091886608017
2.317693059628544
2.2482893450635384
2.1730205278592374
2.103616813294233
2.040078201368524
1.9716520039100685
1.9042033235581624
1.8387096774193548
1.7781036168132942
1.726295210166178
1.6842619745845553
1.6520039100684265
1.6275659824046922
1.6109481915933528
1.6001955034213098
1.5933528836754642
1.5913978494623655
1.590420332355816
1.587487781036168
1.5835777126099706
1.5786901270772238
1.573802541544477
1.56891495601173
1.5610948191593352
1.5503421309872922
1.5395894428152492
1.525904203323558
1.5141739980449658
1.5083088954056696
1.5024437927663734
1.4936461388074291
1.4838709677419355
1.474095796676442
1.4633431085043989
1.452590420332356
1.4428152492668622
1.43108504398827
1.4173998044965788
1.401759530791789
1.3861192570869991
1.3714565004887584
1.3616813294232648
1.3558162267839686
1.3499511241446724
1.3440860215053765
1.3391984359726294
1.3333333333333333
1.3255131964809383
1.3157380254154447
1.3088954056695992
1.3020527859237536
1.2961876832844574
1.2913000977517106
1.2883675464320623
1.2873900293255132
1.2834799608993157
1.2795698924731185
1.2746823069403714
1.2697947214076246
