ppg
2.8132942326490715
2.779081133919844
2.7390029325513194
2.69208211143695
2.6422287390029324
2.589442815249267
2.525904203323558
2.453567937438905
2.3734115347018574
2.2873900293255134
2.198435972629521
2.1094819159335287
2.021505376344086
1.9374389051808407
1.858260019550342
1.7878787878787878
1.7311827956989247
1.6842619745845553
1.6392961876832846
1.5992179863147604
1.563049853372434
1.533724340175953
1.509286412512219
1.4868035190615836
1.466275659824047
1.444770283479961
1.4242424242424243
1.4027370478983383
1.3812316715542523
1.3636363636363635
1.3479960899315735
1.3304007820136852
1.3118279569892473
1.29227761485826
1.2727272727272727
1.2531769305962854
1.2346041055718475
1.217008797653959
1.198435972629521
1.1798631476050832
1.1622678396871946
1.1495601173020529
1.13880742913001
1.126099706744868
1.1133919843597262
1.1006842619745845
1.0879765395894427
1.0762463343108504
1.0654936461388074
1.0576735092864125
1.0498533724340176
1.043010752688172
1.0361681329423265
1.029325513196481
1.0263929618768328
1.024437927663734
1.0205278592375366
1.0156402737047898
1.0117302052785924
1.0087976539589445
1.0058651026392962
1.002932551319648
1.002932551319648
1.0039100684261977
1.0048875855327468
1.0068426197458455
1.010752688172043
1.0156402737047898
1.0175953079178883
1.018572825024438
1.0195503421309873
1.0195503421309873
1.0195503421309873
1.0175953079178883
1.0146627565982405
1.0117302052785924
1.0087976539589445
1.0068426197458455
1.0097751710654936
1.0224828934506354
1.050830889540567
1.1055718475073313
1.1945259042033236
1.3176930596285434
1.4701857282502444
1.6451612903225807
1.8328445747800584
2.0205278592375366
2.1974584555229715
2.358748778103617
2.498533724340176
2.601173020527859
2.677419354838709
2.7468230694037143
2.803519061583578
2.84652981427175
2.877810361681329
2.898338220918866
2.909090909090909
2.9120234604105573
2.90811339198436
2.898338220918866
2.881720430107527
2.859237536656892
2.832844574780059
2.803519061583578
2.771260997067449
2.7331378299120237
2.689149560117302
2.6373411534701856
2.576735092864125
2.506353861192571
2.4281524926686218
2.345063538611926
2.257086999022483
2.167155425219941
2.0869990224828934
2.0146627565982405
1.9393939393939397
1.868035190615836
1.8035190615835777
1.747800586510264
1.7008797653958945
1.6627565982404693
1.632453567937439
1.607038123167155
1.5835777126099706
1.5610948191593352
1.541544477028348
1.525904203323558
1.5112414467253177
1.4946236559139785
1.4760508308895406
1.458455522971652
1.4408602150537635
1.4242424242424243
1.409579667644184
1.3958944281524928
1.383186705767351
1.3714565004887584
1.3587487781036167
1.3479960899315735
1.3391984359726294
1.3284457478005864
1.316715542521994
1.305962854349951
1.295210166177908
1.2854349951124144
1.2756598240469208
1.267839687194526
1.2609970674486803
1.2541544477028348
1.2482893450635386
1.2443792766373412
1.2443792766373412
1.2453567937438903
1.24633431085044
1.24633431085044
1.24633431085044
1.24633431085044
1.24633431085044
1.24633431085044
1.24633431085044
1.24633431085044
1.2473118279569892
1.249266862170088
1.2541544477028348
1.2590420332355816
1.2639296187683284
1.2688172043010753
1.273704789833822
1.278592375366569
1.2834799608993157
1.2883675464320623
1.29227761485826
1.2942326490713587
1.295210166177908
1.2942326490713587
1.289345063538612
1.2854349951124144
1.2834799608993157
1.284457478005865
1.2971652003910068
1.3304007820136852
1.3919843597262953
1.4848484848484849
1.608993157380254
1.7702834799608993
1.9579667644183771
2.1485826001955037
2.332355816226784
2.4809384164222874
2.6021505376344085
2.720430107526881
2.8240469208211145
2.9071358748778104
2.9716520039100685
3.018572825024438
3.0498533724340176
3.067448680351906
3.074291300097752
3.070381231671554
3.058651026392962
3.040078201368524
3.01564027370479
2.9872922776148583
2.956989247311828
2.9237536656891496
2.884652981427175
2.8406647116324537
2.789833822091887
2.7311827956989245
2.665689149560117
2.592375366568915
2.512218963831867
2.426197458455523
2.345063538611926
2.2658846529814274
2.1788856304985336
2.088954056695992
2.0009775171065494
1.919843597262952
1.8465298142717497
1.7820136852394917
1.7253176930596286
1.6774193548387095
1.6363636363636365
1.6021505376344083
1.5728250244379276
1.5513196480938416
1.533724340175953
1.5151515151515151
1.4946236559139785
1.4721407624633431
1.447702834799609
1.4242424242424243
1.4007820136852396
1.3773216031280548
1.35386119257087
1.332355816226784
1.310850439882698
1.2942326490713587
1.2805474095796676
1.2619745845552297
1.241446725317693
1.2218963831867058
1.2023460410557183
1.1827956989247312
1.1652003910068427
1.147605083088954
1.130987292277615
1.1163245356793745
1.1016617790811338
1.0928641251221896
1.088954056695992
1.0821114369501466
1.0742913000977516
1.0654936461388074
1.0576735092864125
1.050830889540567
1.0439882697947214
1.0371456500488758
1.0303030303030305
1.0234604105571847
1.0175953079178883
1.013685239491691
1.0146627565982405
1.0175953079178883
1.018572825024438
1.0195503421309873
1.0195503421309873
1.0195503421309873
1.0195503421309873
1.0195503421309873
1.0195503421309873
1.0195503421309873
1.0195503421309873
1.0195503421309873
1.0224828934506354
1.024437927663734
1.0224828934506354
1.0175953079178883
1.013685239491691
1.0127077223851415
1.0195503421309873
1.0420332355816226
1.0899315738025417
1.1720430107526882
1.289345063538612
1.439882697947214
1.6148582600195502
1.7790811339198436
1.935483870967742
2.10752688172043
2.27761485826002
2.4330400782013686
2.5669599217986314
2.677419354838709
2.766373411534702
2.835777126099707
2.886608015640274
2.9227761485826003
2.946236559139785
2.9550342130987293
2.9530791788856305
2.9501466275659824
2.943304007820137
2.9315738025415445
2.9159335288367547
2.8963831867057674
2.870967741935484
2.8396871945259043
2.801564027370479
2.755620723362659
2.7008797653958942
2.6392961876832843
2.576735092864125
2.5102639296187683
2.432062561094819
2.347018572825025
2.2561094819159337
2.1622678396871944
2.067448680351906
1.9765395894428155
1.8905180840664717
1.812316715542522
1.7419354838709675
1.6823069403714566
1.6373411534701858
1.6011730205278591
1.5669599217986314
1.5366568914956011
1.509286412512219
1.482893450635386
1.457478005865103
1.434017595307918
1.4105571847507332
1.3870967741935485
1.3636363636363635
1.3401759530791788
1.3196480938416422
1.3040078201368523
1.2913000977517106
1.2756598240469208
1.2580645161290325
1.2394916911045943
1.2218963831867058
1.2043010752688172
1.187683284457478
1.1710654936461389
1.1544477028347997
1.1397849462365592
1.1270772238514175
1.1202346041055715
1.115347018572825
1.1065493646138806
1.096774193548387
1.086021505376344
1.0762463343108504
1.0684261974584557
1.06158357771261
1.0547409579667644
1.0488758553274682
1.0449657869012707
1.043010752688172
1.0420332355816226
1.0439882697947214
1.0478983382209188
1.0498533724340176
1.050830889540567
1.050830889540567
1.0518084066471165
1.0547409579667644
1.0596285434995112
1.0654936461388074
1.0713587487781036
1.078201368523949
1.0850439882697946
1.0928641251221896
1.1016617790811338
1.110459433040078
1.1192570869990224
1.126099706744868
1.130987292277615
1.1319648093841643
1.130987292277615
1.1300097751710656
1.1329423264907137
1.1505376344086022
1.1915933528836755
1.2639296187683284
1.3509286412512218
1.4594330400782014
1.608993157380254
1.7878787878787878
1.9824046920821117
2.179863147605083
2.3685239491691106
2.539589442815249
2.6881720430107525
2.812316715542522
2.9120234604105573
2.988269794721408
3.038123167155425
3.0684261974584555
3.0948191593352883
3.113391984359726
3.124144672531769
3.126099706744868
3.121212121212121
3.110459433040078
3.0957966764418376
3.075268817204301
3.0498533724340176
3.0195503421309877
2.98435972629521
2.9442815249266863
2.898338220918866
2.844574780058651
2.782013685239492
2.7096774193548385
2.627565982404692
2.5376344086021505
2.441837732160313
2.3440860215053765
2.247311827956989
2.15347018572825
2.065493646138808
1.994134897360704
1.9345063538611929
1.878787878787879
1.827956989247312
1.782991202346041
1.7448680351906158
1.7116324535679377
1.6813294232649072
1.6549364613880744
1.632453567937439
1.6109481915933528
1.5884652981427174
1.565982404692082
1.5483870967741935
1.5327468230694037
1.5053763440860215
1.4721407624633431
1.4457478005865103
1.423264907135875
1.4027370478983383
1.3822091886608017
1.3616813294232648
1.3401759530791788
1.3196480938416422
1.300097751710655
1.2834799608993157
1.267839687194526
1.2502443792766371
1.2316715542521994
1.2140762463343109
1.1974584555229717
1.1837732160312806
1.1710654936461389
1.1583577712609971
1.1456500488758554
1.1319648093841643
1.118279569892473
1.1094819159335287
1.1026392961876832
1.093841642228739
1.0869990224828934
1.0811339198435972
1.075268817204301
1.0713587487781036
1.067448680351906
1.0635386119257086
1.0596285434995112
1.056695992179863
1.0557184750733135
1.0547409579667644
1.056695992179863
1.0606060606060606
1.0625610948191593
1.064516129032258
1.0654936461388074
1.0664711632453567
1.0664711632453567
1.0654936461388074
1.06158357771261
1.056695992179863
1.0527859237536656
1.056695992179863
1.0703812316715542
1.1006842619745845
1.1564027370478984
1.2424242424242424
1.3607038123167154
1.5083088954056696
1.6774193548387095
1.857282502443793
2.0361681329423265
2.204301075268817
2.35386119257087
2.4819159335288368
2.5884652981427174
2.662756598240469
2.7145650048875853
2.758553274682307
2.792766373411535
2.8181818181818183
2.833822091886608
2.8396871945259043
2.838709677419355
2.831867057673509
2.819159335288368
2.8025415444770285
2.780058651026393
2.7536656891495603
2.7223851417399803
2.6881720430107525
2.650048875855328
2.606060606060606
2.5562072336265884
2.498533724340176
2.43108504398827
2.355816226783969
2.2737047898338223
2.1867057673509285
2.0977517106549364
2.0087976539589443
1.9315738025415443
1.8631476050830889
1.7927663734115349
1.7253176930596286
1.6656891495601174
1.6129032258064515
1.5679374389051808
1.530791788856305
1.499511241446725
1.4711632453567938
1.444770283479961
1.4213098729227762
1.4027370478983383
1.3870967741935485
1.3695014662756595
1.3509286412512218
1.3304007820136852
1.3098729227761483
1.2903225806451613
1.270772238514174
1.2512218963831867
1.2316715542521994
1.2121212121212122
1.1906158357771262
1.1700879765395895
1.155425219941349
1.1436950146627567
1.1300097751710656
1.115347018572825
1.1016617790811338
1.088954056695992
1.0762463343108504
1.0625610948191593
1.0488758553274682
1.035190615835777
0.9941348973607038
0.9931573802541545
0.9941348973607038
0.9960899315738024
0.997067448680352
0.9990224828934506
1.0087976539589445
1.0381231671554252
1.0928641251221896
1.1798631476050832
1.3010752688172045
1.452590420332356
1.6265884652981428
1.812316715542522
1.9990224828934504
2.155425219941349
2.2854349951124147
2.4144672531769307
2.5288367546432062
2.624633431085044
2.699902248289345
2.7565982404692084
2.798631476050831
2.827956989247312
2.8455522971652005
2.854349951124145
2.855327468230694
2.8475073313782997
2.831867057673509
2.8132942326490715
2.791788856304985
2.766373411534702
2.736070381231672
2.701857282502444
2.662756598240469
2.618768328445748
2.567937438905181
2.509286412512219
2.443792766373412
2.3704789833822093
2.2981427174975564
2.2238514173998043
2.1388074291300097
2.0498533724340176
1.959921798631476
1.8729227761485825
1.7927663734115349
1.721407624633431
1.6588465298142718
1.6050830889540566
1.5591397849462365
1.521016617790811
1.4936461388074291
1.4711632453567938
1.4467253176930597
1.423264907135875
1.4027370478983383
1.3812316715542523
1.3607038123167154
1.3411534701857282
1.321603128054741
1.3020527859237536
1.2825024437927663
1.2639296187683284
1.2443792766373412
1.2297165200391007
1.217008797653959
1.203323558162268
1.187683284457478
1.1710654936461389
1.1544477028347997
1.13880742913001
1.1231671554252198
1.10752688172043
1.0948191593352885
1.086021505376344
1.078201368523949
1.0742913000977516
1.072336265884653
1.0664711632453567
1.0576735092864125
1.0488758553274682
1.0391006842619743
1.029325513196481
1.021505376344086
1.013685239491691
1.0087976539589445
1.0058651026392962
1.0048875855327468
1.0039100684261977
1.0058651026392962
1.0097751710654936
1.0117302052785924
1.0127077223851415
1.0146627565982405
1.0175953079178883
1.0205278592375366
1.024437927663734
1.029325513196481
1.035190615835777
1.0410557184750733
1.0478983382209188
1.0547409579667644
1.0606060606060606
1.0635386119257086
1.064516129032258
1.064516129032258
1.0664711632453567
1.0772238514173995
1.1055718475073313
1.160312805474096
1.260019550342131
1.4027370478983383
1.5698924731182795
1.7302052785923754
1.8885630498533723
2.069403714565005
2.2531769305962857
2.426197458455523
2.579667644183773
2.710654936461388
2.8181818181818183
2.9012707722385143
2.962854349951124
3.007820136852395
3.038123167155425
3.058651026392962
3.065493646138808
3.0625610948191597
3.0576735092864125
3.048875855327468
3.034213098729228
3.01564027370479
2.992179863147605
2.962854349951124
2.927663734115347
2.886608015640274
2.838709677419355
2.7839687194525906
2.7262952101661777
2.664711632453568
2.593352883675464
2.512218963831867
2.4242424242424243
2.334310850439883
2.244379276637341
2.157380254154448
2.0762463343108504
2.002932551319648
1.93841642228739
1.8826979472140764
1.8347996089931573
1.7976539589442817
1.7673509286412512
1.7380254154447703
1.7096774193548387
1.683284457478006
1.6598240469208212
1.6373411534701858
1.6158357771260996
1.5943304007820136
1.5728250244379276
1.552297165200391
1.5317693059628543
1.5141739980449658
1.4975562072336266
1.478005865102639
1.457478005865103
1.436950146627566
1.4164222873900294
1.393939393939394
1.3724340175953078
1.3509286412512218
1.3313782991202343
1.3118279569892473
1.2942326490713587
1.278592375366569
1.2668621700879763
1.2561094819159335
1.2453567937438903
1.2326490713587488
1.219941348973607
1.2003910068426198
1.187683284457478
1.1759530791788857
1.155425219941349
1.1456500488758554
1.1378299120234605
1.133919843597263
1.1290322580645162
1.1241446725317692
1.121212121212121
1.1192570869990224
1.1163245356793745
1.1143695014662756
1.1124144672531768
1.1094819159335287
1.10752688172043
1.1065493646138806
1.1055718475073313
1.10752688172043
1.1114369501466277
1.1143695014662756
1.1163245356793745
1.118279569892473
1.1202346041055715
1.1202346041055715
1.1173020527859236
1.1124144672531768
1.1085043988269794
1.1114369501466277
1.1300097751710656
1.163245356793744
1.217008797653959
1.305962854349951
1.4320625610948192
1.5913978494623655
1.7741935483870968
1.967741935483871
2.161290322580645
2.423264907135875
2.572825024437928
2.697947214076246
2.843597262952102
2.902248289345064
2.9393939393939394
2.970674486803519
2.9931573802541545
3.005865102639296
3.0117302052785924
3.0117302052785924
3.0009775171065494
2.988269794721408
2.9687194525904204
2.9315738025415445
2.900293255131965
2.8641251221896384
2.823069403714565
2.7751710654936463
2.720430107526881
2.656891495601173
2.5835777126099706
2.5024437927663734
2.41544477028348
2.321603128054741
2.222873900293255
2.124144672531769
2.0283479960899315
1.948191593352884
1.878787878787879
1.8093841642228736
1.7458455522971652
1.6901270772238517
1.643206256109482
1.603128054740958
1.56891495601173
1.5386119257087
1.5102639296187683
1.482893450635386
1.4594330400782014
1.4418377321603129
1.426197458455523
1.4086021505376345
1.391006842619746
1.3724340175953078
1.3528836754643203
1.3333333333333333
1.3128054740957966
1.2913000977517106
1.267839687194526
1.2443792766373412
1.2228739002932552
1.2023460410557183
1.187683284457478
1.1749755620723363
1.1593352883675463
1.1436950146627567
1.1290322580645162
1.115347018572825
1.1016617790811338
1.0879765395894427
1.0742913000977516
1.0606060606060606
1.0478983382209188
1.0381231671554252
1.0332355816226784
1.0303030303030305
1.0263929618768328
1.0224828934506354
1.0195503421309873
1.0156402737047898
1.0127077223851415
1.0087976539589445
1.0058651026392962
1.002932551319648
1.0019550342130987
1.0019550342130987
1.0039100684261977
1.0087976539589445
1.0156402737047898
1.0205278592375366
1.024437927663734
1.0273704789833822
1.029325513196481
1.0303030303030305
1.0303030303030305
1.0303030303030305
1.029325513196481
1.0273704789833822
1.0254154447702837
1.0254154447702837
1.0283479960899315
1.0342130987292275
1.0557184750733135
1.1016617790811338
1.1798631476050832
1.2942326490713587
1.4428152492668622
1.616813294232649
1.8064516129032255
1.9990224828934504
2.1847507331378297
2.35386119257087
2.4838709677419355
2.5835777126099706
2.675464320625611
2.752688172043011
2.8152492668621703
2.86217008797654
2.8944281524926687
2.913978494623656
2.9227761485826003
2.921798631476051
2.9149560117302054
2.903225806451613
2.8856304985337244
2.8641251221896384
2.8396871945259043
2.812316715542522
2.782991202346041
2.7497556207233624
2.7096774193548385
2.659824046920821
2.60019550342131
2.5317693059628543
2.455522971652004
2.3704789833822093
2.290322580645161
2.212121212121212
2.1251221896383186
2.0361681329423265
1.949169110459433
1.869012707722385
1.7976539589442817
1.7350928641251222
1.6823069403714566
1.6373411534701858
1.5992179863147604
1.56891495601173
1.543499511241447
1.5239491691104594
1.5073313782991202
1.4887585532746823
1.466275659824047
1.4428152492668622
1.4222873900293256
1.404692082111437
1.3870967741935485
1.3695014662756595
1.3528836754643203
1.3372434017595307
1.321603128054741
1.3098729227761483
1.300097751710655
1.289345063538612
1.2776148582600195
1.2649071358748778
1.252199413489736
1.2404692082111437
1.2297165200391007
1.2189638318670577
1.209188660801564
1.1994134897360704
1.1896383186705768
1.1798631476050832
1.1730205278592376
1.1691104594330402
1.1652003910068427
1.1612903225806452
1.1573802541544478
1.155425219941349
1.1564027370478984
1.1583577712609971
1.1612903225806452
1.164222873900293
1.1671554252199414
1.1700879765395895
1.1749755620723363
1.1808406647116323
1.18475073313783
1.1896383186705768
1.195503421309873
1.2013685239491692
1.2082111436950147
1.217008797653959
1.224828934506354
1.2326490713587488
1.2394916911045943
1.24633431085044
1.252199413489736
1.260019550342131
1.267839687194526
1.273704789833822
1.2776148582600195
1.2795698924731185
1.2825024437927663
1.2913000977517106
1.3147605083088951
1.3587487781036167
1.43108504398827
1.5376344086021505
1.675464320625611
1.8132942326490715
1.9550342130987293
2.121212121212121
2.2932551319648096
2.4565004887585533
2.6041055718475072
2.730205278592375
2.832844574780059
2.9120234604105573
2.970674486803519
3.010752688172043
3.0361681329423265
3.047898338220919
3.04594330400782
3.035190615835777
3.022482893450636
3.005865102639296
2.986314760508309
2.962854349951124
2.936461388074292
2.9071358748778104
2.873900293255132
2.834799608993157
2.787878787878788
2.7341153470185726
2.677419354838709
2.616813294232649
2.5454545454545454
2.464320625610948
2.376344086021505
2.283479960899316
2.190615835777126
2.099706744868035
2.0127077223851417
1.9345063538611929
1.8641251221896384
1.8035190615835777
1.7517106549364614
1.7126099706744868
1.6803519061583578
1.6500488758553276
1.6226783968719452
1.598240469208211
1.5747800586510263
1.552297165200391
1.530791788856305
1.5083088954056696
1.4848484848484849
1.4613880742913
1.4379276637341154
1.4203323558162269
1.404692082111437
1.3861192570869991
1.3665689149560116
1.3470185728250244
1.327468230694037
1.3079178885630498
1.2883675464320623
1.2688172043010753
1.2502443792766371
1.2336265884652982
1.2179863147605083
1.2043010752688172
1.195503421309873
1.1896383186705768
1.1798631476050832
1.1691104594330402
1.1583577712609971
1.1485826001955035
1.13880742913001
1.130987292277615
1.1241446725317692
1.118279569892473
1.1143695014662756
1.1114369501466277
1.1114369501466277
1.1124144672531768
1.1114369501466277
1.1094819159335287
1.1065493646138806
1.104594330400782
1.1016617790811338
1.099706744868035
1.0987292277614855
1.0977517106549364
1.0977517106549364
1.0977517106549364
1.0977517106549364
1.099706744868035
1.1036168132942326
1.1055718475073313
1.1055718475073313
1.1026392961876832
1.0987292277614855
1.0948191593352885
1.0957966764418376
1.1065493646138806
1.1358748778103618
1.1935483870967742
1.284457478005865
1.3870967741935485
1.5063538611925709
1.66177908113392
1.8387096774193548
2.0205278592375366
2.1945259042033234
2.3519061583577714
2.486803519061584
2.598240469208211
2.687194525904203
2.7546432062561097
2.803519061583578
2.838709677419355
2.8563049853372435
2.86217008797654
2.865102639296188
2.8641251221896384
2.8582600195503423
2.8484848484848486
2.833822091886608
2.8132942326490715
2.787878787878788
2.758553274682307
2.724340175953079
2.6852394916911044
2.644183773216031
2.5972629521016617
2.541544477028348
2.4760508308895406
2.401759530791789
2.3196480938416424
2.23069403714565
2.1388074291300097
2.046920821114369
1.9579667644183771
1.8729227761485825
1.793743890518084
1.7302052785923754
1.678396871945259
1.6285434995112416
1.58455522971652
1.547409579667644
1.5161290322580645
1.4897360703812317
1.4652981427174976
1.4428152492668622
1.4222873900293256
1.4007820136852396
1.3792766373411536
1.3577712609970674
1.3411534701857282
1.327468230694037
1.310850439882698
1.2932551319648091
1.2746823069403714
1.2561094819159335
1.2375366568914956
1.217008797653959
1.195503421309873
1.1730205278592376
1.152492668621701
1.1348973607038124
1.121212121212121
1.110459433040078
1.0977517106549364
1.0850439882697946
1.0713587487781036
1.0586510263929618
1.0469208211143697
1.0361681329423265
1.0283479960899315
1.0205278592375366
1.013685239491691
1.007820136852395
1.002932551319648
1.002932551319648
1.0039100684261977
1.002932551319648
1.0009775171065494
0.997067448680352
0.9912023460410556
0.9872922776148584
0.9833822091886608
0.981427174975562
0.9824046920821116
0.9843597262952102
0.9863147605083088
0.9921798631476052
0.9990224828934506
1.0058651026392962
1.013685239491691
1.021505376344086
1.0283479960899315
1.0342130987292275
1.0371456500488758
1.0381231671554252
1.0381231671554252
1.0410557184750733
1.04594330400782
1.0518084066471165
1.064516129032258
1.0909090909090908
1.13880742913001
1.2140762463343109
1.321603128054741
1.4594330400782014
1.6226783968719452
1.8005865102639296
1.981427174975562
2.155425219941349
2.313782991202346
2.452590420332356
2.555229716520039
2.631476050830889
2.7008797653958942
2.758553274682307
2.8044965786901277
2.8377321603128056
2.8582600195503423
2.868035190615836
2.8699902248289346
2.8670576735092865
2.860215053763441
2.849462365591398
2.835777126099707
2.817204301075269
2.7947214076246336
2.76930596285435
2.7390029325513194
2.701857282502444
2.6578690127077222
2.6050830889540566
2.5425219941348973
2.4711632453567938
2.3949169110459434
2.314760508308896
2.231671554252199
2.157380254154448
2.088954056695992
2.018572825024438
1.9501466275659824
1.8885630498533723
1.8347996089931573
1.7898338220918866
1.7517106549364614
1.7204301075268815
1.694037145650049
1.672531769305963
1.6549364613880744
1.6392961876832846
1.6275659824046922
1.616813294232649
1.6041055718475072
1.5894428152492668
1.5747800586510263
1.5591397849462365
1.544477028347996
1.5298142717497556
1.5141739980449658
1.498533724340176
1.4819159335288368
1.4643206256109482
1.4496578690127078
1.4379276637341154
1.4242424242424243
