ppg
1.4623655913978495
1.6050830889540566
1.7839687194525904
1.9824046920821117
2.185728250244379
2.3812316715542523
2.557184750733138
2.704789833822092
2.8211143695014664
2.9042033235581624
2.956989247311828
2.983382209188661
2.986314760508309
2.972629521016618
2.949169110459433
2.918866080156403
2.881720430107527
2.8406647116324537
2.7947214076246336
2.7438905180840663
2.687194525904203
2.6236559139784945
2.5532746823069403
2.4760508308895406
2.393939393939394
2.3167155425219943
2.242424242424242
2.163245356793744
2.083088954056696
2.0087976539589443
1.9413489736070384
1.881720430107527
1.8328445747800584
1.7927663734115349
1.7605083088954057
1.7360703812316716
1.7174975562072337
1.7028347996089932
1.6901270772238517
1.6764418377321604
1.6627565982404693
1.6471163245356797
1.6275659824046922
1.6041055718475072
1.5786901270772238
1.5503421309872922
1.521016617790811
1.4897360703812317
1.455522971652004
1.4193548387096775
1.388074291300098
1.359726295210166
1.327468230694037
1.295210166177908
1.2649071358748778
1.2365591397849462
1.2101661779081134
1.1867057673509287
1.166177908113392
1.1495601173020529
1.133919843597263
1.1192570869990224
1.1094819159335287
1.104594330400782
1.0987292277614855
1.0928641251221896
1.0879765395894427
1.0840664711632453
1.0801564027370478
1.0762463343108504
1.0713587487781036
1.0664711632453567
1.06158357771261
1.0557184750733135
1.0498533724340176
1.0469208211143697
1.04594330400782
1.0420332355816226
1.0371456500488758
1.032258064516129
1.0273704789833822
1.024437927663734
1.0224828934506354
1.021505376344086
1.021505376344086
1.021505376344086
1.0234604105571847
1.0312805474095796
1.0478983382209188
1.078201368523949
1.1280547409579669
1.203323558162268
1.305962854349951
1.435972629521017
1.590420332355816
1.7624633431085044
1.9413489736070384
2.117302052785924
2.278592375366569
2.418377321603128
2.520039100684262
2.591397849462365
2.649071358748778
2.686217008797654
2.7038123167155423
2.705767350928641
2.695014662756598
2.674486803519061
2.6480938416422286
2.618768328445748
2.5884652981427174
2.558162267839687
2.5249266862170088
2.4887585532746823
2.44672531769306
2.3978494623655915
2.3421309872922778
2.2795698924731185
2.2140762463343107
2.1485826001955037
2.0879765395894427
2.035190615835777
1.989247311827957
1.9530791788856303
1.924731182795699
1.903225806451613
1.8866080156402736
1.871945259042033
1.857282502443793
1.842619745845552
1.825024437927664
1.8054740957966764
1.7810361681329423
1.7526881720430108
1.721407624633431
1.6871945259042034
1.6520039100684265
1.619745845552297
1.590420332355816
1.5591397849462365
1.525904203323558
1.4926686217008798
1.4604105571847508
1.4301075268817205
1.401759530791789
1.3773216031280548
1.3558162267839686
1.3362658846529814
1.3206256109481915
1.3069403714565004
1.2981427174975562
1.29227761485826
1.2883675464320623
1.2864125122189638
1.2854349951124144
1.2854349951124144
1.2864125122189638
1.2883675464320623
1.289345063538612
1.289345063538612
1.289345063538612
1.2883675464320623
1.2883675464320623
1.2864125122189638
1.2805474095796676
1.2727272727272727
1.2609970674486803
1.24633431085044
1.2297165200391007
1.2111436950146628
1.1915933528836755
1.1720430107526882
1.152492668621701
1.1329423264907137
1.1192570869990224
1.10752688172043
1.0928641251221896
1.0772238514173995
1.0625610948191593
1.0488758553274682
1.0371456500488758
1.0273704789833822
1.0205278592375366
1.0166177908113392
1.0146627565982405
1.0156402737047898
1.0175953079178883
1.0224828934506354
1.029325513196481
1.035190615835777
1.0410557184750733
1.0469208211143697
1.053763440860215
1.0625610948191593
1.0703812316715542
1.0772238514173995
1.0840664711632453
1.088954056695992
1.0899315738025417
1.0918866080156402
1.0909090909090908
1.0850439882697946
1.0772238514173995
1.072336265884653
1.0762463343108504
1.0948191593352885
1.1368523949169111
1.209188660801564
1.3176930596285434
1.4643206256109482
1.6422287390029326
1.8435972629521016
2.027370478983382
2.198435972629521
2.3822091886608017
2.557184750733138
2.7096774193548385
2.831867057673509
2.9227761485826003
2.98435972629521
3.018572825024438
3.03128054740958
3.027370478983382
3.0097751710654936
2.9824046920821115
2.949169110459433
2.9120234604105573
2.8690127077223853
2.8211143695014664
2.7673509286412514
2.70772238514174
2.641251221896383
2.567937438905181
2.4887585532746823
2.404692082111437
2.317693059628544
2.2297165200391005
2.1524926686217007
2.083088954056696
2.007820136852395
1.9364613880742916
1.8807429130009776
1.8377321603128052
1.8035190615835777
1.7761485826001957
1.7546432062561097
1.7350928641251222
1.7165200391006843
1.696969696969697
1.678396871945259
1.6598240469208212
1.6363636363636365
1.6099706744868034
1.581622678396872
1.5503421309872922
1.517106549364614
1.4819159335288368
1.444770283479961
1.4076246334310851
1.3734115347018572
1.3401759530791788
1.3088954056695992
1.284457478005865
1.262952101661779
1.2375366568914956
1.2130987292277615
1.1906158357771262
1.1700879765395895
1.1505376344086022
1.1329423264907137
1.1173020527859236
1.1055718475073313
1.0957966764418376
1.0869990224828934
1.0821114369501466
1.0791788856304985
1.075268817204301
1.0703812316715542
1.0654936461388074
1.0586510263929618
1.0518084066471165
1.043010752688172
1.0332355816226784
1.024437927663734
1.0166177908113392
1.010752688172043
1.0058651026392962
1.002932551319648
1.0019550342130987
1.0
0.9980449657869012
0.9951124144672532
0.9931573802541545
0.9902248289345064
0.9872922776148584
0.9843597262952102
0.981427174975562
0.978494623655914
0.975562072336266
0.975562072336266
0.9775171065493646
0.9775171065493646
0.9765395894428152
0.975562072336266
0.975562072336266
0.975562072336266
0.975562072336266
0.9745845552297164
0.9726295210166178
0.9696969696969696
0.9687194525904204
0.9706744868035192
0.9765395894428152
0.9902248289345064
1.0156402737047898
1.06158357771261
1.133919843597263
1.2394916911045943
1.3763440860215057
1.542521994134897
1.7302052785923754
1.9286412512218964
2.1270772238514173
2.314760508308896
2.463343108504399
2.579667644183773
2.6852394916911044
2.76930596285435
2.8289345063538613
2.865102639296188
2.8797653958944283
2.877810361681329
2.86217008797654
2.8367546432062563
2.803519061583578
2.7653958944281527
2.7223851417399803
2.677419354838709
2.6295210166177907
2.575757575757576
2.5141739980449658
2.443792766373412
2.364613880742913
2.2795698924731185
2.1925708699902247
2.1055718475073317
2.021505376344086
1.945259042033236
1.878787878787879
1.8269794721407624
1.7869012707722385
1.7526881720430108
1.726295210166178
1.7067448680351909
1.6920821114369502
1.6803519061583578
1.6695992179863148
1.6578690127077225
1.6451612903225807
1.6304985337243405
1.611925708699902
1.590420332355816
1.5679374389051808
1.5454545454545454
1.5180840664711632
1.4868035190615836
1.4535679374389052
1.418377321603128
1.383186705767351
1.3499511241446724
1.3176930596285434
1.2873900293255132
1.2580645161290325
1.23069403714565
1.209188660801564
1.1935483870967742
1.1759530791788857
1.1573802541544478
1.1407624633431086
1.1251221896383188
1.110459433040078
1.0977517106549364
1.086021505376344
1.0742913000977516
1.064516129032258
1.056695992179863
1.0498533724340176
1.04594330400782
1.0439882697947214
1.0410557184750733
1.0371456500488758
1.0342130987292275
1.0332355816226784
1.032258064516129
1.032258064516129
1.032258064516129
1.032258064516129
1.0303030303030305
1.0283479960899315
1.0283479960899315
1.0283479960899315
1.0254154447702837
1.0224828934506354
1.0195503421309873
1.0166177908113392
1.0146627565982405
1.013685239491691
1.0127077223851415
1.0127077223851415
1.0127077223851415
1.0117302052785924
1.0127077223851415
1.0146627565982405
1.013685239491691
1.0117302052785924
1.0097751710654936
1.0068426197458455
1.0039100684261977
1.0039100684261977
1.0087976539589445
1.0224828934506354
1.053763440860215
1.1094819159335287
1.1945259042033236
1.29227761485826
1.4086021505376345
1.564027370478983
1.747800586510264
1.945259042033236
2.142717497556207
2.329423264907136
2.495601173020528
2.636363636363636
2.7468230694037143
2.8260019550342133
2.875855327468231
2.897360703812317
2.8963831867057674
2.8826979472140764
2.857282502443793
2.823069403714565
2.782013685239492
2.735092864125122
2.6832844574780057
2.627565982404692
2.5669599217986314
2.5004887585532747
2.429130009775171
2.350928641251222
2.27761485826002
2.206256109481916
2.129032258064516
2.050830889540567
1.9765395894428155
1.911045943304008
1.855327468230694
1.8093841642228736
1.7732160312805474
1.7468230694037146
1.7272727272727273
1.7145650048875856
1.7057673509286413
1.696969696969697
1.6881720430107527
1.6793743890518085
1.667644183773216
1.6520039100684265
1.632453567937439
1.608993157380254
1.581622678396872
1.552297165200391
1.521016617790811
1.4868035190615836
1.452590420332356
1.4242424242424243
1.3978494623655917
1.3665689149560116
1.3343108504398826
1.303030303030303
1.273704789833822
1.2443792766373412
1.217008797653959
1.1925708699902249
1.1710654936461389
1.152492668621701
1.1368523949169111
1.1251221896383188
1.1173020527859236
1.1094819159335287
1.1036168132942326
1.0977517106549364
1.0918866080156402
1.086021505376344
1.0801564027370478
1.0742913000977516
1.078201368523949
1.0879765395894427
1.0918866080156402
1.093841642228739
1.096774193548387
1.099706744868035
1.099706744868035
1.099706744868035
1.0987292277614855
1.0977517106549364
1.096774193548387
1.096774193548387
1.096774193548387
1.0957966764418376
1.0928641251221896
1.088954056695992
1.0869990224828934
1.0850439882697946
1.0801564027370478
1.075268817204301
1.0703812316715542
1.067448680351906
1.0654936461388074
1.0635386119257086
1.0596285434995112
1.0547409579667644
1.0498533724340176
1.0449657869012707
1.0420332355816226
1.043010752688172
1.050830889540567
1.0694037145650048
1.1055718475073313
1.1681329423264908
1.2619745845552297
1.3900293255131966
1.5513196480938416
1.7390029325513197
1.9423264907135875
2.1515151515151514
2.35386119257087
2.517106549364614
2.649071358748778
2.773216031280548
2.87683284457478
2.95405669599218
3.003910068426197
3.0303030303030303
3.037145650048876
3.0283479960899315
3.005865102639296
2.9745845552297165
2.9374389051808407
2.895405669599218
2.850439882697948
2.801564027370479
2.7468230694037143
2.684261974584555
2.6158357771261
2.5405669599217986
2.458455522971652
2.3704789833822093
2.2795698924731185
2.188660801564027
2.103616813294233
2.026392961876833
1.963831867057673
1.913978494623656
1.869012707722385
1.8318670576735088
1.8025415444770283
1.780058651026393
1.761485826001955
1.7448680351906158
1.7282502443792769
1.710654936461388
1.6920821114369502
1.6715542521994136
1.6490713587487782
1.6275659824046922
1.607038123167155
1.5826001955034212
1.555229716520039
1.5249266862170088
1.4916911045943304
1.458455522971652
1.4252199413489737
1.392961876832845
1.3616813294232648
1.3313782991202343
1.3010752688172045
1.2756598240469208
1.2541544477028348
1.23069403714565
1.2072336265884651
1.1857282502443791
1.166177908113392
1.1495601173020529
1.1368523949169111
1.1280547409579669
1.1202346041055715
1.1114369501466277
1.1036168132942326
1.096774193548387
1.093841642228739
1.0918866080156402
1.0879765395894427
1.0840664711632453
1.0801564027370478
1.0762463343108504
1.0733137829912025
1.0684261974584557
1.064516129032258
1.06158357771261
1.0586510263929618
1.0557184750733135
1.053763440860215
1.0547409579667644
1.053763440860215
1.050830889540567
1.0478983382209188
1.0449657869012707
1.0420332355816226
1.0410557184750733
1.040078201368524
1.0391006842619743
1.0391006842619743
1.0391006842619743
1.0420332355816226
1.0449657869012707
1.04594330400782
1.04594330400782
1.0439882697947214
1.0420332355816226
1.0391006842619743
1.0391006842619743
1.0439882697947214
1.0596285434995112
1.0948191593352885
1.1564027370478984
1.2482893450635386
1.3519061583577712
1.4750733137829912
1.6392961876832846
1.83088954056696
2.0361681329423265
2.242424242424242
2.436950146627566
2.6099706744868034
2.755620723362659
2.8690127077223853
2.952101661779081
3.005865102639296
3.03128054740958
3.034213098729228
3.026392961876833
3.007820136852395
2.9804496578690127
2.945259042033236
2.905180840664712
2.86217008797654
2.814271749755621
2.7614858260019552
2.702834799608993
2.636363636363636
2.5620723362658846
2.4887585532746823
2.4144672531769307
2.3304007820136854
2.243401759530792
2.158357771260997
2.0772238514174
2.003910068426197
1.9413489736070384
1.8905180840664717
1.8494623655913975
1.8172043010752688
1.7927663734115349
1.775171065493646
1.761485826001955
1.747800586510264
1.7331378299120237
1.7165200391006843
1.6979472140762464
1.6764418377321604
1.6520039100684265
1.6256109481915937
1.5962854349951123
1.5650048875855327
1.530791788856305
1.4946236559139785
1.4623655913978495
1.4330400782013686
1.4007820136852396
1.3685239491691104
1.3372434017595307
1.3069403714565004
1.2795698924731185
1.2551319648093842
1.2326490713587488
1.2111436950146628
1.1906158357771262
1.1710654936461389
1.1564027370478984
1.1466275659824048
1.1358748778103618
1.1270772238514175
1.1192570869990224
1.1114369501466277
1.1036168132942326
1.096774193548387
1.0909090909090908
1.0850439882697946
1.0801564027370478
1.078201368523949
1.0772238514173995
1.078201368523949
1.0811339198435972
1.083088954056696
1.0840664711632453
1.0840664711632453
1.083088954056696
1.0811339198435972
1.078201368523949
1.0742913000977516
1.0713587487781036
1.0694037145650048
1.067448680351906
1.067448680351906
1.0703812316715542
1.0703812316715542
1.067448680351906
1.0625610948191593
1.0576735092864125
1.0527859237536656
1.0498533724340176
1.0488758553274682
1.0469208211143697
1.0449657869012707
1.0420332355816226
1.0391006842619743
1.040078201368524
1.0439882697947214
1.050830889540567
1.0694037145650048
1.1055718475073313
1.1671554252199414
1.2590420332355816
1.3841642228739004
1.5405669599217986
1.7233626588465298
1.9227761485826005
2.1270772238514173
2.300097751710655
2.4457478005865103
2.591397849462365
2.704789833822092
2.7839687194525906
2.844574780058651
2.8836754643206257
2.903225806451613
2.902248289345064
2.887585532746823
2.86217008797654
2.827956989247312
2.788856304985337
2.7468230694037143
2.702834799608993
2.653958944281525
2.598240469208211
2.536656891495601
2.4682306940371457
2.3929618768328447
2.3118279569892475
2.2277614858260018
2.1436950146627565
2.0635386119257086
1.9902248289345064
1.9305962854349952
1.8797653958944285
1.8328445747800584
1.790811339198436
1.7556207233626588
1.7272727272727273
1.7038123167155426
1.6813294232649072
1.6598240469208212
1.6383186705767352
1.6158357771260996
1.5933528836754642
1.5718475073313782
1.5542521994134897
1.5405669599217986
1.5249266862170088
1.509286412512219
1.4926686217008798
1.4760508308895406
1.4594330400782014
1.444770283479961
1.43108504398827
1.4173998044965788
1.404692082111437
1.392961876832845
1.383186705767351
1.3763440860215057
1.370478983382209
1.367546432062561
1.3665689149560116
1.3685239491691104
1.3714565004887584
1.3743890518084063
1.3773216031280548
1.3792766373411536
1.380254154447703
1.3782991202346042
1.3734115347018572
1.367546432062561
1.359726295210166
1.3440860215053765
1.3225806451612905
1.2961876832844574
1.2658846529814272
1.2346041055718475
1.2043010752688172
1.1759530791788857
1.1485826001955035
1.1241446725317692
1.1026392961876832
1.0879765395894427
1.0791788856304985
1.0713587487781036
1.067448680351906
1.0684261974584557
1.0733137829912025
1.083088954056696
1.096774193548387
1.1143695014662756
1.1348973607038124
1.1573802541544478
1.1798631476050832
1.203323558162268
1.2258064516129032
1.24633431085044
1.2658846529814272
1.2854349951124144
1.3020527859237536
1.3157380254154447
1.324535679374389
1.3333333333333333
1.3450635386119256
1.3655913978494625
1.401759530791789
1.458455522971652
1.525904203323558
1.611925708699902
1.732160312805474
1.878787878787879
2.043010752688172
2.2130987292277613
2.378299120234604
2.527859237536657
2.654936461388074
2.752688172043011
2.8211143695014664
2.86217008797654
2.87683284457478
2.870967741935484
2.8533724340175954
2.825024437927664
2.787878787878788
2.744868035190616
2.697947214076246
2.6471163245356792
2.592375366568915
2.5347018572825024
2.4731182795698925
2.407624633431085
2.3382209188660803
2.272727272727273
2.207233626588465
2.1358748778103616
2.064516129032258
1.9960899315738023
1.932551319648094
1.87683284457478
1.83088954056696
1.7947214076246334
1.7663734115347018
1.7448680351906158
1.7272727272727273
1.7135874877810362
1.699902248289345
1.6842619745845553
1.664711632453568
1.6422287390029326
1.6158357771260996
1.5865102639296187
1.5542521994134897
1.5180840664711632
1.478983382209189
1.4389051808406648
1.3978494623655917
1.3587487781036167
1.3264907135874875
1.2981427174975562
1.2668621700879763
1.2355816226783969
1.2043010752688172
1.1730205278592376
1.144672531769306
1.1192570869990224
1.0987292277614855
1.0811339198435972
1.0684261974584557
1.0586510263929618
1.053763440860215
1.0518084066471165
1.050830889540567
1.0498533724340176
1.0498533724340176
1.0488758553274682
1.0478983382209188
1.04594330400782
1.0420332355816226
1.0381231671554252
1.0342130987292275
1.0303030303030305
1.0254154447702837
1.0234604105571847
1.0224828934506354
1.018572825024438
1.013685239491691
1.007820136852395
1.0019550342130987
0.9951124144672532
0.9882697947214076
0.981427174975562
0.9736070381231672
0.9648093841642228
0.9560117302052786
0.9511241446725318
0.9481915933528836
0.9423264907135877
0.9364613880742912
0.9305962854349952
0.927663734115347
0.9257086999022482
0.9257086999022482
0.9266862170087976
0.9286412512218964
0.9296187683284456
0.9315738025415444
0.9325513196480938
0.935483870967742
0.9403714565004888
0.9452590420332356
0.95405669599218
0.9736070381231672
1.0097751710654936
1.0713587487781036
1.163245356793744
1.2883675464320623
1.444770283479961
1.6275659824046922
1.828934506353861
2.0087976539589443
2.172043010752688
2.346041055718475
2.5102639296187683
2.6529814271749754
2.768328445747801
2.8533724340175954
2.911045943304008
2.945259042033236
2.9589442815249267
2.956989247311828
2.943304007820137
2.920821114369501
2.89247311827957
2.859237536656892
2.822091886608016
2.780058651026393
2.7341153470185726
2.681329423264907
2.619745845552297
2.550342130987292
2.4731182795698925
2.391006842619746
2.304007820136853
2.2140762463343107
2.133919843597263
2.060606060606061
1.986314760508309
1.9159335288367547
1.8533724340175952
1.8005865102639296
1.758553274682307
1.726295210166178
1.699902248289345
1.678396871945259
1.6608015640273706
1.6441837732160314
1.6275659824046922
1.611925708699902
1.595307917888563
1.5747800586510263
1.552297165200391
1.5268817204301075
1.4975562072336266
1.4652981427174976
1.43108504398827
1.3958944281524928
1.3773216031280548
1.367546432062561
1.3470185728250244
1.3264907135874875
1.305962854349951
1.2825024437927663
1.2580645161290325
1.2336265884652982
1.2111436950146628
1.1915933528836755
1.1759530791788857
1.1622678396871946
1.1505376344086022
1.1397849462365592
1.1300097751710656
1.121212121212121
1.1163245356793745
1.1133919843597262
1.1094819159335287
1.104594330400782
1.099706744868035
1.093841642228739
1.088954056695992
1.0850439882697946
1.0821114369501466
1.0791788856304985
1.0762463343108504
1.0733137829912025
1.0733137829912025
1.075268817204301
1.0772238514173995
1.0791788856304985
1.0821114369501466
1.0850439882697946
1.0918866080156402
1.1055718475073313
1.130987292277615
1.176930596285435
1.2473118279569892
1.346041055718475
1.4711632453567938
1.5972629521016617
1.7272727272727273
1.8826979472140764
2.04594330400782
2.2052785923753664
2.3499511241446727
2.4711632453567938
2.567937438905181
2.638318670576735
2.6832844574780057
2.704789833822092
2.708699902248289
2.697947214076246
2.677419354838709
2.650048875855328
2.6148582600195502
2.573802541544477
2.527859237536657
2.474095796676442
2.4134897360703813
2.346041055718475
2.272727272727273
2.193548387096774
2.1114369501466275
2.0303030303030303
1.9579667644183771
1.8934506353861196
1.83088954056696
1.7732160312805474
1.7233626588465298
1.6842619745845553
1.653958944281525
1.6314760508308896
1.6158357771260996
1.606060606060606
1.5992179863147604
1.5933528836754642
1.587487781036168
1.581622678396872
1.573802541544477
1.5610948191593352
1.544477028347996
1.5249266862170088
1.5034213098729228
1.479960899315738
1.4545454545454546
1.4291300097751711
1.401759530791789
1.3734115347018572
1.3499511241446724
1.3284457478005864
1.3040078201368523
1.278592375366569
1.2531769305962854
1.2297165200391007
1.2082111436950147
1.1886608015640274
1.1720430107526882
1.1573802541544478
1.144672531769306
1.1329423264907137
1.1221896383186705
1.1163245356793745
1.1133919843597262
1.1094819159335287
1.104594330400782
1.099706744868035
1.0948191593352885
1.0909090909090908
1.0879765395894427
1.086021505376344
1.0850439882697946
1.0850439882697946
1.083088954056696
1.083088954056696
1.0840664711632453
1.0840664711632453
1.0840664711632453
1.083088954056696
1.0821114369501466
1.0811339198435972
1.0801564027370478
1.078201368523949
1.075268817204301
1.072336265884653
1.0703812316715542
1.067448680351906
1.067448680351906
1.0684261974584557
1.0684261974584557
1.067448680351906
1.067448680351906
1.0664711632453567
1.0654936461388074
1.064516129032258
1.0635386119257086
1.0625610948191593
1.0625610948191593
1.0625610948191593
1.0654936461388074
1.0694037145650048
1.072336265884653
1.0742913000977516
1.0762463343108504
1.0791788856304985
1.0821114369501466
1.0840664711632453
1.086021505376344
1.086021505376344
1.0850439882697946
1.083088954056696
1.0821114369501466
1.0850439882697946
1.093841642228739
1.1143695014662756
1.1564027370478984
1.2287390029325511
1.3362658846529814
1.479960899315738
1.656891495601173
1.8592375366568916
2.0762463343108504
2.2932551319648096
2.5004887585532747
2.664711632453568
2.791788856304985
2.90811339198436
3.0
3.0635386119257086
3.1006842619745845
3.113391984359726
3.1055718475073317
3.0821114369501466
3.04594330400782
3.0019550342130987
2.9530791788856305
2.898338220918866
2.8426197458455524
2.7869012707722387
2.7253176930596283
2.656891495601173
2.582600195503421
2.501466275659824
2.41544477028348
2.3284457478005867
2.243401759530792
2.164222873900293
2.093841642228739
2.032258064516129
1.9843597262952104
1.948191593352884
1.916911045943304
1.8914956011730208
1.870967741935484
1.855327468230694
1.8416422287390029
1.8269794721407624
1.8093841642228736
1.7898338220918866
1.7683284457478006
1.7438905180840665
1.715542521994135
1.689149560117302
1.66177908113392
1.629521016617791
1.595307917888563
1.5591397849462365
1.521016617790811
1.4838709677419355
1.4486803519061584
1.41544477028348
1.3851417399804498
1.356793743890518
1.3304007820136852
1.310850439882698
1.2932551319648091
1.2746823069403714
1.2561094819159335
1.2394916911045943
1.2238514173998043
1.2111436950146628
1.2003910068426198
1.1896383186705768
1.1788856304985338
1.1710654936461389
1.164222873900293
1.1583577712609971
1.155425219941349
1.1534701857282503
1.1495601173020529
1.1456500488758554
1.1407624633431086
1.1348973607038124
1.1300097751710656
1.126099706744868
1.1231671554252198
1.121212121212121
1.118279569892473
1.1143695014662756
1.1124144672531768
1.1114369501466277
1.1085043988269794
