ppg
2.6666666666666665
2.7497556207233624
2.8132942326490715
2.870967741935484
2.9159335288367547
2.946236559139785
2.962854349951124
2.9667644183773216
2.9589442815249267
2.9423264907135875
2.917888563049853
2.886608015640274
2.8514173998044967
2.812316715542522
2.7722385141739982
2.730205278592375
2.684261974584555
2.635386119257087
2.5835777126099706
2.527859237536657
2.4672531769305963
2.403714565004888
2.335288367546432
2.2629521016617797
2.1867057673509285
2.10850439882698
2.038123167155425
1.9736070381231672
1.9042033235581624
1.835777126099707
1.772238514173998
1.7145650048875856
1.664711632453568
1.6226783968719452
1.5884652981427174
1.5610948191593352
1.5395894428152492
1.52297165200391
1.5112414467253177
1.504398826979472
1.500488758553275
1.495601173020528
1.4897360703812317
1.4838709677419355
1.47702834799609
1.469208211143695
1.4604105571847508
1.452590420332356
1.4457478005865103
1.439882697947214
1.4349951124144673
1.4330400782013686
1.434017595307918
1.4349951124144673
1.4349951124144673
1.4349951124144673
1.435972629521017
1.4379276637341154
1.4408602150537635
1.444770283479961
1.4506353861192571
1.457478005865103
1.466275659824047
1.4760508308895406
1.4868035190615836
1.498533724340176
1.509286412512219
1.5180840664711632
1.525904203323558
1.5347018572825024
1.5464320625610948
1.5650048875855327
1.5933528836754642
1.6373411534701858
1.699902248289345
1.7810361681329423
1.865102639296188
1.9550342130987293
2.0684261974584555
2.1945259042033234
2.324535679374389
2.450635386119257
2.56891495601173
2.673509286412512
2.763440860215054
2.8377321603128056
2.895405669599218
2.936461388074292
2.9589442815249267
2.9657869012707723
2.9657869012707723
2.951124144672532
2.9315738025415445
2.913000977517106
2.8856304985337244
2.8533724340175954
2.817204301075269
2.7781036168132944
2.7370478983382207
2.6930596285435
2.6471163245356792
2.6021505376344085
2.557184750733138
2.505376344086021
2.447702834799609
2.3851417399804498
2.3167155425219943
2.2238514173998043
2.1378299120234603
2.0762463343108504
2.0087976539589443
1.8543499511241448
1.6666666666666667
1.5650048875855327
1.500488758553275
1.4418377321603129
1.3919843597262953
1.3519061583577712
1.3186705767350928
1.2903225806451613
1.267839687194526
1.2502443792766371
1.2336265884652982
1.219941348973607
1.209188660801564
1.195503421309873
1.1837732160312806
1.173998044965787
1.1622678396871946
1.147605083088954
1.126099706744868
1.1055718475073313
1.0909090909090908
1.075268817204301
1.053763440860215
1.0342130987292275
1.0166177908113392
1.0009775171065494
0.9912023460410556
0.9833822091886608
0.9745845552297164
0.9667644183773216
0.9579667644183774
0.9472140762463344
0.9374389051808406
0.9305962854349952
0.9257086999022482
0.9217986314760508
0.916911045943304
0.9110459433040078
0.9100684261974584
0.9120234604105572
0.9149560117302052
0.9257086999022482
0.9481915933528836
0.9872922776148584
1.0498533724340176
1.1378299120234605
1.2512218963831867
1.3861192570869991
1.5376344086021505
1.7008797653958945
1.8465298142717497
1.9804496578690127
2.12316715542522
2.260019550342131
2.3841642228739004
2.490713587487781
2.576735092864125
2.641251221896383
2.684261974584555
2.7096774193548385
2.719452590420332
2.7155425219941347
2.699902248289345
2.675464320625611
2.644183773216031
2.606060606060606
2.5610948191593352
2.5112414467253177
2.458455522971652
2.4027370478983383
2.343108504398827
2.281524926686217
2.2170087976539588
2.147605083088954
2.071358748778104
2.0
1.9296187683284456
1.847507331378299
1.758553274682307
1.6656891495601174
1.573802541544477
1.4858260019550342
1.4027370478983383
1.3284457478005864
1.262952101661779
1.206256109481916
1.1593352883675463
1.121212121212121
1.0948191593352885
1.0772238514173995
1.06158357771261
1.0478983382209188
1.035190615835777
1.0234604105571847
1.0117302052785924
1.0009775171065494
0.9912023460410556
0.981427174975562
0.9716520039100685
0.9608993157380256
0.9530791788856304
0.946236559139785
0.9364613880742912
0.9237536656891496
0.9130009775171064
0.9042033235581622
0.8973607038123167
0.8914956011730205
0.884652981427175
0.8768328445747801
0.8699902248289345
0.863147605083089
0.8563049853372434
0.8533724340175953
0.852394916911046
0.8494623655913979
0.8465298142717498
0.844574780058651
0.8435972629521017
0.8435972629521017
0.8465298142717498
0.8504398826979472
0.855327468230694
0.8621700879765396
0.873900293255132
0.8914956011730205
0.9188660801564028
0.9648093841642228
1.0332355816226784
1.1280547409579669
1.2482893450635386
1.3919843597262953
1.5532746823069403
1.7253176930596286
1.8993157380254155
2.067448680351906
2.2238514173998043
2.363636363636364
2.4682306940371457
2.547409579667644
2.618768328445748
2.675464320625611
2.7155425219941347
2.73802541544477
2.744868035190616
2.7370478983382207
2.717497556207233
2.6881720430107525
2.6510263929618767
2.6070381231671558
2.5620723362658846
2.515151515151515
2.464320625610948
2.409579667644184
2.350928641251222
2.2883675464320627
2.222873900293255
2.1524926686217007
2.075268817204301
1.9931573802541545
1.905180840664712
1.8142717497556209
1.732160312805474
1.6549364613880744
1.5698924731182795
1.4848484848484849
1.4037145650048877
1.3304007820136852
1.2658846529814272
1.2101661779081134
1.1652003910068427
1.1280547409579669
1.0987292277614855
1.0772238514173995
1.06158357771261
1.053763440860215
1.0498533724340176
1.0449657869012707
1.0391006842619743
1.0332355816226784
1.0283479960899315
1.0224828934506354
1.0166177908113392
1.010752688172043
1.002932551319648
0.9960899315738024
0.9902248289345064
0.9872922776148584
0.9863147605083088
0.9824046920821116
0.9794721407624634
0.9765395894428152
0.9745845552297164
0.9736070381231672
0.9736070381231672
0.9745845552297164
0.9765395894428152
0.9794721407624634
0.9824046920821116
0.9872922776148584
0.9941348973607038
1.0009775171065494
1.007820136852395
1.013685239491691
1.0195503421309873
1.0254154447702837
1.032258064516129
1.0439882697947214
1.06158357771261
1.088954056695992
1.1329423264907137
1.198435972629521
1.2727272727272727
1.359726295210166
1.478005865102639
1.6207233626588464
1.780058651026393
1.948191593352884
2.1163245356793743
2.274682306940372
2.419354838709677
2.5464320625610948
2.6529814271749754
2.7370478983382207
2.7996089931573804
2.834799608993157
2.849462365591398
2.855327468230694
2.8484848484848486
2.8289345063538613
2.798631476050831
2.7595307917888565
2.713587487781036
2.662756598240469
2.6080156402737047
2.550342130987292
2.4887585532746823
2.4301075268817205
2.3734115347018574
2.3098729227761488
2.239491691104594
2.164222873900293
2.0840664711632453
1.9980449657869013
1.9071358748778104
1.8132942326490715
1.7174975562072337
1.6236559139784943
1.5317693059628543
1.444770283479961
1.3743890518084063
1.316715542521994
1.260019550342131
1.209188660801564
1.1652003910068427
1.1671554252199414
1.195503421309873
1.203323558162268
1.2023460410557183
1.198435972629521
1.1935483870967742
1.1906158357771262
1.1906158357771262
1.1906158357771262
1.187683284457478
1.1827956989247312
1.1759530791788857
1.1671554252199414
1.1573802541544478
1.1495601173020529
1.142717497556207
1.1368523949169111
1.1329423264907137
1.1300097751710656
1.1280547409579669
1.130987292277615
1.1348973607038124
1.1368523949169111
1.13880742913001
1.1397849462365592
1.1407624633431086
1.142717497556207
1.1456500488758554
1.1495601173020529
1.1544477028347997
1.1612903225806452
1.1710654936461389
1.181818181818182
1.1935483870967742
1.2043010752688172
1.2160312805474096
1.2287390029325511
1.2482893450635386
1.2795698924731185
1.327468230694037
1.396871945259042
1.4897360703812317
1.607038123167155
1.7458455522971652
1.9012707722385145
2.0439882697947214
2.176930596285435
2.324535679374389
2.472140762463343
2.6080156402737047
2.727272727272727
2.827956989247312
2.9071358748778104
2.9657869012707723
3.003910068426197
3.022482893450636
3.0254154447702835
3.013685239491691
2.991202346041056
2.960899315738025
2.9237536656891496
2.8807429130009776
2.832844574780059
2.782013685239492
2.7282502443792764
2.6725317693059627
2.6158357771261
2.5562072336265884
2.4946236559139785
2.429130009775171
2.3655913978494625
2.3010752688172045
2.225806451612903
2.142717497556207
2.0547409579667644
1.963831867057673
1.8748778103616808
1.7898338220918866
1.7096774193548387
1.6363636363636365
1.5698924731182795
1.5112414467253177
1.4652981427174976
1.4291300097751711
1.392961876832845
1.3587487781036167
1.3264907135874875
1.295210166177908
1.2649071358748778
1.2365591397849462
1.2082111436950147
1.1808406647116323
1.1534701857282503
1.1241446725317692
1.0928641251221896
1.067448680351906
1.0439882697947214
1.013685239491691
0.9804496578690128
0.9452590420332356
0.9110459433040078
0.8768328445747801
0.8435972629521017
0.8123167155425219
0.7820136852394917
0.7546432062561095
0.7302052785923754
0.7135874877810362
0.7008797653958945
0.6832844574780058
0.6647116324535679
0.6480938416422287
0.6334310850439883
0.6217008797653959
0.6119257086999023
0.603128054740958
0.5943304007820137
0.5855327468230694
0.5767350928641252
0.5698924731182796
0.570869990224829
0.5777126099706745
0.5913978494623656
0.6177908113391984
0.6637341153470185
0.7350928641251222
0.833822091886608
0.9589442815249268
1.10752688172043
1.2727272727272727
1.4467253176930597
1.6217008797653958
1.76930596285435
1.8963831867057677
2.0234604105571847
2.139784946236559
2.239491691104594
2.3196480938416424
2.3792766373411536
2.419354838709677
2.4408602150537635
2.44672531769306
2.4408602150537635
2.4252199413489737
2.401759530791789
2.3734115347018574
2.340175953079179
2.303030303030303
2.2629521016617797
2.219941348973607
2.1739980449657867
2.124144672531769
2.072336265884653
2.0146627565982405
1.951124144672532
1.8807429130009776
1.8054740957966764
1.7360703812316716
1.667644183773216
1.587487781036168
1.5024437927663734
1.4173998044965788
1.335288367546432
1.2590420332355816
1.1906158357771262
1.130987292277615
1.0791788856304985
1.0361681329423265
1.0
0.9765395894428152
0.9608993157380256
0.9452590420332356
0.9315738025415444
0.919843597262952
0.9100684261974584
0.9012707722385142
0.8944281524926686
0.8875855327468231
0.8787878787878788
0.8690127077223851
0.8592375366568915
0.8475073313782991
0.8406647116324536
0.8347996089931574
0.8250244379276638
0.8142717497556208
0.8035190615835777
0.793743890518084
0.7849462365591398
0.7761485826001955
0.7673509286412512
0.7595307917888563
0.750733137829912
0.7429130009775171
0.739980449657869
0.7409579667644184
0.739980449657869
0.7380254154447703
0.7360703812316716
0.7341153470185728
0.7311827956989247
0.7282502443792767
0.7253176930596286
0.7233626588465298
0.7253176930596286
0.7350928641251222
0.7585532746823069
0.7956989247311828
0.8514173998044966
0.935483870967742
1.0488758553274682
1.1896383186705768
1.3528836754643203
1.533724340175953
1.7223851417399805
1.9100684261974583
2.088954056695992
2.2531769305962857
2.398826979472141
2.5083088954056696
2.590420332355816
2.6666666666666665
2.729227761485826
2.7751710654936463
2.806451612903226
2.8240469208211145
2.8289345063538613
2.823069403714565
2.806451612903226
2.782013685239492
2.750733137829912
2.713587487781036
2.675464320625611
2.636363636363636
2.593352883675464
2.544477028347996
2.4916911045943304
2.4349951124144678
2.3704789833822093
2.297165200391007
2.2170087976539588
2.131964809384164
2.0449657869012707
1.9579667644183771
1.8826979472140764
1.8162267839687196
1.750733137829912
1.689149560117302
1.6344086021505375
1.587487781036168
1.5483870967741935
1.517106549364614
1.4926686217008798
1.4750733137829912
1.4623655913978495
1.4516129032258065
1.5102639296187683
1.606060606060606
1.6520039100684265
1.6715542521994136
1.6774193548387095
1.675464320625611
1.6705767350928642
1.6637341153470186
1.6549364613880744
1.643206256109482
1.6304985337243405
1.6187683284457477
1.6080156402737047
1.6011730205278591
1.5972629521016617
1.5913978494623655
1.585532746823069
1.5786901270772238
1.5728250244379276
1.565982404692082
1.560117302052786
1.555229716520039
1.5503421309872922
1.5464320625610948
1.543499511241447
1.542521994134897
1.542521994134897
1.542521994134897
1.5405669599217986
1.5386119257087
1.5376344086021505
1.5376344086021505
1.543499511241447
1.5581622678396871
1.585532746823069
1.6304985337243405
1.696969696969697
1.7849462365591398
1.873900293255132
1.9696969696969695
2.088954056695992
2.220918866080156
2.355816226783969
2.486803519061584
2.6080156402737047
2.7155425219941347
2.807429130009776
2.8826979472140764
2.941348973607038
2.98435972629521
3.0117302052785924
3.021505376344086
3.018572825024438
3.0087976539589443
2.992179863147605
2.9687194525904204
2.93841642228739
2.903225806451613
2.865102639296188
2.8240469208211145
2.780058651026393
2.7331378299120237
2.684261974584555
2.6373411534701856
2.590420332355816
2.535679374389052
2.4760508308895406
2.410557184750733
2.340175953079179
2.2658846529814274
2.189638318670577
2.112414467253177
2.0361681329423265
1.963831867057673
1.8963831867057677
1.835777126099707
1.7878787878787878
1.7497556207233629
1.7135874877810362
1.6823069403714566
1.6549364613880744
1.6314760508308896
1.6129032258064515
1.598240469208211
1.5865102639296187
1.5777126099706744
1.56891495601173
1.560117302052786
1.552297165200391
1.5464320625610948
1.5386119257087
1.5298142717497556
1.5190615835777126
1.5063538611925709
1.4936461388074291
1.4809384164222874
1.469208211143695
1.457478005865103
1.4457478005865103
1.4349951124144673
1.4242424242424243
1.4164222873900294
1.4115347018572826
1.4056695992179864
1.4007820136852396
1.3958944281524928
1.3919843597262953
1.3870967741935485
1.3822091886608017
1.3782991202346042
1.3734115347018572
1.3695014662756595
1.3665689149560116
1.3665689149560116
1.3695014662756595
1.375366568914956
1.388074291300098
1.412512218963832
1.4535679374389052
1.5151515151515151
1.598240469208211
1.7038123167155426
1.827956989247312
1.9657869012707725
2.1114369501466275
2.239491691104594
2.35386119257087
2.4760508308895406
2.592375366568915
2.697947214076246
2.789833822091887
2.8641251221896384
2.920821114369501
2.960899315738025
2.986314760508309
2.99902248289345
3.0
2.9902248289345064
2.972629521016618
2.948191593352884
2.917888563049853
2.8826979472140764
2.843597262952102
2.801564027370479
2.755620723362659
2.7067448680351904
2.654936461388074
2.60019550342131
2.5405669599217986
2.47702834799609
2.4164222873900294
2.355816226783969
2.2873900293255134
2.2130987292277613
2.1358748778103616
2.059628543499511
1.986314760508309
1.9178885630498532
1.855327468230694
1.8005865102639296
1.7526881720430108
1.7116324535679377
1.6774193548387095
1.653958944281525
1.6373411534701858
1.6217008797653958
1.608993157380254
1.598240469208211
1.5894428152492668
1.5806451612903225
1.5718475073313782
1.5620723362658846
1.552297165200391
1.543499511241447
1.533724340175953
1.5278592375366569
1.521994134897361
1.5131964809384164
1.5034213098729228
1.4926686217008798
1.482893450635386
1.474095796676442
1.466275659824047
1.4604105571847508
1.455522971652004
1.4516129032258065
1.4486803519061584
1.4467253176930597
1.4467253176930597
1.4486803519061584
1.4496578690127078
1.4516129032258065
1.4535679374389052
1.456500488758553
1.4604105571847508
1.4652981427174976
1.469208211143695
1.4750733137829912
1.4848484848484849
1.5034213098729228
1.5278592375366569
1.563049853372434
1.616813294232649
1.6911045943304008
1.7869012707722385
1.903225806451613
2.034213098729228
2.172043010752688
2.3118279569892475
2.447702834799609
2.572825024437928
2.6852394916911044
2.782013685239492
2.850439882697948
2.8993157380254155
2.941348973607038
2.972629521016618
2.991202346041056
2.997067448680352
2.992179863147605
2.979472140762464
2.959921798631476
2.9335288367546437
2.9012707722385143
2.8641251221896384
2.8260019550342133
2.7859237536656893
2.7419354838709675
2.695014662756598
2.644183773216031
2.590420332355816
2.5317693059628543
2.4682306940371457
2.40078201368524
2.3284457478005867
2.2531769305962857
2.175953079178885
2.0977517106549364
2.029325513196481
1.9687194525904204
1.906158357771261
1.8465298142717497
1.7917888563049853
1.7438905180840665
1.7028347996089932
1.6686217008797657
1.6412512218963833
1.619745845552297
1.6021505376344083
1.587487781036168
1.5777126099706744
1.5708699902248289
1.563049853372434
1.555229716520039
1.5464320625610948
1.5376344086021505
1.4457478005865103
1.3118279569892473
1.2394916911045943
1.1964809384164223
1.1671554252199414
1.1466275659824048
1.1319648093841643
1.1231671554252198
1.118279569892473
1.1114369501466277
1.1055718475073313
1.1016617790811338
1.0977517106549364
1.0948191593352885
1.0928641251221896
1.093841642228739
1.0957966764418376
1.0977517106549364
1.1006842619745845
1.1065493646138806
1.115347018572825
1.1231671554252198
1.1290322580645162
1.1348973607038124
1.141739980449658
1.1515151515151516
1.1691104594330402
1.198435972629521
1.2434017595307918
1.3088954056695992
1.3988269794721409
1.512218963831867
1.6256109481915937
1.7448680351906158
1.889540566959922
2.046920821114369
2.206256109481916
2.3597262952101663
2.5004887585532747
2.6236559139784945
2.727272727272727
2.809384164222874
2.870967741935484
2.913000977517106
2.9315738025415445
2.9345063538611926
2.929618768328446
2.9159335288367547
2.8944281524926687
2.8641251221896384
2.8260019550342133
2.782991202346041
2.736070381231672
2.6852394916911044
2.631476050830889
2.5747800586510263
2.5161290322580645
2.4594330400782014
2.401759530791789
2.3362658846529816
2.2639296187683287
2.1847507331378297
2.1006842619745845
2.0117302052785924
1.920821114369501
1.83088954056696
1.7458455522971652
1.664711632453568
1.590420332355816
1.530791788856305
1.482893450635386
1.4389051808406648
1.4007820136852396
1.370478983382209
1.346041055718475
1.3284457478005864
1.313782991202346
1.303030303030303
1.295210166177908
1.289345063538612
1.284457478005865
1.2825024437927663
1.2825024437927663
1.281524926686217
1.2795698924731185
1.2766373411534702
1.2746823069403714
1.2717497556207231
1.270772238514174
1.2717497556207231
1.2727272727272727
1.2746823069403714
1.278592375366569
1.284457478005865
1.2913000977517106
1.2981427174975562
1.305962854349951
1.3147605083088951
1.324535679374389
1.3343108504398826
1.3450635386119256
1.3558162267839686
1.364613880742913
1.3724340175953078
1.3782991202346042
1.3812316715542523
1.383186705767351
1.3851417399804498
1.3870967741935485
1.391006842619746
1.401759530791789
1.423264907135875
1.4623655913978495
1.521994134897361
1.6050830889540566
1.7096774193548387
1.833822091886608
1.9726295210166176
2.1192570869990224
2.2453567937438903
2.356793743890518
2.474095796676442
2.5855327468230693
2.6832844574780057
2.763440860215054
2.825024437927664
2.8690127077223853
2.8963831867057674
2.9071358748778104
2.905180840664712
2.89345063538612
2.8719452590420333
2.843597262952102
2.809384164222874
2.771260997067449
2.7282502443792764
2.6823069403714563
2.632453567937439
2.579667644183773
2.52297165200391
2.462365591397849
2.396871945259042
2.326490713587488
2.2502443792766376
2.177908113391984
2.1065493646138806
2.022482893450636
1.9305962854349952
1.835777126099707
1.7409579667644184
1.6480938416422288
1.560117302052786
1.478005865102639
1.4037145650048877
1.3372434017595307
1.2795698924731185
1.2365591397849462
1.2023460410557183
1.1681329423264908
1.1368523949169111
1.1094819159335287
1.0840664711632453
1.0606060606060606
1.0381231671554252
1.013685239491691
0.989247311827957
0.9638318670576737
0.9374389051808406
0.9100684261974584
0.8905180840664711
0.873900293255132
0.852394916911046
0.8289345063538612
0.804496578690127
0.7800586510263929
0.7556207233626588
0.7321603128054741
0.7096774193548387
0.6881720430107527
0.6666666666666666
0.6480938416422287
0.6373411534701857
0.6314760508308895
0.6217008797653959
0.6109481915933529
0.6011730205278593
0.592375366568915
0.5835777126099707
0.5757575757575758
0.5689149560117303
0.5610948191593352
0.552297165200391
0.5425219941348973
0.533724340175953
0.5317693059628543
0.5376344086021505
0.5513196480938416
0.581622678396872
0.6344086021505376
0.7145650048875856
0.8240469208211144
0.9589442815249268
1.1143695014662756
1.2825024437927663
1.4535679374389052
1.6217008797653958
1.7624633431085044
1.8826979472140764
2.0019550342130987
2.1114369501466275
2.203323558162268
2.2766373411534704
2.332355816226784
2.3704789833822093
2.3929618768328447
2.401759530791789
2.398826979472141
2.3870967741935485
2.367546432062561
2.343108504398827
2.315738025415445
2.283479960899316
2.247311827956989
2.206256109481916
2.161290322580645
2.112414467253177
2.056695992179863
1.9960899315738023
1.9296187683284456
1.857282502443793
1.7790811339198436
1.70772238514174
1.6392961876832846
1.560117302052786
1.478005865102639
1.3958944281524928
1.3176930596285434
1.24633431085044
1.181818181818182
1.1251221896383188
1.078201368523949
1.0391006842619743
1.007820136852395
0.9833822091886608
0.9696969696969696
0.9618768328445748
0.9550342130987292
0.9491691104594332
0.9452590420332356
0.9413489736070382
0.935483870967742
0.9286412512218964
0.9217986314760508
0.913978494623656
0.9051808406647116
0.8944281524926686
0.9912023460410556
1.142717497556207
1.2160312805474096
1.249266862170088
1.2619745845552297
1.2658846529814272
1.2658846529814272
1.2639296187683284
1.2609970674486803
1.2570869990224829
1.2531769305962854
1.2512218963831867
1.2502443792766371
1.252199413489736
1.2561094819159335
1.260019550342131
1.2639296187683284
1.2668621700879763
1.2688172043010753
1.2697947214076246
1.270772238514174
1.273704789833822
1.2795698924731185
1.2913000977517106
1.3147605083088951
1.346041055718475
1.3900293255131966
1.455522971652004
1.543499511241447
1.6529814271749756
1.7781036168132942
1.913978494623656
2.0547409579667644
2.1955034213098727
2.329423264907136
2.452590420332356
2.5620723362658846
2.654936461388074
2.7223851417399803
2.771260997067449
2.814271749755621
2.8484848484848486
2.870967741935484
2.8836754643206257
2.886608015640274
2.8807429130009776
2.868035190615836
2.850439882697948
2.8269794721407626
2.7996089931573804
2.7702834799608995
2.7390029325513194
2.7038123167155423
2.664711632453568
2.622678396871945
2.575757575757576
2.5239491691104594
2.466275659824047
2.403714565004888
2.3362658846529816
2.264907135874878
2.1915933528836757
2.1270772238514173
2.0684261974584555
2.006842619745845
1.9472140762463344
1.89247311827957
1.844574780058651
1.804496578690127
1.7702834799608993
1.7419354838709675
1.7194525904203324
1.7008797653958945
1.6852394916911049
1.672531769305963
1.6637341153470186
1.6559139784946235
1.64613880742913
1.635386119257087
1.624633431085044
1.6129032258064515
1.6001955034213098
1.5865102639296187
1.5728250244379276
1.5571847507331378
1.5405669599217986
1.5239491691104594
1.512218963831867
1.5024437927663734
1.4887585532746823
1.4750733137829912
1.4604105571847508
1.4457478005865103
1.4320625610948192
1.4203323558162269
1.4105571847507332
1.401759530791789
1.3949169110459434
1.3890518084066472
1.3841642228739004
1.383186705767351
1.3851417399804498
1.3851417399804498
1.383186705767351
1.3812316715542523
1.380254154447703
1.3812316715542523
1.388074291300098
1.4037145650048877
1.4349951124144673
1.4848484848484849
1.5562072336265884
1.6344086021505375
1.7243401759530792
1.8406647116324533
