ppg
1.5786901270772238
1.7556207233626588
1.949169110459433
2.147605083088954
2.3391984359726297
2.5131964809384164
2.662756598240469
2.7722385141739982
2.849462365591398
2.913000977517106
2.95405669599218
2.962854349951124
2.945259042033236
2.9159335288367547
2.873900293255132
2.820136852394917
2.757575757575758
2.689149560117302
2.6158357771261
2.539589442815249
2.4672531769305963
2.3978494623655915
2.321603128054741
2.239491691104594
2.1544477028347995
2.065493646138808
1.9736070381231672
1.8797653958944285
1.7839687194525904
1.6901270772238517
1.5992179863147604
1.5131964809384164
1.4437927663734116
1.3870967741935485
1.3304007820136852
1.2795698924731185
1.2375366568914956
1.2043010752688172
1.1808406647116323
1.166177908113392
1.1583577712609971
1.155425219941349
1.1564027370478984
1.1573802541544478
1.1593352883675463
1.1622678396871946
1.166177908113392
1.1691104594330402
1.1691104594330402
1.1671554252199414
1.163245356793744
1.1583577712609971
1.1515151515151516
1.1436950146627567
1.133919843597263
1.1241446725317692
1.1143695014662756
1.1085043988269794
1.1055718475073313
1.1006842619745845
1.0948191593352885
1.0879765395894427
1.0811339198435972
1.0733137829912025
1.064516129032258
1.0547409579667644
1.043010752688172
1.0312805474095796
1.024437927663734
1.0283479960899315
1.04594330400782
1.083088954056696
1.1515151515151516
1.2561094819159335
1.3958944281524928
1.564027370478983
1.75366568914956
1.9521016617790807
2.1485826001955037
2.332355816226784
2.4946236559139785
2.631476050830889
2.727272727272727
2.791788856304985
2.8406647116324537
2.8690127077223853
2.874877810361681
2.859237536656892
2.825024437927664
2.776148582600196
2.713587487781036
2.641251221896383
2.5620723362658846
2.4789833822091887
2.40078201368524
2.3255131964809386
2.243401759530792
2.157380254154448
2.069403714565005
1.9794721407624636
1.8885630498533723
1.796676441837732
1.7067448680351909
1.6177908113391983
1.5327468230694037
1.4545454545454546
1.383186705767351
1.3264907135874875
1.281524926686217
1.2365591397849462
1.1964809384164223
1.164222873900293
1.13880742913001
1.1192570869990224
1.1065493646138806
1.0987292277614855
1.0957966764418376
1.0957966764418376
1.0977517106549364
1.1026392961876832
1.1085043988269794
1.1133919843597262
1.1173020527859236
1.1192570869990224
1.1192570869990224
1.1173020527859236
1.1133919843597262
1.1085043988269794
1.1036168132942326
1.0977517106549364
1.0909090909090908
1.083088954056696
1.0772238514173995
1.072336265884653
1.0654936461388074
1.0586510263929618
1.0518084066471165
1.0439882697947214
1.0361681329423265
1.0263929618768328
1.0156402737047898
1.0068426197458455
1.0019550342130987
1.0087976539589445
1.0283479960899315
1.0654936461388074
1.1329423264907137
1.2365591397849462
1.3743890518084063
1.541544477028348
1.729227761485826
1.924731182795699
2.117302052785924
2.2981427174975564
2.4574780058651027
2.590420332355816
2.695014662756598
2.763440860215054
2.803519061583578
2.8289345063538613
2.835777126099707
2.8240469208211145
2.795698924731183
2.7517106549364616
2.695014662756598
2.6285434995112413
2.5542521994134897
2.474095796676442
2.3900293255131966
2.3098729227761488
2.232649071358749
2.145650048875855
2.053763440860215
1.9579667644183771
1.8602150537634408
1.7634408602150538
1.667644183773216
1.5747800586510263
1.487781036168133
1.4076246334310851
1.3362658846529814
1.273704789833822
1.2267839687194526
1.1915933528836755
1.1593352883675463
1.1319648093841643
1.110459433040078
1.0948191593352885
1.086021505376344
1.0811339198435972
1.0811339198435972
1.083088954056696
1.0869990224828934
1.0928641251221896
1.1006842619745845
1.1094819159335287
1.1173020527859236
1.1241446725317692
1.130987292277615
1.1368523949169111
1.141739980449658
1.1456500488758554
1.1495601173020529
1.1515151515151516
1.1515151515151516
1.1495601173020529
1.1466275659824048
1.1456500488758554
1.144672531769306
1.142717497556207
1.1397849462365592
1.1368523949169111
1.133919843597263
1.1300097751710656
1.1231671554252198
1.1163245356793745
1.1143695014662756
1.1231671554252198
1.1515151515151516
1.1945259042033236
1.260019550342131
1.3655913978494625
1.5073313782991202
1.6793743890518085
1.871945259042033
2.0733137829912023
2.269794721407625
2.4516129032258065
2.608993157380254
2.7390029325513194
2.838709677419355
2.909090909090909
2.946236559139785
2.9589442815249267
2.956989247311828
2.9393939393939394
2.906158357771261
2.859237536656892
2.801564027370479
2.735092864125122
2.6608015640273703
2.5806451612903225
2.4975562072336266
2.4115347018572826
2.332355816226784
2.2561094819159337
2.172043010752688
2.0821114369501466
1.988269794721408
1.89247311827957
1.796676441837732
1.7038123167155426
1.616813294232649
1.5356793743890518
1.4623655913978495
1.3998044965786902
1.3470185728250244
1.3088954056695992
1.2825024437927663
1.2609970674486803
1.2453567937438903
1.2355816226783969
1.23069403714565
1.2287390029325511
1.2297165200391007
1.2316715542521994
1.2346041055718475
1.238514173998045
1.2424242424242424
1.2453567937438903
1.2482893450635386
1.2473118279569892
1.2434017595307918
1.2365591397849462
1.2287390029325511
1.219941348973607
1.2111436950146628
1.2023460410557183
1.1945259042033236
1.1867057673509287
1.1808406647116323
1.1749755620723363
1.1720430107526882
1.1710654936461389
1.1700879765395895
1.1671554252199414
1.1622678396871946
1.1564027370478984
1.1495601173020529
1.144672531769306
1.1466275659824048
1.163245356793744
1.2023460410557183
1.270772238514174
1.3528836754643203
1.4545454545454546
1.595307917888563
1.7644183773216031
1.9501466275659824
2.139784946236559
2.321603128054741
2.487781036168133
2.631476050830889
2.748778103616813
2.8396871945259043
2.902248289345064
2.9345063538611926
2.9423264907135875
2.935483870967742
2.913000977517106
2.875855327468231
2.825024437927664
2.763440860215054
2.6940371456500487
2.6177908113391983
2.535679374389052
2.450635386119257
2.361681329423265
2.2688172043010755
2.1847507331378297
2.104594330400782
2.01564027370479
1.9237536656891496
1.8318670576735088
1.7409579667644184
1.653958944281525
1.5718475073313782
1.4965786901270772
1.4291300097751711
1.370478983382209
1.3196480938416422
1.2825024437927663
1.2551319648093842
1.23069403714565
1.2111436950146628
1.1964809384164223
1.1857282502443791
1.1779081133919844
1.1720430107526882
1.1671554252199414
1.1622678396871946
1.1564027370478984
1.1505376344086022
1.1456500488758554
1.1436950146627567
1.1436950146627567
1.141739980449658
1.1397849462365592
1.1378299120234605
1.1358748778103618
1.133919843597263
1.130987292277615
1.1280547409579669
1.1241446725317692
1.1192570869990224
1.1143695014662756
1.1114369501466277
1.1094819159335287
1.1036168132942326
1.0948191593352885
1.083088954056696
1.0684261974584557
1.053763440860215
1.0410557184750733
1.0391006842619743
1.0547409579667644
1.096774193548387
1.1720430107526882
1.284457478005865
1.4066471163245358
1.543499511241447
1.7174975562072337
1.9090909090909087
2.103616813294233
2.289345063538612
2.4574780058651027
2.601173020527859
2.717497556207233
2.8054740957966766
2.865102639296188
2.898338220918866
2.906158357771261
2.8944281524926687
2.8670576735092865
2.825024437927664
2.7702834799608995
2.704789833822092
2.631476050830889
2.5532746823069403
2.4711632453567938
2.386119257086999
2.2991202346041058
2.210166177908113
2.1192570869990224
2.037145650048876
1.9589442815249267
1.870967741935484
1.7781036168132942
1.6842619745845553
1.5933528836754642
1.5083088954056696
1.43108504398827
1.3626588465298142
1.3040078201368523
1.2570869990224829
1.219941348973607
1.1945259042033236
1.1779081133919844
1.164222873900293
1.1544477028347997
1.147605083088954
1.141739980449658
1.1378299120234605
1.1329423264907137
1.1280547409579669
1.1231671554252198
1.118279569892473
1.1143695014662756
1.110459433040078
1.1094819159335287
1.110459433040078
1.1094819159335287
1.1094819159335287
1.1094819159335287
1.1094819159335287
1.1094819159335287
1.1085043988269794
1.1055718475073313
1.1016617790811338
1.096774193548387
1.0909090909090908
1.0869990224828934
1.0840664711632453
1.078201368523949
1.0703812316715542
1.0596285434995112
1.0478983382209188
1.0381231671554252
1.0371456500488758
1.0527859237536656
1.0928641251221896
1.164222873900293
1.2717497556207231
1.4134897360703813
1.5581622678396871
1.7096774193548387
1.8905180840664717
2.081133919843597
2.2668621700879767
2.4349951124144678
2.579667644183773
2.696969696969697
2.7859237536656893
2.8475073313782997
2.8826979472140764
2.8944281524926687
2.884652981427175
2.859237536656892
2.820136852394917
2.768328445747801
2.704789833822092
2.632453567937439
2.5532746823069403
2.469208211143695
2.3822091886608017
2.2932551319648096
2.2023460410557183
2.1114369501466275
2.018572825024438
1.935483870967742
1.858260019550342
1.772238514173998
1.683284457478006
1.595307917888563
1.5112414467253177
1.434017595307918
1.364613880742913
1.3040078201368523
1.2531769305962854
1.2111436950146628
1.1779081133919844
1.1564027370478984
1.142717497556207
1.1319648093841643
1.1251221896383188
1.121212121212121
1.1192570869990224
1.1192570869990224
1.121212121212121
1.1241446725317692
1.1280547409579669
1.130987292277615
1.1348973607038124
1.1378299120234605
1.142717497556207
1.1485826001955035
1.1534701857282503
1.1564027370478984
1.1583577712609971
1.1583577712609971
1.1573802541544478
1.1544477028347997
1.1505376344086022
1.144672531769306
1.13880742913001
1.1329423264907137
1.1290322580645162
1.1270772238514175
1.1221896383186705
1.1143695014662756
1.104594330400782
1.0977517106549364
1.0977517106549364
1.1143695014662756
1.1544477028347997
1.224828934506354
1.3304007820136852
1.4721407624633431
1.6441837732160314
1.8084066471163245
1.9696969696969695
2.1524926686217007
2.334310850439883
2.506353861192571
2.656891495601173
2.777126099706745
2.8670576735092865
2.927663734115347
2.961876832844575
2.9716520039100685
2.961876832844575
2.936461388074292
2.8993157380254155
2.850439882697948
2.791788856304985
2.7262952101661777
2.6559139784946235
2.582600195503421
2.506353861192571
2.429130009775171
2.3499511241446727
2.267839687194526
2.1837732160312804
2.10752688172043
2.0332355816226784
1.949169110459433
1.86119257086999
1.772238514173998
1.6871945259042034
1.6080156402737047
1.5366568914956011
1.4750733137829912
1.4222873900293256
1.3792766373411536
1.3440860215053765
1.316715542521994
1.2981427174975562
1.2864125122189638
1.2756598240469208
1.267839687194526
1.2619745845552297
1.2580645161290325
1.2561094819159335
1.2551319648093842
1.2531769305962854
1.2512218963831867
1.249266862170088
1.2473118279569892
1.2473118279569892
1.2473118279569892
1.2453567937438903
1.2424242424242424
1.2375366568914956
1.2316715542521994
1.224828934506354
1.2160312805474096
1.206256109481916
1.1964809384164223
1.187683284457478
1.176930596285435
1.166177908113392
1.1583577712609971
1.1515151515151516
1.1407624633431086
1.130987292277615
1.126099706744868
1.1348973607038124
1.1652003910068427
1.2258064516129032
1.321603128054741
1.452590420332356
1.6148582600195502
1.801564027370479
1.9736070381231672
2.133919843597263
2.3088954056695994
2.4780058651026398
2.6285434995112413
2.7517106549364616
2.8455522971652005
2.90811339198436
2.9423264907135875
2.951124144672532
2.93841642228739
2.9071358748778104
2.8611925708699903
2.8084066471163247
2.7497556207233624
2.681329423264907
2.6070381231671558
2.527859237536657
2.4457478005865103
2.3597262952101663
2.271749755620724
2.182795698924731
2.09188660801564
1.9990224828934504
1.905180840664712
1.823069403714565
1.7458455522971652
1.66177908113392
1.5747800586510263
1.4897360703812317
1.4105571847507332
1.3391984359726294
1.2756598240469208
1.2209188660801564
1.1759530791788857
1.1407624633431086
1.1163245356793745
1.099706744868035
1.0928641251221896
1.0928641251221896
1.0957966764418376
1.1006842619745845
1.1065493646138806
1.1124144672531768
1.1173020527859236
1.121212121212121
1.1241446725317692
1.1251221896383188
1.1251221896383188
1.1231671554252198
1.1221896383186705
1.121212121212121
1.1163245356793745
1.1085043988269794
1.0977517106549364
1.0869990224828934
1.075268817204301
1.0635386119257086
1.0518084066471165
1.040078201368524
1.0303030303030305
1.021505376344086
1.0117302052785924
1.0058651026392962
1.0019550342130987
0.9980449657869012
1.0009775171065494
1.0175953079178883
1.0576735092864125
1.1290322580645162
1.2365591397849462
1.3792766373411536
1.552297165200391
1.7468230694037146
1.9501466275659824
2.126099706744868
2.2795698924731185
2.436950146627566
2.579667644183773
2.699902248289345
2.792766373411535
2.8582600195503423
2.8963831867057674
2.909090909090909
2.900293255131965
2.8719452590420333
2.827956989247312
2.7702834799608995
2.708699902248289
2.643206256109482
2.565982404692082
2.4819159335288368
2.3929618768328447
2.3010752688172045
2.206256109481916
2.1094819159335287
2.010752688172043
1.9120234604105573
1.8142717497556209
1.718475073313783
1.6373411534701858
1.0625610948191593
1.06158357771261
1.0576735092864125
1.0518084066471165
1.0449657869012707
1.0371456500488758
1.0303030303030305
1.0234604105571847
1.0166177908113392
1.0087976539589445
1.0
0.989247311827957
0.9824046920821116
0.9794721407624634
0.981427174975562
0.9960899315738024
1.0332355816226784
1.1026392961876832
1.2101661779081134
1.356793743890518
1.5366568914956011
1.739980449657869
1.9530791788856303
2.1622678396871944
2.335288367546432
2.47702834799609
2.613880742913001
2.7311827956989245
2.822091886608016
2.884652981427175
2.920821114369501
2.9315738025415445
2.918866080156403
2.886608015640274
2.838709677419355
2.779081133919844
2.7096774193548385
2.6402737047898337
2.5698924731182795
2.4916911045943304
2.4086021505376345
2.3225806451612905
2.233626588465298
2.142717497556207
2.0498533724340176
1.95405669599218
1.8563049853372435
1.7575757575757576
1.6608015640273706
1.5777126099706744
1.504398826979472
1.4291300097751711
1.356793743890518
1.2932551319648091
1.2394916911045943
1.195503421309873
1.1622678396871946
1.13880742913001
1.1221896383186705
1.1133919843597262
1.1173020527859236
1.1300097751710656
1.141739980449658
1.1534701857282503
1.166177908113392
1.1798631476050832
1.1945259042033236
1.2101661779081134
1.2267839687194526
1.2434017595307918
1.2580645161290325
1.270772238514174
1.2825024437927663
1.29227761485826
1.3010752688172045
1.3079178885630498
1.310850439882698
1.3118279569892473
1.3098729227761483
1.305962854349951
1.300097751710655
1.29227761485826
1.2825024437927663
1.270772238514174
1.2561094819159335
1.241446725317693
1.23069403714565
1.227761485826002
1.2346041055718475
1.2609970674486803
1.3157380254154447
1.404692082111437
1.5298142717497556
1.6871945259042034
1.869012707722385
2.0635386119257086
2.260019550342131
2.44672531769306
2.613880742913001
2.739980449657869
2.832844574780059
2.913978494623656
2.975562072336266
3.013685239491691
3.0283479960899315
3.0195503421309877
2.991202346041056
2.946236559139785
2.887585532746823
2.8181818181818183
2.740957966764418
2.6666666666666665
2.593352883675464
2.512218963831867
2.4271749755620724
2.340175953079179
2.2502443792766376
2.157380254154448
2.060606060606061
1.9618768328445748
1.8631476050830889
1.7673509286412512
1.675464320625611
1.5894428152492668
1.520039100684262
1.4613880742913
1.4037145650048877
1.3499511241446724
1.3020527859237536
1.2619745845552297
1.2297165200391007
1.203323558162268
1.1837732160312806
1.1710654936461389
1.164222873900293
1.160312805474096
1.160312805474096
1.1622678396871946
1.1622678396871946
1.1612903225806452
1.1593352883675463
1.155425219941349
1.1505376344086022
1.144672531769306
1.1378299120234605
1.1290322580645162
1.1202346041055715
1.1114369501466277
1.1026392961876832
1.0957966764418376
1.088954056695992
1.078201368523949
1.0654936461388074
1.0527859237536656
1.0410557184750733
1.0303030303030305
1.021505376344086
1.013685239491691
1.0068426197458455
1.0019550342130987
1.0009775171065494
1.007820136852395
1.0273704789833822
1.0684261974584557
1.13880742913001
1.2453567937438903
1.388074291300098
1.5620723362658846
1.7575757575757576
1.963831867057673
2.167155425219941
2.356793743890518
2.5249266862170088
2.665689149560117
2.764418377321604
2.831867057673509
2.8856304985337244
2.920821114369501
2.935483870967742
2.930596285434995
2.906158357771261
2.866080156402737
2.812316715542522
2.747800586510264
2.6725317693059627
2.591397849462365
2.5141739980449658
2.4389051808406648
2.355816226783969
2.267839687194526
2.176930596285435
2.0840664711632453
1.988269794721408
1.8914956011730208
1.7927663734115349
1.694037145650049
1.598240469208211
1.5073313782991202
1.423264907135875
1.3577712609970674
1.3069403714565004
1.2580645161290325
1.2160312805474096
1.1827956989247312
1.1573802541544478
1.13880742913001
1.126099706744868
1.1192570869990224
1.1163245356793745
1.1143695014662756
1.1133919843597262
1.1143695014662756
1.1163245356793745
1.1143695014662756
1.110459433040078
1.1055718475073313
1.0987292277614855
1.0918866080156402
1.0850439882697946
1.0791788856304985
1.0733137829912025
1.067448680351906
1.0635386119257086
1.0596285434995112
1.0596285434995112
1.0606060606060606
1.0596285434995112
1.056695992179863
1.053763440860215
1.0498533724340176
1.0439882697947214
1.0361681329423265
1.0263929618768328
1.0175953079178883
1.0127077223851415
1.0195503421309873
1.040078201368524
1.0811339198435972
1.1534701857282503
1.262952101661779
1.4076246334310851
1.5826001955034212
1.7771260997067448
1.981427174975562
2.1818181818181817
2.36950146627566
2.5347018572825024
2.6725317693059627
2.780058651026393
2.850439882697948
2.8914956011730206
2.916911045943304
2.9227761485826003
2.90811339198436
2.874877810361681
2.825024437927664
2.760508308895406
2.6852394916911044
2.603128054740958
2.5161290322580645
2.4252199413489737
2.3421309872922778
2.26197458455523
2.1739980449657867
2.081133919843597
1.986314760508309
1.889540566959922
1.7927663734115349
1.696969696969697
1.6041055718475072
1.517106549364614
1.436950146627566
1.364613880742913
1.3088954056695992
1.2649071358748778
1.2228739002932552
1.1867057673509287
1.1573802541544478
1.133919843597263
1.1173020527859236
1.104594330400782
1.0957966764418376
1.088954056695992
1.0840664711632453
1.0811339198435972
1.078201368523949
1.0791788856304985
1.0811339198435972
1.0821114369501466
1.083088954056696
1.083088954056696
1.083088954056696
1.083088954056696
1.0821114369501466
1.0811339198435972
1.0791788856304985
1.0772238514173995
1.0742913000977516
1.0733137829912025
1.072336265884653
1.0684261974584557
1.0625610948191593
1.0557184750733135
1.0488758553274682
1.0420332355816226
1.035190615835777
1.0263929618768328
1.0175953079178883
1.0127077223851415
1.0205278592375366
1.0488758553274682
1.093841642228739
1.1622678396871946
1.270772238514174
1.4173998044965788
1.5962854349951123
1.790811339198436
1.989247311827957
2.1867057673509285
2.3704789833822093
2.5317693059628543
2.664711632453568
2.768328445747801
2.833822091886608
2.8699902248289346
2.8905180840664717
2.89345063538612
2.878787878787879
2.8484848484848486
2.8044965786901277
2.748778103616813
2.6852394916911044
2.6158357771261
2.5425219941348973
2.466275659824047
2.3870967741935485
2.314760508308896
2.2453567937438903
2.16911045943304
2.0869990224828934
2.0009775171065494
1.9130009775171064
1.823069403714565
1.7341153470185728
1.6490713587487782
1.56891495601173
1.4965786901270772
1.435972629521017
1.391006842619746
1.3587487781036167
1.3333333333333333
1.3147605083088951
1.3049853372434017
1.3020527859237536
1.3049853372434017
1.310850439882698
1.3176930596285434
1.324535679374389
1.3304007820136852
1.3362658846529814
1.3401759530791788
1.343108504398827
1.3450635386119256
1.3450635386119256
1.3421309872922775
1.3372434017595307
1.3313782991202343
1.324535679374389
1.316715542521994
1.3079178885630498
1.2981427174975562
1.2864125122189638
1.2746823069403714
1.2658846529814272
1.2590420332355816
1.249266862170088
1.2375366568914956
1.224828934506354
1.2111436950146628
1.1945259042033236
1.1788856304985338
1.1671554252199414
1.166177908113392
1.1837732160312806
1.2287390029325511
1.3098729227761483
1.4056695992179864
1.521016617790811
1.6774193548387095
1.8602150537634408
2.0557184750733137
2.2502443792766376
2.4330400782013686
2.595307917888563
2.7311827956989245
2.8377321603128056
2.9149560117302054
2.962854349951124
2.9824046920821115
2.978494623655914
2.9579667644183774
2.920821114369501
2.868035190615836
2.803519061583578
2.729227761485826
2.649071358748778
2.5650048875855327
2.4789833822091887
2.3929618768328447
2.3069403714565007
2.220918866080156
2.1436950146627565
2.069403714565005
1.986314760508309
1.8983382209188664
1.8093841642228736
1.7204301075268815
1.6344086021505375
1.5532746823069403
1.478005865102639
1.4115347018572826
1.3528836754643203
1.3010752688172045
1.2619745845552297
1.2326490713587488
1.2043010752688172
1.1798631476050832
1.160312805474096
1.1456500488758554
1.1378299120234605
1.133919843597263
1.1329423264907137
1.1348973607038124
1.1368523949169111
1.13880742913001
1.13880742913001
1.1397849462365592
1.141739980449658
1.1407624633431086
1.1378299120234605
1.133919843597263
1.1280547409579669
1.1221896383186705
1.1143695014662756
1.1055718475073313
1.0948191593352885
1.0821114369501466
1.0684261974584557
1.0596285434995112
1.0527859237536656
1.043010752688172
1.0332355816226784
1.0234604105571847
1.0156402737047898
1.0087976539589445
1.0058651026392962
1.0127077223851415
1.035190615835777
1.0821114369501466
1.1612903225806452
1.2766373411534702
1.401759530791789
1.5405669599217986
1.7165200391006843
1.911045943304008
2.10850439882698
2.2961876832844577
2.4652981427174976
2.6080156402737047
2.7233626588465296
2.809384164222874
2.8670576735092865
2.8993157380254155
2.906158357771261
2.8944281524926687
2.8670576735092865
2.8260019550342133
2.773216031280548
2.710654936461388
2.6392961876832843
2.563049853372434
2.482893450635386
2.39980449657869
2.314760508308896
2.2277614858260018
2.1388074291300097
2.0576735092864125
1.9794721407624636
1.8905180840664717
1.7956989247311828
1.699902248289345
1.6050830889540566
1.5141739980449658
1.4291300097751711
1.3528836754643203
1.2864125122189638
1.2316715542521994
1.1886608015640274
1.1593352883675463
1.1407624633431086
1.126099706744868
1.115347018572825
1.1094819159335287
1.1065493646138806
1.1065493646138806
1.1085043988269794
1.110459433040078
1.1114369501466277
1.1124144672531768
1.1124144672531768
1.1133919843597262
1.1143695014662756
1.1133919843597262
1.1094819159335287
1.104594330400782
1.096774193548387
1.0869990224828934
1.0772238514173995
1.067448680351906
1.0586510263929618
1.0518084066471165
1.04594330400782
1.0410557184750733
1.0410557184750733
1.0420332355816226
1.0410557184750733
1.0381231671554252
1.0332355816226784
1.0263929618768328
1.0195503421309873
1.018572825024438
1.0303030303030305
1.064516129032258
1.1280547409579669
1.2258064516129032
1.3343108504398826
1.4604105571847508
1.6256109481915937
1.8132942326490715
2.0087976539589443
2.19941348973607
2.3743890518084068
2.529814271749756
2.658846529814272
2.760508308895406
2.833822091886608
2.8797653958944283
2.900293255131965
2.897360703812317
2.874877810361681
2.8377321603128056
2.7869012707722387
2.7253176930596283
2.653958944281525
2.576735092864125
2.4946236559139785
