ppg
1.608993157380254
1.6099706744868034
1.6080156402737047
1.606060606060606
1.6021505376344083
1.5962854349951123
1.587487781036168
1.5757575757575757
1.563049853372434
1.5503421309872922
1.5356793743890518
1.5190615835777126
1.5024437927663734
1.4858260019550342
1.4711632453567938
1.457478005865103
1.4437927663734116
1.4301075268817205
1.4164222873900294
1.401759530791789
1.388074291300098
1.375366568914956
1.3587487781036167
1.343108504398827
1.3304007820136852
1.3196480938416422
1.3098729227761483
1.3010752688172045
1.2932551319648091
1.2883675464320623
1.2854349951124144
1.284457478005865
1.2834799608993157
1.2854349951124144
1.289345063538612
1.2942326490713587
1.2971652003910068
1.2991202346041055
1.300097751710655
1.300097751710655
1.2981427174975562
1.2942326490713587
1.289345063538612
1.2864125122189638
1.284457478005865
1.284457478005865
1.2864125122189638
1.2873900293255132
1.2883675464320623
1.2913000977517106
1.295210166177908
1.2991202346041055
1.303030303030303
1.305962854349951
1.3079178885630498
1.3088954056695992
1.3088954056695992
1.3069403714565004
1.3040078201368523
1.300097751710655
1.29227761485826
1.2834799608993157
1.2756598240469208
1.2746823069403714
1.2913000977517106
1.332355816226784
1.4056695992179864
1.5141739980449658
1.656891495601173
1.8269794721407624
1.9843597262952104
2.133919843597263
2.2991202346041058
2.458455522971652
2.5992179863147604
2.710654936461388
2.792766373411535
2.8475073313782997
2.87683284457478
2.887585532746823
2.8826979472140764
2.866080156402737
2.8396871945259043
2.807429130009776
2.76930596285435
2.7262952101661777
2.6823069403714563
2.634408602150537
2.5835777126099706
2.5268817204301075
2.4652981427174976
2.39980449657869
2.3284457478005867
2.2502443792766376
2.166177908113392
2.0879765395894427
2.0127077223851417
1.9305962854349952
1.8494623655913975
1.7732160312805474
1.7028347996089932
1.643206256109482
1.5962854349951123
1.5591397849462365
1.5317693059628543
1.512218963831867
1.498533724340176
1.4868035190615836
1.478005865102639
1.4721407624633431
1.4643206256109482
1.4535679374389052
1.4418377321603129
1.4291300097751711
1.414467253176931
1.3958944281524928
1.375366568914956
1.3558162267839686
1.3362658846529814
1.313782991202346
1.2942326490713587
1.2756598240469208
1.252199413489736
1.2287390029325511
1.206256109481916
1.1837732160312806
1.164222873900293
1.1466275659824048
1.1300097751710656
1.115347018572825
1.0772238514173995
1.0273704789833822
0.997067448680352
0.9794721407624634
0.967741935483871
0.956989247311828
0.9472140762463344
0.9374389051808406
0.9296187683284456
0.9257086999022482
0.9237536656891496
0.9227761485826002
0.9227761485826002
0.9208211143695014
0.9178885630498532
0.9178885630498532
0.919843597262952
0.9208211143695014
0.9217986314760508
0.9217986314760508
0.9227761485826002
0.9247311827956988
0.9257086999022482
0.9266862170087976
0.9266862170087976
0.9266862170087976
0.9296187683284456
0.935483870967742
0.9413489736070382
0.946236559139785
0.9521016617790812
0.956989247311828
0.9589442815249268
0.959921798631476
0.9608993157380256
0.9608993157380256
0.9608993157380256
0.9608993157380256
0.9608993157380256
0.9608993157380256
0.9608993157380256
0.9608993157380256
0.9608993157380256
0.9667644183773216
0.9921798631476052
1.0488758553274682
1.1436950146627567
1.281524926686217
1.4633431085043989
1.678396871945259
1.911045943304008
2.146627565982405
2.343108504398827
2.509286412512219
2.674486803519061
2.8211143695014664
2.9393939393939394
3.0283479960899315
3.090909090909091
3.1309872922776147
3.1524926686217007
3.158357771260997
3.15347018572825
3.1417399804496577
3.1221896383186705
3.0957966764418376
3.065493646138808
3.034213098729228
3.0009775171065494
2.963831867057673
2.920821114369501
2.8699902248289346
2.8103616813294234
2.7419354838709675
2.664711632453568
2.5806451612903225
2.486803519061584
2.396871945259042
2.30791788856305
2.210166177908113
2.10850439882698
2.007820136852395
1.9120234604105573
1.8240469208211143
1.7458455522971652
1.678396871945259
1.624633431085044
1.5826001955034212
1.5513196480938416
1.5268817204301075
1.509286412512219
1.495601173020528
1.4819159335288368
1.4672531769305963
1.4516129032258065
1.435972629521017
1.4213098729227762
1.4056695992179864
1.3861192570869991
1.364613880742913
1.3411534701857282
1.3176930596285434
1.2971652003910068
1.2795698924731185
1.2609970674486803
1.2404692082111437
1.2179863147605083
1.1945259042033236
1.1681329423264908
1.1407624633431086
1.1173020527859236
1.096774193548387
1.0762463343108504
1.0586510263929618
1.043010752688172
1.0312805474095796
1.0234604105571847
1.0127077223851415
1.002932551319648
0.9941348973607038
0.9853372434017597
0.975562072336266
0.9667644183773216
0.9589442815249268
0.9530791788856304
0.9501466275659824
0.9481915933528836
0.9501466275659824
0.9530791788856304
0.9550342130987292
0.9560117302052786
0.9560117302052786
0.9560117302052786
0.9560117302052786
0.9560117302052786
0.956989247311828
0.9589442815249268
0.959921798631476
0.9608993157380256
0.9618768328445748
0.9648093841642228
0.9667644183773216
0.9648093841642228
0.9628543499511242
0.9618768328445748
0.9618768328445748
0.9628543499511242
0.9628543499511242
0.9618768328445748
0.959921798631476
0.9560117302052786
0.9511241446725318
0.9511241446725318
0.956989247311828
0.9745845552297164
1.0166177908113392
1.093841642228739
1.2101661779081134
1.3655913978494625
1.5581622678396871
1.7741935483870968
2.0
2.220918866080156
2.426197458455523
2.606060606060606
2.7370478983382207
2.8299120234604107
2.909090909090909
2.970674486803519
3.013685239491691
3.038123167155425
3.046920821114369
3.0439882697947214
3.0303030303030303
3.0087976539589443
2.9804496578690127
2.9472140762463344
2.9100684261974585
2.8690127077223853
2.8269794721407626
2.782013685239492
2.730205278592375
2.6715542521994133
2.6050830889540566
2.530791788856305
2.4486803519061584
2.3597262952101663
2.2639296187683287
2.1652003910068425
2.064516129032258
1.975562072336266
1.8934506353861196
1.8074291300097751
1.7253176930596286
1.6529814271749756
1.5923753665689149
1.542521994134897
1.504398826979472
1.478005865102639
1.4594330400782014
1.447702834799609
1.4408602150537635
1.4349951124144673
1.4281524926686218
1.4213098729227762
1.4164222873900294
1.4086021505376345
1.3978494623655917
1.3822091886608017
1.3626588465298142
1.3421309872922775
1.3206256109481915
1.2991202346041055
1.2795698924731185
1.2609970674486803
1.2473118279569892
1.2355816226783969
1.219941348973607
1.2023460410557183
1.1837732160312806
1.1652003910068427
1.1456500488758554
1.1270772238514175
1.110459433040078
1.0957966764418376
1.083088954056696
1.0742913000977516
1.0703812316715542
1.0684261974584557
1.064516129032258
1.0606060606060606
1.0557184750733135
1.0557184750733135
1.0557184750733135
1.0557184750733135
1.0557184750733135
1.0557184750733135
1.0557184750733135
1.1016617790811338
1.1133919843597262
1.1407624633431086
1.1935483870967742
1.2805474095796676
1.4007820136852396
1.5513196480938416
1.7243401759530792
1.90811339198436
2.0928641251221896
2.2639296187683287
2.4144672531769307
2.5405669599217986
2.638318670576735
2.701857282502444
2.7390029325513194
2.763440860215054
2.773216031280548
2.771260997067449
2.7595307917888565
2.739980449657869
2.713587487781036
2.6832844574780057
2.649071358748778
2.608993157380254
2.565982404692082
2.52297165200391
2.47702834799609
2.4252199413489737
2.367546432062561
2.304007820136853
2.2346041055718477
2.158357771260997
2.078201368523949
1.9951124144672527
1.9100684261974583
1.8269794721407624
1.750733137829912
1.6793743890518085
1.6207233626588464
1.573802541544477
1.530791788856305
1.4946236559139785
1.4672531769305963
1.447702834799609
1.4320625610948192
1.4203323558162269
1.4086021505376345
1.396871945259042
1.3841642228739004
1.3714565004887584
1.3607038123167154
1.3499511241446724
1.335288367546432
1.3176930596285434
1.3010752688172045
1.2834799608993157
1.2639296187683284
1.241446725317693
1.217008797653959
1.1935483870967742
1.1710654936461389
1.1485826001955035
1.1270772238514175
1.1094819159335287
1.0948191593352885
1.0762463343108504
1.0586510263929618
1.043010752688172
1.029325513196481
1.0156402737047898
1.0039100684261977
0.9921798631476052
0.981427174975562
0.9716520039100685
0.9618768328445748
0.9560117302052786
0.9521016617790812
0.946236559139785
0.93841642228739
0.9305962854349952
0.9227761485826002
0.9149560117302052
0.9090909090909092
0.9042033235581622
0.8993157380254154
0.8973607038123167
0.8983382209188661
0.9012707722385142
0.9051808406647116
0.9100684261974584
0.9120234604105572
0.9120234604105572
0.9110459433040078
0.9110459433040078
0.9110459433040078
0.9090909090909092
0.9071358748778104
0.9051808406647116
0.9022482893450636
0.9002932551319648
0.9032258064516128
0.9071358748778104
0.9090909090909092
0.9100684261974584
0.9100684261974584
0.9090909090909092
0.906158357771261
0.9022482893450636
0.8983382209188661
0.8944281524926686
0.8924731182795699
0.8983382209188661
0.919843597262952
0.9579667644183774
1.018572825024438
1.1163245356793745
1.2482893450635386
1.404692082111437
1.5777126099706744
1.7556207233626588
1.924731182795699
2.0762463343108504
2.204301075268817
2.3088954056695994
2.391006842619746
2.4457478005865103
2.479960899315738
2.5034213098729228
2.515151515151515
2.517106549364614
2.5131964809384164
0.9452590420332356
0.9472140762463344
0.9491691104594332
0.9501466275659824
0.9481915933528836
0.9433040078201368
0.93841642228739
0.935483870967742
0.9413489736070382
0.956989247311828
0.9921798631476052
1.0586510263929618
1.163245356793744
1.305962854349951
1.4809384164222874
1.6764418377321604
1.8826979472140764
2.086021505376344
2.2737047898338223
2.4359726295210167
2.56891495601173
2.670576735092864
2.735092864125122
2.773216031280548
2.7996089931573804
2.814271749755621
2.81622678396872
2.809384164222874
2.7966764418377323
2.776148582600196
2.7497556207233624
2.717497556207233
2.681329423264907
2.6422287390029324
2.6021505376344085
2.5610948191593352
2.5141739980449658
2.4604105571847508
2.396871945259042
2.3225806451612905
2.2404692082111435
2.150537634408602
2.053763440860215
1.95405669599218
1.8533724340175952
1.7556207233626588
1.6735092864125125
1.6041055718475072
1.5366568914956011
1.478983382209189
1.43108504398827
1.392961876832845
1.364613880742913
1.343108504398827
1.3284457478005864
1.3206256109481915
1.3147605083088951
1.3079178885630498
1.3020527859237536
1.2991202346041055
1.2942326490713587
1.2883675464320623
1.2932551319648091
1.3040078201368523
1.3069403714565004
1.305962854349951
1.303030303030303
1.2991202346041055
1.295210166177908
1.2903225806451613
1.2854349951124144
1.2834799608993157
1.2825024437927663
1.2795698924731185
1.2756598240469208
1.2727272727272727
1.270772238514174
1.2688172043010753
1.267839687194526
1.2668621700879763
1.2639296187683284
1.260019550342131
1.2570869990224829
1.2551319648093842
1.2570869990224829
1.2619745845552297
1.2658846529814272
1.2688172043010753
1.2727272727272727
1.2756598240469208
1.2776148582600195
1.278592375366569
1.278592375366569
1.2795698924731185
1.281524926686217
1.2825024437927663
1.2854349951124144
1.289345063538612
1.29227761485826
1.2961876832844574
1.3010752688172045
1.305962854349951
1.310850439882698
1.3147605083088951
1.3176930596285434
1.3206256109481915
1.3225806451612905
1.321603128054741
1.3186705767350928
1.316715542521994
1.3157380254154447
1.3128054740957966
1.3088954056695992
1.3069403714565004
1.3098729227761483
1.3225806451612905
1.35386119257087
1.4105571847507332
1.495601173020528
1.611925708699902
1.7595307917888563
1.903225806451613
2.04594330400782
2.212121212121212
2.3822091886608017
2.5405669599217986
2.67644183773216
2.7869012707722387
2.868035190615836
2.920821114369501
2.9501466275659824
2.959921798631476
2.9530791788856305
2.935483870967742
2.909090909090909
2.87683284457478
2.8426197458455524
2.8044965786901277
2.763440860215054
2.720430107526881
2.673509286412512
2.622678396871945
2.567937438905181
2.505376344086021
2.4349951124144678
2.3597262952101663
2.2883675464320627
2.217986314760508
2.1378299120234603
2.0557184750733137
1.975562072336266
1.9012707722385145
1.8347996089931573
1.780058651026393
1.7350928641251222
1.6989247311827955
1.6695992179863148
1.6480938416422288
1.6334310850439884
1.624633431085044
1.6187683284457477
1.6138807429130009
1.606060606060606
1.5972629521016617
1.5884652981427174
1.576735092864125
1.563049853372434
1.5483870967741935
1.5317693059628543
1.5102639296187683
1.4887585532746823
1.4721407624633431
1.457478005865103
1.439882697947214
1.4213098729227762
1.401759530791789
1.3812316715542523
1.359726295210166
1.3401759530791788
1.3225806451612905
1.3069403714565004
1.2913000977517106
1.2766373411534702
1.262952101661779
1.2541544477028348
1.2502443792766371
1.2453567937438903
1.2404692082111437
1.2355816226783969
1.23069403714565
1.2258064516129032
1.2209188660801564
1.2160312805474096
1.2111436950146628
1.206256109481916
1.2013685239491692
1.198435972629521
1.1974584555229717
1.1945259042033236
1.1906158357771262
1.1857282502443791
1.1808406647116323
1.1759530791788857
1.1710654936461389
1.1681329423264908
1.166177908113392
1.1652003910068427
1.1652003910068427
1.1652003910068427
1.166177908113392
1.166177908113392
1.1652003910068427
1.1652003910068427
1.1652003910068427
1.1652003910068427
1.1652003910068427
1.163245356793744
1.1593352883675463
1.1515151515151516
1.1456500488758554
1.1466275659824048
1.155425219941349
1.1788856304985338
1.2258064516129032
1.305962854349951
1.4222873900293256
1.5728250244379276
1.7468230694037146
1.935483870967742
2.1251221896383186
2.304007820136853
2.462365591397849
2.595307917888563
2.6989247311827955
2.766373411534702
2.8084066471163247
2.8367546432062563
2.849462365591398
2.8514173998044967
2.8455522971652005
2.832844574780059
2.814271749755621
2.790811339198436
2.763440860215054
2.7311827956989245
2.695014662756598
2.656891495601173
2.6158357771261
2.56891495601173
2.5161290322580645
2.455522971652004
2.388074291300098
2.313782991202346
2.232649071358749
2.146627565982405
2.0557184750733137
1.963831867057673
1.871945259042033
1.7917888563049853
1.721407624633431
1.6500488758553276
1.5835777126099706
1.5268817204301075
1.4838709677419355
1.4506353861192571
1.4252199413489737
1.4066471163245358
1.3919843597262953
1.3812316715542523
1.3743890518084063
1.3714565004887584
1.370478983382209
1.370478983382209
1.367546432062561
1.3626588465298142
1.3558162267839686
1.3470185728250244
1.33822091886608
1.3284457478005864
1.3186705767350928
1.3069403714565004
1.2961876832844574
1.2864125122189638
1.278592375366569
1.2746823069403714
1.270772238514174
1.2658846529814272
1.2609970674486803
1.2561094819159335
1.252199413489736
1.249266862170088
1.24633431085044
1.2453567937438903
1.2434017595307918
1.2424242424242424
1.2434017595307918
1.24633431085044
1.2512218963831867
1.2531769305962854
1.252199413489736
1.249266862170088
1.2453567937438903
1.2404692082111437
1.238514173998045
1.238514173998045
1.2394916911045943
1.241446725317693
1.2434017595307918
1.2482893450635386
1.2551319648093842
1.260019550342131
1.262952101661779
1.2668621700879763
1.2717497556207231
1.2766373411534702
1.281524926686217
1.2864125122189638
1.2913000977517106
1.2649071358748778
1.2228739002932552
1.2052785923753666
1.198435972629521
1.1964809384164223
1.195503421309873
1.1935483870967742
1.1906158357771262
1.1857282502443791
1.1837732160312806
1.187683284457478
1.203323558162268
1.2394916911045943
1.3049853372434017
1.4037145650048877
1.5131964809384164
1.6412512218963833
1.8084066471163245
2.0
2.201368523949169
2.396871945259042
2.572825024437928
2.721407624633431
2.838709677419355
2.9237536656891496
2.978494623655914
3.007820136852395
3.016617790811339
3.0087976539589443
2.989247311827957
2.960899315738025
2.924731182795699
2.886608015640274
2.8484848484848486
2.807429130009776
2.763440860215054
2.7155425219941347
2.662756598240469
2.6041055718475072
2.5386119257087
2.4731182795698925
2.404692082111437
2.324535679374389
2.236559139784946
2.144672531769306
2.0498533724340176
1.9579667644183771
1.870967741935484
1.7917888563049853
1.7223851417399805
1.6637341153470186
1.6148582600195502
1.5777126099706744
1.5532746823069403
1.5395894428152492
1.530791788856305
1.52297165200391
1.517106549364614
1.5112414467253177
1.5024437927663734
1.490713587487781
1.4760508308895406
1.4613880742913
1.444770283479961
1.4242424242424243
1.4037145650048877
1.3861192570869991
1.3665689149560116
1.346041055718475
1.324535679374389
1.303030303030303
1.281524926686217
1.260019550342131
1.238514173998045
1.2179863147605083
1.1994134897360704
1.1827956989247312
1.166177908113392
1.1534701857282503
1.1456500488758554
1.1397849462365592
1.130987292277615
1.121212121212121
1.1133919843597262
1.1055718475073313
1.0957966764418376
1.0869990224828934
1.0772238514173995
1.067448680351906
1.0596285434995112
1.0557184750733135
1.053763440860215
1.0498533724340176
1.0439882697947214
1.0371456500488758
1.032258064516129
1.0303030303030305
1.0263929618768328
1.021505376344086
1.0175953079178883
1.013685239491691
1.0097751710654936
1.007820136852395
1.0097751710654936
1.013685239491691
1.0156402737047898
1.0166177908113392
1.0166177908113392
1.0166177908113392
1.0166177908113392
1.0166177908113392
1.0166177908113392
1.0166177908113392
1.0156402737047898
1.010752688172043
1.0068426197458455
1.0048875855327468
1.002932551319648
1.0048875855327468
1.0166177908113392
1.0478983382209188
1.1094819159335287
1.2072336265884651
1.3440860215053765
1.517106549364614
1.7174975562072337
1.927663734115347
2.1358748778103616
2.3069403714565007
2.447702834799609
2.581622678396872
2.6940371456500487
2.780058651026393
2.8406647116324537
2.8797653958944283
2.897360703812317
2.9012707722385143
2.895405669599218
2.8807429130009776
2.8611925708699903
2.835777126099707
2.8044965786901277
2.768328445747801
2.7282502443792764
2.684261974584555
2.635386119257087
2.582600195503421
2.525904203323558
2.4652981427174976
2.3978494623655915
2.320625610948192
2.236559139784946
2.145650048875855
2.059628543499511
1.9765395894428155
1.8836754643206255
1.7898338220918866
1.699902248289345
1.6158357771260996
1.541544477028348
1.478005865102639
1.4252199413489737
1.3861192570869991
1.3577712609970674
1.33822091886608
1.3264907135874875
1.3176930596285434
1.3079178885630498
1.2971652003910068
1.2864125122189638
1.2756598240469208
1.2639296187683284
1.2482893450635386
1.2297165200391007
1.2111436950146628
1.1935483870967742
1.176930596285435
1.164222873900293
1.1544477028347997
1.1397849462365592
1.1202346041055715
1.0987292277614855
1.0772238514173995
1.056695992179863
1.0371456500488758
1.018572825024438
1.0019550342130987
0.9833822091886608
0.9667644183773216
0.9511241446725318
0.9423264907135877
0.9364613880742912
0.927663734115347
0.919843597262952
0.9120234604105572
0.9042033235581622
0.895405669599218
0.8875855327468231
0.8797653958944281
0.8719452590420332
0.8651026392961877
0.8582600195503421
0.8563049853372434
0.8582600195503421
0.8592375366568915
0.8582600195503421
0.8582600195503421
0.8592375366568915
0.8602150537634409
0.8602150537634409
0.8602150537634409
0.8602150537634409
0.8602150537634409
0.8602150537634409
0.863147605083089
0.8709677419354839
0.8817204301075269
0.8924731182795699
0.9012707722385142
0.9081133919843596
0.913978494623656
0.9178885630498532
0.9227761485826002
0.9296187683284456
0.935483870967742
0.9393939393939394
0.9442815249266864
0.9521016617790812
0.9638318670576737
0.9833822091886608
1.0175953079178883
1.075268817204301
1.166177908113392
1.295210166177908
1.4604105571847508
1.6549364613880744
1.868035190615836
2.0869990224828934
2.297165200391007
2.487781036168133
2.632453567937439
2.742913000977517
2.8426197458455524
2.9237536656891496
2.981427174975562
3.0175953079178885
3.034213098729228
3.035190615835777
3.026392961876833
3.0087976539589443
2.983382209188661
2.9550342130987293
2.921798631476051
2.884652981427175
2.84652981427175
2.8044965786901277
2.752688172043011
2.6930596285435
2.632453567937439
2.5698924731182795
2.5024437927663734
2.43108504398827
2.35386119257087
2.271749755620724
2.190615835777126
2.118279569892473
2.050830889540567
1.9804496578690127
1.9130009775171064
1.8523949169110456
1.801564027370479
1.761485826001955
1.7302052785923754
1.7086999022482894
1.696969696969697
1.6911045943304008
1.6852394916911049
1.6803519061583578
1.675464320625611
1.667644183773216
1.6588465298142718
1.6500488758553276
1.6383186705767352
1.6236559139784943
1.608993157380254
1.5933528836754642
1.5757575757575757
1.5571847507331378
1.5376344086021505
1.5180840664711632
1.5024437927663734
1.4897360703812317
1.4750733137829912
1.458455522971652
1.4418377321603129
1.4252199413489737
1.4086021505376345
1.391006842619746
1.375366568914956
1.3616813294232648
1.3499511241446724
1.3391984359726294
1.3313782991202343
1.324535679374389
1.3176930596285434
1.3118279569892473
1.3040078201368523
1.295210166177908
1.2883675464320623
1.2825024437927663
1.278592375366569
1.2776148582600195
1.2795698924731185
1.2825024437927663
1.2864125122189638
1.29227761485826
1.2991202346041055
1.3049853372434017
1.3088954056695992
1.3098729227761483
1.3079178885630498
1.3040078201368523
1.300097751710655
1.2971652003910068
1.2991202346041055
1.313782991202346
1.3499511241446724
1.4007820136852396
1.4731182795698925
1.581622678396872
1.7194525904203324
1.881720430107527
2.0547409579667644
2.2248289345063537
2.3812316715542523
2.520039100684262
2.635386119257087
2.7253176930596283
2.787878787878788
2.8289345063538613
2.8484848484848486
2.8514173998044967
2.8455522971652005
2.83088954056696
2.811339198435973
2.7869012707722387
2.7565982404692084
2.7223851417399803
2.6852394916911044
2.6451612903225805
2.60019550342131
2.552297165200391
2.5034213098729228
2.453567937438905
2.396871945259042
2.3313782991202348
2.2580645161290325
2.1788856304985336
2.0957966764418376
2.0087976539589443
1.920821114369501
1.836754643206256
1.758553274682307
1.6901270772238517
1.632453567937439
1.5884652981427174
1.5562072336265884
1.525904203323558
1.501466275659824
1.4838709677419355
1.4731182795698925
1.466275659824047
1.4604105571847508
1.452590420332356
1.4437927663734116
1.4349951124144673
1.423264907135875
1.4105571847507332
1.3988269794721409
1.383186705767351
1.3626588465298142
1.3401759530791788
1.3196480938416422
1.300097751710655
1.2805474095796676
1.2609970674486803
1.241446725317693
1.219941348973607
1.1994134897360704
1.181818181818182
1.1700879765395895
1.1622678396871946
1.152492668621701
1.142717497556207
1.1329423264907137
1.1231671554252198
1.1133919843597262
1.1036168132942326
1.093841642228739
1.0850439882697946
1.078201368523949
1.072336265884653
1.0694037145650048
1.067448680351906
1.0635386119257086
1.0576735092864125
1.0518084066471165
1.0478983382209188
1.04594330400782
1.0449657869012707
1.0449657869012707
1.0449657869012707
1.0449657869012707
1.0420332355816226
1.0410557184750733
1.043010752688172
1.0439882697947214
1.0439882697947214
1.0439882697947214
1.0439882697947214
1.0439882697947214
1.0439882697947214
1.0439882697947214
1.0439882697947214
1.0439882697947214
1.0439882697947214
1.0449657869012707
1.0498533724340176
1.0547409579667644
1.056695992179863
1.0576735092864125
1.0586510263929618
