ppg
2.941348973607038
2.887585532746823
2.832844574780059
2.7722385141739982
2.708699902248289
2.644183773216031
2.582600195503421
2.5239491691104594
2.4701857282502444
2.419354838709677
2.3704789833822093
2.32355816226784
2.2795698924731185
2.241446725317693
2.210166177908113
2.1808406647116323
2.1524926686217007
2.124144672531769
2.096774193548387
2.072336265884653
2.048875855327468
2.026392961876833
2.003910068426197
1.9824046920821117
1.9618768328445748
1.9403714565004888
1.9227761485826005
1.9090909090909087
1.8934506353861196
1.8778103616813293
1.8602150537634408
1.8406647116324533
1.818181818181818
1.793743890518084
1.7702834799608993
1.7487781036168133
1.7302052785923754
1.710654936461388
1.694037145650049
1.6793743890518085
1.6608015640273706
1.640273704789834
1.6187683284457477
1.5972629521016617
1.576735092864125
1.5571847507331378
1.5405669599217986
1.525904203323558
1.5102639296187683
1.4936461388074291
1.47702834799609
1.4643206256109482
1.4535679374389052
1.439882697947214
1.4252199413489737
1.409579667644184
1.3919843597262953
1.3743890518084063
1.3587487781036167
1.3440860215053765
1.3313782991202343
1.3206256109481915
1.313782991202346
1.3147605083088951
1.3235581622678396
1.3391984359726294
1.3626588465298142
1.393939393939394
1.436950146627566
1.4936461388074291
1.563049853372434
1.6480938416422288
1.7468230694037146
1.855327468230694
1.9716520039100685
2.075268817204301
2.1700879765395893
2.271749755620724
2.376344086021505
2.47702834799609
2.5718475073313782
2.659824046920821
2.7370478983382207
2.803519061583578
2.8611925708699903
2.909090909090909
2.9472140762463344
2.9775171065493646
2.995112414467253
3.003910068426197
3.010752688172043
3.0146627565982405
3.013685239491691
3.005865102639296
2.991202346041056
2.9696969696969697
2.9423264907135875
2.906158357771261
2.86217008797654
2.812316715542522
2.763440860215054
2.7155425219941347
2.66177908113392
2.6041055718475072
2.544477028347996
2.4858260019550342
2.4281524926686218
2.3714565004887587
2.220918866080156
2.0254154447702835
1.9042033235581624
1.8211143695014664
1.758553274682307
1.7145650048875856
1.6813294232649072
1.6490713587487782
1.6177908113391983
1.5884652981427174
1.5610948191593352
1.5327468230694037
1.501466275659824
1.4701857282502444
1.4408602150537635
1.414467253176931
1.3900293255131966
1.370478983382209
1.3519061583577712
1.3284457478005864
1.3040078201368523
1.2776148582600195
1.2502443792766371
1.2238514173998043
1.1974584555229717
1.1720430107526882
1.1466275659824048
1.121212121212121
1.096774193548387
1.0742913000977516
1.0576735092864125
1.0439882697947214
1.0273704789833822
1.0087976539589445
0.9882697947214076
0.9667644183773216
0.9452590420332356
0.9257086999022482
0.9081133919843596
0.8914956011730205
0.8758553274682307
0.8602150537634409
0.8504398826979472
0.841642228739003
0.8269794721407625
0.8084066471163245
0.7869012707722385
0.7673509286412512
0.7497556207233627
0.7321603128054741
0.7155425219941349
0.6999022482893451
0.6842619745845552
0.6715542521994134
0.6598240469208211
0.6539589442815249
0.6549364613880743
0.6588465298142717
0.6686217008797654
0.6881720430107527
0.7174975562072337
0.7585532746823069
0.8103616813294232
0.873900293255132
0.9472140762463344
1.0312805474095796
1.1221896383186705
1.2052785923753666
1.2864125122189638
1.380254154447703
1.4760508308895406
1.56891495601173
1.656891495601173
1.7390029325513197
1.8132942326490715
1.878787878787879
1.9345063538611929
1.9794721407624636
2.0127077223851417
2.037145650048876
2.050830889540567
2.0547409579667644
2.0527859237536656
2.04594330400782
2.035190615835777
2.0205278592375366
2.0019550342130987
1.978494623655914
1.9501466275659824
1.916911045943304
1.8778103616813293
1.835777126099707
1.796676441837732
1.758553274682307
1.7135874877810362
1.6656891495601174
1.616813294232649
1.5679374389051808
1.5190615835777126
1.4701857282502444
1.4242424242424243
1.3822091886608017
1.3450635386119256
1.3118279569892473
1.2834799608993157
1.262952101661779
1.2482893450635386
1.2326490713587488
1.2179863147605083
1.2023460410557183
1.1867057673509287
1.1700879765395895
1.1505376344086022
1.1280547409579669
1.1055718475073313
1.083088954056696
1.0596285434995112
1.043010752688172
1.029325513196481
1.0127077223851415
0.9960899315738024
0.9833822091886608
0.9706744868035192
0.9550342130987292
0.93841642228739
0.919843597262952
0.8973607038123167
0.873900293255132
0.8494623655913979
0.8250244379276638
0.8093841642228738
0.7996089931573802
0.7878787878787878
0.7781036168132942
0.7702834799608993
0.7644183773216031
0.7605083088954057
0.7585532746823069
0.7575757575757576
0.7565982404692082
0.7565982404692082
0.7536656891495601
0.7517106549364614
0.7536656891495601
0.7546432062561095
0.7556207233626588
0.7556207233626588
0.7556207233626588
0.7556207233626588
0.7556207233626588
0.7556207233626588
0.7556207233626588
0.7565982404692082
0.7624633431085044
0.7771260997067448
0.7996089931573802
0.83088954056696
0.873900293255132
0.9266862170087976
0.9902248289345064
1.0635386119257086
1.144672531769306
1.2336265884652982
1.3304007820136852
1.43108504398827
1.533724340175953
1.6383186705767352
1.729227761485826
1.8093841642228736
1.8934506353861196
1.9775171065493649
2.059628543499511
2.136852394916911
2.209188660801564
2.2737047898338223
2.3284457478005867
2.3743890518084068
2.409579667644184
2.4349951124144678
2.450635386119257
2.4545454545454546
2.4486803519061584
2.436950146627566
2.419354838709677
2.396871945259042
2.36950146627566
2.3382209188660803
2.302052785923754
2.260997067448681
2.2160312805474094
2.1710654936461387
2.1251221896383186
2.0821114369501466
2.0410557184750733
1.9990224828934504
1.956989247311828
1.9149560117302051
1.8748778103616808
1.836754643206256
1.7996089931573802
1.7634408602150538
1.7311827956989247
1.704789833822092
1.6813294232649072
1.6627565982404693
1.6451612903225807
1.6265884652981428
1.607038123167155
1.585532746823069
1.564027370478983
1.541544477028348
1.5180840664711632
1.4946236559139785
1.4711632453567938
1.447702834799609
1.426197458455523
1.4066471163245358
1.392961876832845
1.380254154447703
1.3655913978494625
1.348973607038123
1.3304007820136852
1.310850439882698
1.2913000977517106
1.270772238514174
1.252199413489736
1.2346041055718475
1.2189638318670577
1.203323558162268
1.1915933528836755
1.181818181818182
1.1691104594330402
1.155425219941349
1.142717497556207
1.133919843597263
1.1270772238514175
1.121212121212121
1.115347018572825
1.110459433040078
1.1026392961876832
1.0909090909090908
1.0801564027370478
1.075268817204301
1.0742913000977516
1.0733137829912025
1.0733137829912025
1.0733137829912025
1.0733137829912025
1.0733137829912025
1.0733137829912025
1.0733137829912025
1.0733137829912025
1.0733137829912025
1.0733137829912025
1.075268817204301
1.0840664711632453
1.2043010752688172
1.388074291300098
1.512218963831867
1.616813294232649
1.7204301075268815
1.8299120234604105
1.946236559139785
2.0684261974584555
2.1955034213098727
2.3255131964809386
2.453567937438905
2.5610948191593352
2.656891495601173
2.760508308895406
2.865102639296188
2.9657869012707723
3.056695992179863
3.1378299120234603
3.2082111436950145
3.2688172043010755
3.321603128054741
3.366568914956012
3.403714565004888
3.4271749755620724
3.4389051808406648
3.449657869012708
3.458455522971652
3.4594330400782014
3.453567937438905
3.4408602150537635
3.421309872922776
3.3958944281524928
3.3655913978494625
3.3304007820136854
3.290322580645161
3.247311827956989
3.203323558162268
3.155425219941349
3.104594330400782
3.0527859237536656
2.997067448680352
2.940371456500489
2.8836754643206257
2.827956989247312
2.771260997067449
2.716520039100684
2.6637341153470184
2.6148582600195502
2.573802541544477
2.5376344086021505
2.5034213098729228
2.469208211143695
2.4349951124144678
2.401759530791789
2.36950146627566
2.3391984359726297
2.3098729227761488
2.281524926686217
2.2531769305962857
2.2218963831867056
2.190615835777126
2.167155425219941
2.145650048875855
2.120234604105572
2.093841642228739
2.0664711632453567
2.040078201368524
2.0146627565982405
1.991202346041056
1.967741935483871
1.9423264907135875
1.9159335288367547
1.8885630498533723
1.865102639296188
1.844574780058651
1.823069403714565
1.801564027370479
1.7810361681329423
1.7634408602150538
1.747800586510264
1.7311827956989247
1.7165200391006843
1.7008797653958945
1.6813294232649072
1.66177908113392
1.643206256109482
1.6304985337243405
1.619745845552297
1.606060606060606
1.5923753665689149
1.5796676441837731
1.5679374389051808
1.5571847507331378
1.5464320625610948
1.533724340175953
1.521994134897361
1.512218963831867
1.504398826979472
1.501466275659824
1.5073313782991202
1.52297165200391
1.5532746823069403
1.5992179863147604
1.6598240469208212
1.737047898338221
1.8299120234604105
1.9345063538611929
2.04594330400782
2.1622678396871944
2.281524926686217
2.39980449657869
2.498533724340176
2.58455522971652
2.678396871945259
2.771260997067449
2.8582600195503423
2.936461388074292
3.003910068426197
3.06158357771261
3.1114369501466275
3.15347018572825
3.185728250244379
3.2082111436950145
3.217986314760508
3.220918866080156
3.2238514173998043
3.2218963831867056
3.21505376344086
3.203323558162268
3.1847507331378297
3.1593352883675463
3.1251221896383186
3.0840664711632453
3.037145650048876
2.98435972629521
2.9266862170087977
2.8719452590420333
2.81622678396872
2.755620723362659
2.695014662756598
2.633431085043988
2.573802541544477
2.515151515151515
2.458455522971652
2.403714565004888
2.350928641251222
2.300097751710655
2.254154447702835
2.21505376344086
2.1818181818181817
2.1485826001955037
2.115347018572825
2.0821114369501466
2.047898338220919
2.0175953079178885
1.991202346041056
1.9657869012707725
1.9403714565004888
1.9149560117302051
1.889540566959922
1.868035190615836
1.8494623655913975
1.828934506353861
1.8074291300097751
1.7839687194525904
1.7575757575757576
1.7311827956989247
1.7018572825024438
1.6735092864125125
1.6480938416422288
1.6236559139784943
1.6011730205278591
1.5796676441837731
1.5650048875855327
1.5532746823069403
1.5376344086021505
1.520039100684262
1.5024437927663734
1.4868035190615836
1.4731182795698925
1.4613880742913
1.4496578690127078
1.4379276637341154
1.426197458455523
1.41544477028348
1.4086021505376345
1.4037145650048877
1.3958944281524928
1.3861192570869991
1.375366568914956
1.364613880742913
1.35386119257087
1.3421309872922775
1.3294232649071358
1.316715542521994
1.305962854349951
1.300097751710655
1.300097751710655
1.305962854349951
1.3196480938416422
1.3450635386119256
1.3841642228739004
1.435972629521017
1.501466275659824
1.5806451612903225
1.6705767350928642
1.7702834799608993
1.87683284457478
1.9902248289345064
2.10752688172043
2.209188660801564
2.302052785923754
2.403714565004888
2.504398826979472
2.601173020527859
2.69208211143695
2.7722385141739982
2.8406647116324537
2.898338220918866
2.9472140762463344
2.9853372434017595
3.0127077223851417
3.03128054740958
3.037145650048876
3.035190615835777
3.03128054740958
3.024437927663734
3.0146627565982405
2.99902248289345
2.979472140762464
2.9530791788856305
2.918866080156403
2.878787878787879
2.833822091886608
2.782991202346041
2.735092864125122
2.689149560117302
2.636363636363636
2.5806451612903225
2.525904203323558
2.4731182795698925
2.4222873900293256
2.3743890518084068
2.3304007820136854
2.2883675464320627
2.249266862170088
2.2140762463343107
2.1818181818181817
2.1544477028347995
2.131964809384164
2.1094819159335287
2.0869990224828934
2.064516129032258
2.042033235581622
2.021505376344086
2.0
1.8905180840664717
1.7380254154447703
1.6490713587487782
1.5913978494623655
1.5532746823069403
1.525904203323558
1.500488758553275
1.47702834799609
1.455522971652004
1.434017595307918
1.412512218963832
1.3919843597262953
1.3714565004887584
1.3509286412512218
1.3304007820136852
1.3079178885630498
1.284457478005865
1.2649071358748778
1.2502443792766371
1.2326490713587488
1.2130987292277615
1.1945259042033236
1.1759530791788857
1.160312805474096
1.144672531769306
1.1290322580645162
1.1133919843597262
1.096774193548387
1.0811339198435972
1.0703812316715542
1.0625610948191593
1.0518084066471165
1.040078201368524
1.0263929618768328
1.0117302052785924
0.997067448680352
0.981427174975562
0.9657869012707724
0.9530791788856304
0.9442815249266864
0.9393939393939394
0.9413489736070382
0.9501466275659824
0.967741935483871
0.9931573802541545
1.0273704789833822
1.0742913000977516
1.133919843597263
1.206256109481916
1.2913000977517106
1.3870967741935485
1.4887585532746823
1.595307917888563
1.7038123167155426
1.796676441837732
1.8778103616813293
1.964809384164223
2.050830889540567
2.1300097751710654
2.19941348973607
2.2580645161290325
2.3098729227761488
2.35386119257087
2.388074291300098
2.4134897360703813
2.4301075268817205
2.4379276637341154
2.4379276637341154
2.4330400782013686
2.423264907135875
2.406647116324536
2.3822091886608017
2.350928641251222
2.313782991202346
2.270772238514174
2.2218963831867056
2.1700879765395893
2.118279569892473
2.065493646138808
2.018572825024438
1.975562072336266
1.9286412512218964
1.878787878787879
1.83088954056696
1.7849462365591398
1.7390029325513197
1.6959921798631477
1.6559139784946235
1.6177908113391983
1.5806451612903225
1.544477028347996
1.509286412512219
1.482893450635386
1.4623655913978495
1.439882697947214
1.418377321603128
1.3978494623655917
1.375366568914956
1.35386119257087
1.3333333333333333
1.3128054740957966
1.29227761485826
1.2688172043010753
1.2443792766373412
1.2238514173998043
1.209188660801564
1.1925708699902249
1.173998044965787
1.1544477028347997
1.133919843597263
1.1133919843597262
1.0928641251221896
1.072336265884653
1.0518084066471165
1.032258064516129
1.0146627565982405
1.0009775171065494
0.9941348973607038
0.9882697947214076
0.9775171065493646
0.9638318670576737
0.9501466275659824
0.935483870967742
0.919843597262952
0.9042033235581622
0.8885630498533724
0.8729227761485826
0.8592375366568915
0.8475073313782991
0.841642228739003
0.8387096774193549
0.8318670576735093
0.823069403714565
0.8132942326490714
0.8035190615835777
0.793743890518084
0.7849462365591398
0.7790811339198436
0.7771260997067448
0.7820136852394917
0.7956989247311828
0.8181818181818182
0.8484848484848485
0.8905180840664711
0.9452590420332356
1.0127077223851415
1.0909090909090908
1.1798631476050832
1.2756598240469208
1.3763440860215057
1.4809384164222874
1.585532746823069
1.686217008797654
1.780058651026393
1.8592375366568916
1.9286412512218964
2.0009775171065494
2.067448680351906
2.1251221896383186
2.174975562072336
2.21505376344086
2.2453567937438903
2.2658846529814274
2.27761485826002
2.281524926686217
2.2795698924731185
2.272727272727273
2.259042033235582
2.239491691104594
2.2140762463343107
2.182795698924731
2.150537634408602
2.1163245356793743
2.0791788856304985
2.040078201368524
2.0009775171065494
1.962854349951124
1.9237536656891496
1.8807429130009776
1.8435972629521016
1.812316715542522
1.780058651026393
1.747800586510264
1.7165200391006843
1.6881720430107527
1.664711632453568
1.64613880742913
1.6285434995112416
1.611925708699902
1.5962854349951123
1.5806451612903225
1.56891495601173
1.5591397849462365
1.5464320625610948
1.5327468230694037
1.5180840664711632
1.504398826979472
1.4897360703812317
1.4721407624633431
1.4545454545454546
1.4379276637341154
1.4213098729227762
1.4037145650048877
1.3851417399804498
1.3695014662756595
1.3548387096774193
1.3391984359726294
1.3235581622678396
1.305962854349951
1.2883675464320623
1.2717497556207231
1.2541544477028348
1.2365591397849462
1.219941348973607
1.2043010752688172
1.1886608015640274
1.176930596285435
1.1681329423264908
1.1593352883675463
1.1495601173020529
1.13880742913001
1.130987292277615
1.1251221896383188
1.1192570869990224
1.1133919843597262
1.1085043988269794
1.104594330400782
1.099706744868035
1.096774193548387
1.0977517106549364
1.0977517106549364
1.0957966764418376
1.0948191593352885
1.093841642228739
1.0948191593352885
1.1006842619745845
1.115347018572825
1.1407624633431086
1.1759530791788857
1.224828934506354
1.2873900293255132
1.3528836754643203
1.423264907135875
1.509286412512219
1.608993157380254
1.718475073313783
1.8318670576735088
1.948191593352884
2.0625610948191597
2.1730205278592374
2.27761485826002
2.375366568914956
2.466275659824047
2.550342130987292
2.6158357771261
2.668621700879765
2.78494623655914
2.9257086999022484
3.0127077223851417
3.070381231671554
3.110459433040078
3.136852394916911
3.15347018572825
3.1622678396871944
3.164222873900293
3.1593352883675463
3.146627565982405
3.1270772238514173
3.104594330400782
3.0772238514174
3.046920821114369
3.013685239491691
2.9745845552297165
2.930596285434995
2.8807429130009776
2.827956989247312
2.7722385141739982
2.717497556207233
2.6666666666666665
2.622678396871945
2.5835777126099706
2.5464320625610948
2.5102639296187683
2.47702834799609
2.4457478005865103
2.4173998044965788
2.391006842619746
2.36950146627566
2.3519061583577714
2.3362658846529816
2.320625610948192
2.304985337243402
2.2883675464320627
2.269794721407625
2.249266862170088
2.23069403714565
2.212121212121212
2.193548387096774
2.1739980449657867
2.150537634408602
2.126099706744868
2.1006842619745845
2.0762463343108504
2.053763440860215
2.035190615835777
2.0175953079178885
1.9980449657869013
1.9765395894428155
1.95405669599218
1.9315738025415443
1.9090909090909087
1.8885630498533723
1.870967741935484
1.8543499511241448
1.8377321603128052
1.822091886608016
1.8084066471163245
1.796676441837732
1.780058651026393
1.761485826001955
1.7448680351906158
1.7302052785923754
1.7174975562072337
1.7057673509286413
1.6950146627565983
1.6842619745845553
1.6735092864125125
1.6627565982404693
1.6500488758553276
1.6383186705767352
1.6285434995112416
1.6158357771260996
1.603128054740958
1.5923753665689149
1.585532746823069
1.5865102639296187
1.5972629521016617
1.619745845552297
1.6559139784946235
1.7038123167155426
1.7644183773216031
1.8269794721407624
1.89247311827957
1.9745845552297163
2.0684261974584555
2.16911045943304
2.2737047898338223
2.3792766373411536
2.4838709677419355
2.5865102639296187
2.6832844574780057
2.773216031280548
2.8563049853372435
2.919843597262952
2.9667644183773216
3.0127077223851417
3.053763440860215
3.088954056695992
3.118279569892473
3.1417399804496577
3.157380254154448
3.1652003910068425
3.1681329423264906
3.1652003910068425
3.157380254154448
3.145650048875855
3.129032258064516
3.1006842619745845
3.072336265884653
3.048875855327468
3.01564027370479
2.9745845552297165
2.9266862170087977
2.873900293255132
2.81622678396872
2.757575757575758
2.701857282502444
2.6480938416422286
2.5992179863147604
2.5542521994134897
2.5083088954056696
2.462365591397849
2.420332355816227
2.3812316715542523
2.345063538611926
2.30791788856305
2.271749755620724
2.2385141739980448
2.209188660801564
2.1818181818181817
2.1544477028347995
2.1309872922776147
2.10850439882698
2.0840664711632453
2.060606060606061
2.038123167155425
2.01564027370479
1.9902248289345064
1.9618768328445748
1.9315738025415443
1.902248289345064
1.8748778103616808
1.8484848484848484
1.826001955034213
1.8084066471163245
1.7888563049853372
1.7673509286412512
1.7458455522971652
1.7253176930596286
1.704789833822092
1.6852394916911049
1.6656891495601174
1.64613880742913
1.6256109481915937
1.6050830889540566
1.585532746823069
1.5718475073313782
1.5620723362658846
1.552297165200391
1.542521994134897
1.533724340175953
1.5239491691104594
1.5112414467253177
1.4975562072336266
1.482893450635386
1.4672531769305963
1.4516129032258065
1.435972629521017
1.4242424242424243
1.414467253176931
1.4027370478983383
1.392961876832845
1.3861192570869991
1.3812316715542523
1.3812316715542523
1.3890518084066472
1.4056695992179864
1.4349951124144673
1.478983382209189
1.5347018572825024
1.6021505376344083
1.6705767350928642
1.7409579667644184
1.8269794721407624
1.919843597262952
2.018572825024438
2.121212121212121
2.2238514173998043
2.32355816226784
2.4173998044965788
2.5034213098729228
2.5806451612903225
2.649071358748778
2.699902248289345
2.739980449657869
2.7810361681329425
2.817204301075269
2.84652981427175
2.8690127077223853
2.884652981427175
2.89247311827957
2.89247311827957
2.884652981427175
2.870967741935484
2.854349951124145
2.831867057673509
2.8044965786901277
2.7722385141739982
2.735092864125122
2.6930596285435
2.64613880742913
2.598240469208211
2.5513196480938416
2.504398826979472
2.4574780058651027
2.410557184750733
2.361681329423265
2.310850439882698
2.264907135874878
2.2248289345063537
2.185728250244379
2.146627565982405
2.10850439882698
2.074291300097752
2.0449657869012707
2.0195503421309877
1.997067448680352
1.975562072336266
1.95405669599218
1.9305962854349952
1.906158357771261
1.8856304985337244
1.8670576735092863
1.844574780058651
1.8201368523949168
1.7878787878787878
1.7595307917888563
1.739980449657869
1.7194525904203324
1.6989247311827955
1.678396871945259
1.6578690127077225
1.6363636363636365
1.619745845552297
1.603128054740958
1.58455522971652
1.5650048875855327
1.544477028347996
1.5268817204301075
1.5102639296187683
1.4936461388074291
1.478005865102639
1.3695014662756595
1.217008797653959
1.1348973607038124
1.086021505376344
1.0586510263929618
1.0439882697947214
1.0303030303030305
1.018572825024438
1.0068426197458455
0.9951124144672532
0.9843597262952102
0.9745845552297164
0.9638318670576737
0.9530791788856304
0.9413489736070382
0.9305962854349952
0.9237536656891496
0.9188660801564028
0.9100684261974584
0.9002932551319648
0.8924731182795699
0.8895405669599218
0.895405669599218
0.913978494623656
0.9472140762463344
0.9941348973607038
1.0547409579667644
1.1300097751710656
1.219941348973607
1.3069403714565004
1.3958944281524928
1.499511241446725
1.608993157380254
1.7204301075268815
1.83088954056696
1.9403714565004888
2.04594330400782
2.1436950146627565
2.231671554252199
2.3098729227761488
2.377321603128055
2.423264907135875
2.4565004887585533
2.487781036168133
2.5141739980449658
2.5317693059628543
2.5386119257087
2.539589442815249
2.533724340175953
2.5219941348973607
2.504398826979472
2.482893450635386
2.4574780058651027
2.426197458455523
2.3919843597262958
2.350928641251222
2.300097751710655
2.242424242424242
2.1837732160312804
2.10752688172043
2.038123167155425
1.9902248289345064
1.9403714565004888
1.8885630498533723
1.836754643206256
1.7859237536656891
1.7438905180840665
1.704789833822092
1.6627565982404693
1.619745845552297
1.581622678396872
1.547409579667644
1.5141739980449658
1.4819159335288368
1.4516129032258065
1.414467253176931
1.3812316715542523
1.3558162267839686
1.3313782991202343
1.3079178885630498
1.278592375366569
1.2482893450635386
1.2179863147605083
1.1886608015640274
1.1593352883675463
1.1300097751710656
1.1016617790811338
1.072336265884653
1.0449657869012707
1.0195503421309873
0.9941348973607038
0.967741935483871
0.9491691104594332
0.9335288367546432
0.9149560117302052
0.895405669599218
0.8768328445747801
0.8602150537634409
0.8396871945259042
0.8172043010752689
0.8015640273704789
0.7888563049853372
0.7751710654936461
0.761485826001955
0.750733137829912
0.7360703812316716
0.7155425219941349
0.6950146627565983
0.6793743890518084
0.6656891495601173
0.6500488758553274
0.6363636363636364
0.6236559139784946
0.6119257086999023
0.6001955034213099
0.5943304007820137
0.592375366568915
0.5913978494623656
