ppg
1.8807429130009776
1.8387096774193548
1.8025415444770283
1.7702834799608993
1.7409579667644184
1.7135874877810362
1.6911045943304008
1.6705767350928642
1.6471163245356797
1.6226783968719452
1.5962854349951123
1.5698924731182795
1.544477028347996
1.520039100684262
1.4965786901270772
1.4731182795698925
1.4486803519061584
1.4252199413489737
1.4076246334310851
1.392961876832845
1.3743890518084063
1.35386119257087
1.335288367546432
1.3157380254154447
1.295210166177908
1.2766373411534702
1.2590420332355816
1.2424242424242424
1.2267839687194526
1.2111436950146628
1.1974584555229717
1.187683284457478
1.1798631476050832
1.1700879765395895
1.160312805474096
1.1515151515151516
1.142717497556207
1.1319648093841643
1.121212121212121
1.1094819159335287
1.0977517106549364
1.0879765395894427
1.0821114369501466
1.0850439882697946
1.1006842619745845
1.133919843597263
1.1935483870967742
1.2825024437927663
1.4027370478983383
1.5493646138807429
1.7145650048875856
1.8885630498533723
2.0625610948191597
2.2297165200391005
2.3822091886608017
2.5180840664711632
2.6207233626588464
2.699902248289345
2.7751710654936463
2.8426197458455524
2.900293255131965
2.946236559139785
2.9824046920821115
3.010752688172043
3.03128054740958
3.0449657869012707
3.050830889540567
3.048875855327468
3.037145650048876
3.016617790811339
2.992179863147605
2.961876832844575
2.9257086999022484
2.8826979472140764
2.831867057673509
2.773216031280548
2.70772238514174
2.636363636363636
2.5591397849462365
2.47702834799609
2.393939393939394
2.318670576735093
2.249266862170088
2.175953079178885
2.104594330400782
2.037145650048876
1.975562072336266
1.919843597262952
1.8699902248289344
1.826001955034213
1.7869012707722385
1.750733137829912
1.7174975562072337
1.6911045943304008
1.667644183773216
1.643206256109482
1.6177908113391983
1.5913978494623655
1.5650048875855327
1.5395894428152492
1.5141739980449658
1.487781036168133
1.4613880742913
1.435972629521017
1.4105571847507332
1.3900293255131966
1.3714565004887584
1.3499511241446724
1.327468230694037
1.3040078201368523
1.2805474095796676
1.2580645161290325
1.2355816226783969
1.2150537634408602
1.1964809384164223
1.1798631476050832
1.1652003910068427
1.152492668621701
1.144672531769306
1.13880742913001
1.1300097751710656
1.1202346041055715
1.1094819159335287
1.0977517106549364
1.086021505376344
1.0742913000977516
1.0635386119257086
1.0527859237536656
1.043010752688172
1.035190615835777
1.032258064516129
1.0371456500488758
1.050830889540567
1.0811339198435972
1.1358748778103618
1.219941348973607
1.3343108504398826
1.4750733137829912
1.6363636363636365
1.8084066471163245
1.981427174975562
2.147605083088954
2.300097751710655
2.420332355816227
2.515151515151515
2.606060606060606
2.687194525904203
2.757575757575758
2.8152492668621703
2.86217008797654
2.8993157380254155
2.927663734115347
2.9472140762463344
2.959921798631476
2.9657869012707723
2.961876832844575
2.949169110459433
2.9315738025415445
2.909090909090909
2.8797653958944283
2.843597262952102
2.80058651026393
2.748778103616813
2.6881720430107525
2.6207233626588464
2.5464320625610948
2.466275659824047
2.3822091886608017
2.3069403714565007
2.2375366568914954
2.164222873900293
2.090909090909091
2.0205278592375366
1.956989247311828
1.8993157380254155
1.8484848484848484
1.8035190615835777
1.7634408602150538
1.7282502443792769
1.6959921798631477
1.6695992179863148
1.6471163245356797
1.6226783968719452
1.5962854349951123
1.5698924731182795
1.544477028347996
1.520039100684262
1.495601173020528
1.4701857282502444
1.4437927663734116
1.418377321603128
1.392961876832845
1.367546432062561
1.348973607038123
1.3343108504398826
1.3157380254154447
1.2961876832844574
1.2756598240469208
1.2541544477028348
1.2336265884652982
1.2140762463343109
1.195503421309873
1.1779081133919844
1.1612903225806452
1.147605083088954
1.1378299120234605
1.1300097751710656
1.1202346041055715
1.1094819159335287
1.0977517106549364
1.086021505376344
1.0742913000977516
1.0635386119257086
1.0547409579667644
1.04594330400782
1.035190615835777
1.0234604105571847
1.0127077223851415
1.007820136852395
1.0117302052785924
1.0254154447702837
1.0576735092864125
1.1163245356793745
1.2043010752688172
1.3225806451612905
1.4672531769305963
1.6304985337243405
1.8025415444770283
1.975562072336266
2.139784946236559
2.271749755620724
2.378299120234604
2.4838709677419355
2.578690127077224
2.6608015640273703
2.732160312805474
2.791788856304985
2.8396871945259043
2.87683284457478
2.9042033235581624
2.920821114369501
2.9159335288367547
2.8963831867057674
2.877810361681329
2.8582600195503423
2.8377321603128056
2.812316715542522
2.782013685239492
2.744868035190616
2.699902248289345
2.6480938416422286
2.5884652981427174
2.5219941348973607
2.450635386119257
2.375366568914956
2.304985337243402
2.2375366568914954
2.164222873900293
2.089931573802541
2.018572825024438
1.9521016617790807
1.8905180840664717
1.836754643206256
1.7898338220918866
1.7487781036168133
1.7126099706744868
1.6793743890518085
1.6500488758553276
1.6256109481915937
1.6041055718475072
1.5806451612903225
1.5562072336265884
1.5317693059628543
1.5073313782991202
1.482893450635386
1.4594330400782014
1.4349951124144673
1.4105571847507332
1.3861192570869991
1.3616813294232648
1.3421309872922775
1.3255131964809383
1.3069403714565004
1.2873900293255132
1.2668621700879763
1.24633431085044
1.2267839687194526
1.2082111436950147
1.1896383186705768
1.1710654936461389
1.1534701857282503
1.1368523949169111
1.121212121212121
1.1114369501466277
1.104594330400782
1.0957966764418376
1.0850439882697946
1.0742913000977516
1.0635386119257086
1.053763440860215
1.0449657869012707
1.035190615835777
1.0224828934506354
1.0097751710654936
0.997067448680352
0.9912023460410556
0.9902248289345064
0.9951124144672532
1.013685239491691
1.053763440860215
1.1192570869990224
1.2140762463343109
1.3372434017595307
1.482893450635386
1.6422287390029326
1.8074291300097751
1.9687194525904204
2.103616813294233
2.2160312805474094
2.3274682306940373
2.429130009775171
2.517106549364614
2.591397849462365
2.653958944281525
2.705767350928641
2.7468230694037143
2.776148582600196
2.7966764418377323
2.809384164222874
2.8152492668621703
2.812316715542522
2.801564027370479
2.7869012707722387
2.7673509286412514
2.742913000977517
2.7116324535679373
2.6725317693059627
2.6265884652981426
2.572825024437928
2.512218963831867
2.444770283479961
2.3714565004887587
2.303030303030303
2.236559139784946
2.163245356793744
2.089931573802541
2.018572825024438
1.9521016617790807
1.8905180840664717
1.836754643206256
1.7898338220918866
1.7487781036168133
1.7126099706744868
1.6813294232649072
1.653958944281525
1.632453567937439
1.6129032258064515
1.590420332355816
1.5669599217986314
1.541544477028348
1.517106549364614
1.4936461388074291
1.4701857282502444
1.4467253176930597
1.4242424242424243
1.4037145650048877
1.383186705767351
1.3665689149560116
1.3519061583577712
1.335288367546432
1.316715542521994
1.2971652003910068
1.2776148582600195
1.2580645161290325
1.2404692082111437
1.2238514173998043
1.2072336265884651
1.1915933528836755
1.1759530791788857
1.160312805474096
1.1505376344086022
1.144672531769306
1.1358748778103618
1.1251221896383188
1.1143695014662756
1.1036168132942326
1.0918866080156402
1.0811339198435972
1.0703812316715542
1.0606060606060606
1.050830889540567
1.0420332355816226
1.0381231671554252
1.0410557184750733
1.050830889540567
1.075268817204301
1.1221896383186705
1.195503421309873
1.2981427174975562
1.4291300097751711
1.5796676441837731
1.7429130009775171
1.9100684261974583
2.070381231671554
2.218963831867057
2.337243401759531
2.432062561094819
2.5239491691104594
2.6080156402737047
2.681329423264907
2.742913000977517
2.792766373411535
2.831867057673509
2.86217008797654
2.8836754643206257
2.897360703812317
2.9042033235581624
2.900293255131965
2.8885630498533725
2.873900293255132
2.8563049853372435
2.832844574780059
2.8025415444770285
2.766373411534702
2.7233626588465296
2.6725317693059627
2.6129032258064515
2.547409579667644
2.4760508308895406
2.39980449657869
2.329423264907136
2.2629521016617797
2.1925708699902247
2.12316715542522
2.0576735092864125
1.9980449657869013
1.945259042033236
1.8983382209188664
1.8563049853372435
1.8191593352883677
1.7859237536656891
1.7556207233626588
1.7311827956989247
1.710654936461388
1.6881720430107527
1.6637341153470186
1.6383186705767352
1.611925708699902
1.585532746823069
1.560117302052786
1.5347018572825024
1.5102639296187683
1.4868035190615836
1.4643206256109482
1.4418377321603129
1.4252199413489737
1.4105571847507332
1.392961876832845
1.3734115347018572
1.35386119257087
1.3343108504398826
1.3157380254154447
1.2971652003910068
1.278592375366569
1.260019550342131
1.2443792766373412
1.2287390029325511
1.2179863147605083
1.2111436950146628
1.2013685239491692
1.1915933528836755
1.1808406647116323
1.1700879765395895
1.1593352883675463
1.1495601173020529
1.1397849462365592
1.1290322580645162
1.118279569892473
1.10752688172043
1.0987292277614855
1.0977517106549364
1.104594330400782
1.1231671554252198
1.1622678396871946
1.2267839687194526
1.321603128054741
1.444770283479961
1.590420332355816
1.750733137829912
1.9178885630498532
2.0821114369501466
2.236559139784946
2.3597262952101663
2.4594330400782014
2.558162267839687
2.6471163245356792
2.7233626588465296
2.8103616813294234
2.897360703812317
2.9579667644183774
3.0009775171065494
3.03128054740958
3.050830889540567
3.06158357771261
3.065493646138808
3.059628543499511
3.04594330400782
3.029325513196481
3.006842619745845
2.978494623655914
2.9423264907135875
2.8993157380254155
2.8484848484848486
2.788856304985337
2.721407624633431
2.6471163245356792
2.5669599217986314
2.490713587487781
2.418377321603128
2.340175953079179
2.260019550342131
2.1818181818181817
2.10850439882698
2.042033235581622
1.9824046920821117
1.9296187683284456
1.8826979472140764
1.8406647116324533
1.8035190615835777
1.7702834799608993
1.7448680351906158
1.7233626588465298
1.699902248289345
1.6735092864125125
1.64613880742913
1.6187683284457477
1.5913978494623655
1.5650048875855327
1.5386119257087
1.5112414467253177
1.4858260019550342
1.4604105571847508
1.439882697947214
1.423264907135875
1.4027370478983383
1.3812316715542523
1.3587487781036167
1.3362658846529814
1.313782991202346
1.2932551319648091
1.2746823069403714
1.2580645161290325
1.2424242424242424
1.227761485826002
1.217008797653959
1.2082111436950147
1.1964809384164223
1.1837732160312806
1.1700879765395895
1.1564027370478984
1.1436950146627567
1.130987292277615
1.1192570869990224
1.10752688172043
1.0957966764418376
1.0840664711632453
1.0733137829912025
1.0694037145650048
1.072336265884653
1.0840664711632453
1.1124144672531768
1.1652003910068427
1.2473118279569892
1.359726295210166
1.4975562072336266
1.6559139784946235
1.826001955034213
1.9980449657869013
2.163245356793744
2.2961876832844577
2.4056695992179864
2.512218963831867
2.6099706744868034
2.695014662756598
2.76930596285435
2.83088954056696
2.881720430107527
2.919843597262952
2.948191593352884
2.967741935483871
2.9775171065493646
2.979472140762464
2.972629521016618
2.9589442815249267
2.9423264907135875
2.921798631476051
2.895405669599218
2.86217008797654
2.8211143695014664
2.7722385141739982
2.7155425219941347
2.6510263929618767
2.578690127077224
2.501466275659824
2.429130009775171
2.3597262952101663
2.2854349951124147
2.210166177908113
2.136852394916911
2.0664711632453567
2.0019550342130987
1.943304007820137
1.89247311827957
1.847507331378299
1.8084066471163245
1.7732160312805474
1.7409579667644184
1.7145650048875856
1.6911045943304008
1.6656891495601174
1.6412512218963833
1.6158357771260996
1.590420332355816
1.5650048875855327
1.5405669599217986
1.5151515151515151
1.4887585532746823
1.4613880742913
1.4349951124144673
1.414467253176931
1.3978494623655917
1.3782991202346042
1.3587487781036167
1.3391984359726294
1.3196480938416422
1.2991202346041055
1.2805474095796676
1.2619745845552297
1.2443792766373412
1.2258064516129032
1.2082111436950147
1.1906158357771262
1.1798631476050832
1.1730205278592376
1.164222873900293
1.1534701857282503
1.142717497556207
1.1319648093841643
1.1221896383186705
1.1133919843597262
1.1026392961876832
1.0918866080156402
1.0821114369501466
1.0713587487781036
1.0664711632453567
1.0664711632453567
1.0703812316715542
1.0879765395894427
1.1270772238514175
1.1945259042033236
1.29227761485826
1.4193548387096775
1.5708699902248289
1.7380254154447703
1.911045943304008
2.080156402737048
2.2375366568914954
2.3626588465298144
2.464320625610948
2.5640273704789838
2.654936461388074
2.7331378299120237
2.7996089931573804
2.8533724340175954
2.895405669599218
2.9286412512218964
2.952101661779081
2.9667644183773216
2.973607038123167
2.9696969696969697
2.9579667644183774
2.9423264907135875
2.921798631476051
2.895405669599218
2.863147605083089
2.8260019550342133
2.782013685239492
2.730205278592375
2.6695992179863146
2.601173020527859
2.525904203323558
2.4457478005865103
2.372434017595308
2.302052785923754
2.225806451612903
2.150537634408602
2.0791788856304985
2.013685239491691
1.9530791788856303
1.8983382209188664
1.8494623655913975
1.8064516129032255
1.7673509286412512
1.7331378299120237
1.7057673509286413
1.683284457478006
1.6608015640273706
1.6363636363636365
1.6109481915933528
1.58455522971652
1.5591397849462365
1.5347018572825024
1.509286412512219
1.4838709677419355
1.458455522971652
1.4330400782013686
1.4076246334310851
1.388074291300098
1.370478983382209
1.3499511241446724
1.3284457478005864
1.3069403714565004
1.2873900293255132
1.2688172043010753
1.252199413489736
1.2346041055718475
1.2160312805474096
1.1974584555229717
1.1808406647116323
1.1691104594330402
1.1622678396871946
1.152492668621701
1.141739980449658
1.1300097751710656
1.118279569892473
1.1065493646138806
1.0957966764418376
1.086021505376344
1.075268817204301
1.0625610948191593
1.0498533724340176
1.040078201368524
1.0371456500488758
1.043010752688172
1.056695992179863
1.088954056695992
1.1466275659824048
1.2336265884652982
1.3499511241446724
1.4926686217008798
1.653958944281525
1.823069403714565
1.992179863147605
2.1388074291300097
2.24633431085044
2.340175953079179
2.436950146627566
2.525904203323558
2.6050830889540566
2.6715542521994133
2.7253176930596283
2.76930596285435
2.803519061583578
2.827956989247312
2.8426197458455524
2.8484848484848486
2.8484848484848486
2.8406647116324537
2.8269794721407626
2.8103616813294234
2.787878787878788
2.7595307917888565
2.724340175953079
2.6803519061583576
2.627565982404692
2.5669599217986314
2.5004887585532747
2.4281524926686218
2.350928641251222
2.2795698924731185
2.212121212121212
2.1417399804496577
2.071358748778104
2.003910068426197
1.9423264907135875
1.8866080156402736
1.8377321603128052
1.7956989247311828
1.7575757575757576
1.7233626588465298
1.6920821114369502
1.6666666666666667
1.64613880742913
1.6226783968719452
1.5972629521016617
1.5718475073313782
1.5464320625610948
1.521016617790811
1.4965786901270772
1.4731182795698925
1.4496578690127078
1.4271749755620724
1.404692082111437
1.383186705767351
1.3665689149560116
1.3519061583577712
1.3333333333333333
1.3128054740957966
1.2932551319648091
1.2727272727272727
1.2531769305962854
1.2365591397849462
1.2209188660801564
1.2052785923753666
1.1906158357771262
1.1759530791788857
1.1652003910068427
1.1573802541544478
1.1466275659824048
1.1358748778103618
1.1251221896383188
1.1133919843597262
1.1016617790811338
1.0899315738025417
1.078201368523949
1.0664711632453567
1.0547409579667644
1.0449657869012707
1.0391006842619743
1.0420332355816226
1.0557184750733135
1.0869990224828934
1.1436950146627567
1.2297165200391007
1.3450635386119256
1.4858260019550342
1.6441837732160314
1.8113391984359728
1.9775171065493649
2.134897360703812
2.2795698924731185
2.3929618768328447
2.482893450635386
2.570869990224829
2.649071358748778
2.716520039100684
2.7722385141739982
2.8181818181818183
2.854349951124145
2.8807429130009776
2.8993157380254155
2.911045943304008
2.9159335288367547
2.913978494623656
2.903225806451613
2.8856304985337244
2.8641251221896384
2.8367546432062563
2.803519061583578
2.764418377321604
2.717497556207233
2.662756598240469
2.5992179863147604
2.527859237536657
2.4516129032258065
2.372434017595308
2.3010752688172045
2.2346041055718477
2.164222873900293
2.093841642228739
2.027370478983382
1.9667644183773216
1.9130009775171064
1.8670576735092863
1.8269794721407624
1.7917888563049853
1.7605083088954057
1.732160312805474
1.7057673509286413
1.6842619745845553
1.6656891495601174
1.6441837732160314
1.6226783968719452
1.6001955034213098
1.5757575757575757
1.5513196480938416
1.5268817204301075
1.5024437927663734
1.478983382209189
1.4545454545454546
1.4301075268817205
1.4105571847507332
1.393939393939394
1.3743890518084063
1.3528836754643203
1.3333333333333333
1.3147605083088951
1.2971652003910068
1.2795698924731185
1.2619745845552297
1.2443792766373412
1.2287390029325511
1.2140762463343109
1.1994134897360704
1.1886608015640274
1.181818181818182
1.1720430107526882
1.1612903225806452
1.1515151515151516
1.1436950146627567
1.1348973607038124
1.126099706744868
1.115347018572825
1.104594330400782
1.0948191593352885
1.0918866080156402
1.0987292277614855
1.118279569892473
1.1583577712609971
1.2258064516129032
1.3235581622678396
1.4506353861192571
1.6011730205278591
1.7663734115347018
1.9364613880742916
2.102639296187683
2.259042033235582
2.39980449657869
2.52297165200391
2.6158357771261
2.6881720430107525
2.755620723362659
2.8152492668621703
2.8670576735092865
2.909090909090909
2.9423264907135875
2.967741935483871
2.98435972629521
2.9931573802541545
2.995112414467253
2.989247311827957
2.9745845552297165
2.9550342130987293
2.930596285434995
2.9012707722385143
2.866080156402737
2.823069403714565
2.774193548387097
2.716520039100684
2.6510263929618767
2.578690127077224
2.501466275659824
2.420332355816227
2.3382209188660803
2.2658846529814274
2.198435972629521
2.1270772238514173
2.058651026392962
1.994134897360704
1.935483870967742
1.8836754643206255
1.8377321603128052
1.7976539589442817
1.761485826001955
1.729227761485826
1.699902248289345
1.675464320625611
1.653958944281525
1.629521016617791
1.6041055718475072
1.5777126099706744
1.552297165200391
1.525904203323558
1.500488758553275
1.4750733137829912
1.4496578690127078
1.4242424242424243
1.3998044965786902
1.3773216031280548
1.3587487781036167
1.3421309872922775
1.3235581622678396
1.303030303030303
1.2805474095796676
1.2590420332355816
1.2404692082111437
1.2238514173998043
1.2082111436950147
1.1935483870967742
1.1788856304985338
1.164222873900293
1.1534701857282503
1.1466275659824048
1.1378299120234605
1.1290322580645162
1.118279569892473
1.10752688172043
1.0957966764418376
1.0840664711632453
1.072336265884653
1.0606060606060606
1.050830889540567
1.0478983382209188
1.0547409579667644
1.0742913000977516
1.1143695014662756
1.1808406647116323
1.278592375366569
1.4037145650048877
1.5464320625610948
1.7018572825024438
1.868035190615836
2.034213098729228
2.1915933528836757
2.332355816226784
2.4545454545454546
2.547409579667644
2.618768328445748
2.6881720430107525
2.748778103616813
2.7996089931573804
2.8406647116324537
2.8719452590420333
2.8944281524926687
2.90811339198436
2.9149560117302054
2.9149560117302054
2.90811339198436
2.89345063538612
2.873900293255132
2.849462365591398
2.819159335288368
2.7810361681329425
2.736070381231672
2.6832844574780057
2.622678396871945
2.5532746823069403
2.4789833822091887
2.39980449657869
2.318670576735093
2.236559139784946
2.163245356793744
2.0977517106549364
2.029325513196481
1.963831867057673
1.903225806451613
1.8484848484848484
1.7996089931573802
1.7565982404692082
1.718475073313783
1.6842619745845553
1.6529814271749756
1.6236559139784943
1.6001955034213098
1.5786901270772238
1.5542521994134897
1.5288367546432062
1.504398826979472
1.479960899315738
1.456500488758553
1.4330400782013686
1.409579667644184
1.388074291300098
1.3665689149560116
1.3450635386119256
1.3225806451612905
1.3049853372434017
1.2903225806451613
1.2717497556207231
1.252199413489736
1.2326490713587488
1.2130987292277615
1.195503421309873
1.1788856304985338
1.163245356793744
1.1485826001955035
1.133919843597263
1.1202346041055715
1.1114369501466277
1.1055718475073313
1.096774193548387
1.0869990224828934
1.0762463343108504
1.0654936461388074
1.0547409579667644
1.0439882697947214
1.0332355816226784
1.0234604105571847
1.0156402737047898
1.0127077223851415
1.021505376344086
1.0420332355816226
1.0811339198435972
1.147605083088954
1.2453567937438903
1.3714565004887584
1.521016617790811
1.686217008797654
1.857282502443793
2.026392961876833
2.185728250244379
2.3304007820136854
2.4565004887585533
2.5513196480938416
2.6236559139784945
2.6930596285435
2.7546432062561097
2.806451612903226
2.8484848484848486
2.8807429130009776
2.9042033235581624
2.918866080156403
2.9266862170087977
2.927663734115347
2.921798631476051
2.90811339198436
2.887585532746823
2.8611925708699903
2.8299120234604107
2.790811339198436
2.744868035190616
2.6911045943304006
2.6295210166177907
2.560117302052786
2.484848484848485
2.4056695992179864
2.324535679374389
2.242424242424242
2.16911045943304
2.103616813294233
2.035190615835777
1.9687194525904204
1.90811339198436
1.8533724340175952
1.804496578690127
1.7624633431085044
1.7243401759530792
1.6901270772238517
1.6608015640273706
1.6334310850439884
1.607038123167155
1.58455522971652
1.5650048875855327
1.541544477028348
1.5161290322580645
1.4897360703812317
1.4633431085043989
1.4379276637341154
1.412512218963832
1.3870967741935485
1.3626588465298142
1.3372434017595307
1.3128054740957966
1.295210166177908
1.2795698924731185
1.2609970674486803
1.241446725317693
1.2209188660801564
1.2023460410557183
1.1837732160312806
1.166177908113392
1.1495601173020529
1.133919843597263
1.1192570869990224
1.1055718475073313
1.0928641251221896
1.0850439882697946
1.0791788856304985
1.0703812316715542
1.0606060606060606
1.0498533724340176
1.0381231671554252
1.0273704789833822
1.0166177908113392
1.0058651026392962
0.9960899315738024
0.9912023460410556
0.9960899315738024
1.0146627565982405
1.0498533724340176
1.110459433040078
1.2003910068426198
1.3196480938416422
1.4643206256109482
1.6275659824046922
1.7986314760508308
1.967741935483871
2.1270772238514173
2.271749755620724
2.398826979472141
2.50733137829912
2.587487781036168
2.6480938416422286
2.705767350928641
2.7546432062561097
2.7947214076246336
2.825024437927664
2.8455522971652005
2.859237536656892
2.866080156402737
2.866080156402737
2.8582600195503423
2.844574780058651
2.8240469208211145
2.798631476050831
2.768328445747801
2.7311827956989245
2.6852394916911044
2.63049853372434
2.567937438905181
2.4975562072336266
2.420332355816227
2.3391984359726297
2.254154447702835
2.16911045943304
2.0879765395894427
2.018572825024438
1.9579667644183771
1.8963831867057677
1.8377321603128052
1.7839687194525904
1.7360703812316716
1.6959921798631477
1.6608015640273706
1.6285434995112416
1.6001955034213098
1.573802541544477
1.547409579667644
1.525904203323558
1.5073313782991202
1.4868035190615836
1.466275659824047
1.444770283479961
1.4222873900293256
1.3998044965786902
1.3773216031280548
1.35386119257087
1.3294232649071358
1.305962854349951
1.2825024437927663
1.2639296187683284
1.2482893450635386
1.2316715542521994
1.2150537634408602
1.198435972629521
1.181818181818182
1.1652003910068427
1.147605083088954
1.1300097751710656
1.1133919843597262
