ppg
1.3098729227761483
1.3225806451612905
1.3294232649071358
1.3294232649071358
1.3235581622678396
1.3118279569892473
1.295210166177908
1.273704789833822
1.249266862170088
1.227761485826002
1.206256109481916
1.1798631476050832
1.1515151515151516
1.121212121212121
1.088954056695992
1.056695992179863
1.0273704789833822
1.0058651026392962
0.9990224828934506
1.0166177908113392
1.0684261974584557
1.1612903225806452
1.2727272727272727
1.4086021505376345
1.5923753665689149
1.8064516129032255
2.034213098729228
2.257086999022483
2.4604105571847508
2.633431085043988
2.76930596285435
2.865102639296188
2.9227761485826003
2.945259042033236
2.93841642228739
2.90811339198436
2.8582600195503423
2.789833822091887
2.7067448680351904
2.610948191593353
2.505376344086021
2.391006842619746
2.2688172043010755
2.1407624633431084
2.0087976539589443
1.8748778103616808
1.7429130009775171
1.6304985337243405
1.5317693059628543
1.4301075268817205
1.3333333333333333
1.2482893450635386
1.1779081133919844
1.1251221896383188
1.0899315738025417
1.0713587487781036
1.067448680351906
1.0772238514173995
1.0977517106549364
1.1221896383186705
1.1505376344086022
1.1827956989247312
1.2160312805474096
1.2482893450635386
1.2766373411534702
1.300097751710655
1.3176930596285434
1.3284457478005864
1.332355816226784
1.3294232649071358
1.3147605083088951
1.2971652003910068
1.2864125122189638
1.2717497556207231
1.2502443792766371
1.224828934506354
1.1964809384164223
1.166177908113392
1.1348973607038124
1.1036168132942326
1.0713587487781036
1.0391006842619743
1.0117302052785924
0.9951124144672532
0.9951124144672532
1.0166177908113392
1.1085043988269794
1.2209188660801564
1.327468230694037
1.4887585532746823
1.7487781036168133
2.0009775171065494
2.1818181818181817
2.3734115347018574
2.550342130987292
2.699902248289345
2.8132942326490715
2.8826979472140764
2.9159335288367547
2.9257086999022484
2.9100684261974585
2.8719452590420333
2.812316715542522
2.736070381231672
2.6451612903225805
2.5434995112414467
2.43108504398827
2.310850439882698
2.1847507331378297
2.0361681329423265
1.9100684261974583
1.8142717497556209
1.7028347996089932
1.5610948191593352
1.435972629521017
1.3509286412512218
1.2688172043010753
1.1886608015640274
1.1270772238514175
1.0909090909090908
1.0684261974584557
1.0635386119257086
1.0694037145650048
1.086021505376344
1.1173020527859236
1.1505376344086022
1.176930596285435
1.206256109481916
1.2434017595307918
1.2727272727272727
1.29227761485826
1.305962854349951
1.316715542521994
1.321603128054741
1.321603128054741
1.313782991202346
1.300097751710655
1.281524926686217
1.2580645161290325
1.2316715542521994
1.203323558162268
1.173998044965787
1.142717497556207
1.1114369501466277
1.0791788856304985
1.053763440860215
1.032258064516129
1.0097751710654936
0.9960899315738024
1.0019550342130987
1.0361681329423265
1.10752688172043
1.2228739002932552
1.380254154447703
1.5747800586510263
1.7947214076246334
2.024437927663734
2.249266862170088
2.4301075268817205
2.5747800586510263
2.708699902248289
2.81622678396872
2.889540566959922
2.927663734115347
2.9335288367546437
2.911045943304008
2.8641251221896384
2.7976539589442817
2.7155425219941347
2.619745845552297
2.525904203323558
2.429130009775171
2.3167155425219943
2.1945259042033234
2.070381231671554
1.945259042033236
1.8162267839687196
1.6871945259042034
1.564027370478983
1.4496578690127078
1.3470185728250244
1.260019550342131
1.187683284457478
1.1378299120234605
1.1065493646138806
1.0840664711632453
1.0733137829912025
1.075268817204301
1.0879765395894427
1.1094819159335287
1.1368523949169111
1.1681329423264908
1.2003910068426198
1.2297165200391007
1.2551319648093842
1.2756598240469208
1.2913000977517106
1.3010752688172045
1.3040078201368523
1.3010752688172045
1.29227761485826
1.2776148582600195
1.2570869990224829
1.2326490713587488
1.2043010752688172
1.1730205278592376
1.1397849462365592
1.1055718475073313
1.078201368523949
1.053763440860215
1.0234604105571847
0.9912023460410556
0.9579667644183774
0.9296187683284456
0.9130009775171064
0.9178885630498532
0.95405669599218
1.029325513196481
1.1495601173020529
1.313782991202346
1.482893450635386
1.66177908113392
1.8748778103616808
2.0977517106549364
2.310850439882698
2.498533724340176
2.6529814271749754
2.768328445747801
2.843597262952102
2.881720430107527
2.8856304985337244
2.860215053763441
2.8103616813294234
2.748778103616813
2.67644183773216
2.5865102639296187
2.482893450635386
2.367546432062561
2.244379276637341
2.113391984359726
1.9775171065493649
1.839687194525904
1.7018572825024438
1.56891495601173
1.4437927663734116
1.3421309872922775
1.2580645161290325
1.176930596285435
1.1065493646138806
1.050830889540567
1.0127077223851415
0.9912023460410556
0.9853372434017597
0.9931573802541545
1.0127077223851415
1.0410557184750733
1.075268817204301
1.1114369501466277
1.1456500488758554
1.176930596285435
1.206256109481916
1.2326490713587488
1.2531769305962854
1.267839687194526
1.2756598240469208
1.2766373411534702
1.270772238514174
1.260019550342131
1.2434017595307918
1.2228739002932552
1.2043010752688172
1.1857282502443791
1.1612903225806452
1.133919843597263
1.104594330400782
1.075268817204301
1.0449657869012707
1.0156402737047898
0.9902248289345064
0.9726295210166178
0.9716520039100685
0.9960899315738024
1.0557184750733135
1.1368523949169111
1.2453567937438903
1.4027370478983383
1.5992179863147604
1.8201368523949168
2.050830889540567
2.274682306940372
2.4789833822091887
2.652003910068426
2.7869012707722387
2.8826979472140764
2.9393939393939394
2.959921798631476
2.952101661779081
2.9227761485826003
2.8729227761485827
2.8054740957966766
2.721407624633431
2.6236559139784945
2.515151515151515
2.3978494623655915
2.272727272727273
2.1417399804496577
2.007820136852395
1.873900293255132
1.758553274682307
1.656891495601173
1.5503421309872922
1.4506353861192571
1.3616813294232648
1.2873900293255132
1.2297165200391007
1.1886608015640274
1.164222873900293
1.1564027370478984
1.1622678396871946
1.1798631476050832
1.203323558162268
1.23069403714565
1.262952101661779
1.2971652003910068
1.3304007820136852
1.359726295210166
1.3851417399804498
1.4037145650048877
1.41544477028348
1.4203323558162269
1.418377321603128
1.409579667644184
1.3949169110459434
1.380254154447703
1.364613880742913
1.343108504398827
1.316715542521994
1.2873900293255132
1.2570869990224829
1.2267839687194526
1.1964809384164223
1.1652003910068427
1.133919843597263
1.1065493646138806
1.0869990224828934
1.0821114369501466
1.0957966764418376
1.1368523949169111
1.2150537634408602
1.3362658846529814
1.499511241446725
1.6979472140762464
1.919843597262952
2.1495601173020527
2.3704789833822093
2.570869990224829
2.740957966764418
2.860215053763441
2.9393939393939394
2.997067448680352
3.0283479960899315
3.03128054740958
3.006842619745845
2.959921798631476
2.8944281524926687
2.812316715542522
2.717497556207233
2.611925708699902
2.4975562072336266
2.376344086021505
2.2639296187683287
2.155425219941349
2.034213098729228
1.9071358748778104
1.780058651026393
1.6578690127077225
1.544477028347996
1.4418377321603129
1.3519061583577712
1.2766373411534702
1.2179863147605083
1.1759530791788857
1.1515151515151516
1.1407624633431086
1.13880742913001
1.1466275659824048
1.1622678396871946
1.1837732160312806
1.209188660801564
1.2365591397849462
1.262952101661779
1.2873900293255132
1.3088954056695992
1.3255131964809383
1.3372434017595307
1.3440860215053765
1.346041055718475
1.3421309872922775
1.332355816226784
1.3176930596285434
1.2991202346041055
1.2756598240469208
1.2502443792766371
1.2228739002932552
1.1945259042033236
1.1652003910068427
1.1348973607038124
1.1094819159335287
1.0879765395894427
1.064516129032258
1.0469208211143697
1.0439882697947214
1.0664711632453567
1.1231671554252198
1.2218963831867058
1.364613880742913
1.5464320625610948
1.7575757575757576
1.9843597262952104
2.212121212121212
2.39980449657869
2.5532746823069403
2.6989247311827955
2.819159335288368
2.9071358748778104
2.960899315738025
2.981427174975562
2.9716520039100685
2.936461388074292
2.8797653958944283
2.7966764418377323
2.697947214076246
2.6070381231671558
2.517106549364614
2.4144672531769307
2.303030303030303
2.185728250244379
2.0635386119257086
1.9393939393939397
1.8162267839687196
1.6979472140762464
1.585532746823069
1.482893450635386
1.3919843597262953
1.316715542521994
1.2619745845552297
1.224828934506354
1.1964809384164223
1.1788856304985338
1.1730205278592376
1.1779081133919844
1.1925708699902249
1.2140762463343109
1.2404692082111437
1.2697947214076246
1.2991202346041055
1.327468230694037
1.3509286412512218
1.3695014662756595
1.3851417399804498
1.3958944281524928
1.3998044965786902
1.3988269794721409
1.3919843597262953
1.3792766373411536
1.3616813294232648
1.3411534701857282
1.3176930596285434
1.29227761485826
1.2658846529814272
1.2443792766373412
1.224828934506354
1.2003910068426198
1.1730205278592376
1.1456500488758554
1.1221896383186705
1.1065493646138806
1.10752688172043
1.133919843597263
1.1935483870967742
1.2913000977517106
1.4281524926686218
1.5718475073313782
1.726295210166178
1.913978494623656
2.113391984359726
2.30791788856305
2.4819159335288368
2.627565982404692
2.7390029325513194
2.8152492668621703
2.857282502443793
2.868035190615836
2.8514173998044967
2.812316715542522
2.7614858260019552
2.6989247311827955
2.6207233626588464
2.5288367546432062
2.4271749755620724
2.3167155425219943
2.198435972629521
2.0762463343108504
1.9501466275659824
1.8240469208211143
1.7008797653958945
1.5835777126099706
1.4887585532746823
1.409579667644184
1.3313782991202343
1.2639296187683284
1.209188660801564
1.1700879765395895
1.1466275659824048
1.1378299120234605
1.142717497556207
1.1583577712609971
1.181818181818182
1.2111436950146628
1.2434017595307918
1.2746823069403714
1.3040078201368523
1.3333333333333333
1.359726295210166
1.3822091886608017
1.3998044965786902
1.4105571847507332
1.41544477028348
1.4134897360703813
1.404692082111437
1.391006842619746
1.3724340175953078
1.3558162267839686
1.33822091886608
1.3147605083088951
1.2883675464320623
1.2609970674486803
1.2326490713587488
1.203323558162268
1.173998044965787
1.1456500488758554
1.1231671554252198
1.1133919843597262
1.1231671554252198
1.1622678396871946
1.219941348973607
1.3040078201368523
1.4320625610948192
1.5972629521016617
1.7898338220918866
1.9951124144672527
2.198435972629521
2.3870967741935485
2.550342130987292
2.681329423264907
2.777126099706745
2.8377321603128056
2.863147605083089
2.8611925708699903
2.8377321603128056
2.7947214076246336
2.7341153470185726
2.6578690127077222
2.567937438905181
2.4672531769305963
2.357771260997068
2.239491691104594
2.1163245356793743
1.989247311827957
1.87683284457478
1.7732160312805474
1.66177908113392
1.552297165200391
1.4496578690127078
1.3577712609970674
1.2805474095796676
1.2189638318670577
1.1749755620723363
1.1466275659824048
1.133919843597263
1.1358748778103618
1.1495601173020529
1.1700879765395895
1.1964809384164223
1.2287390029325511
1.2639296187683284
1.300097751710655
1.335288367546432
1.3665689149560116
1.392961876832845
1.4134897360703813
1.4271749755620724
1.434017595307918
1.4330400782013686
1.4291300097751711
1.4222873900293256
1.409579667644184
1.391006842619746
1.3685239491691104
1.343108504398827
1.316715542521994
1.2883675464320623
1.2590420332355816
1.2297165200391007
1.1994134897360704
1.1691104594330402
1.142717497556207
1.1270772238514175
1.1241446725317692
1.1378299120234605
1.1788856304985338
1.2551319648093842
1.370478983382209
1.52297165200391
1.7057673509286413
1.90811339198436
2.115347018572825
2.312805474095797
2.489736070381232
2.6236559139784945
2.719452590420332
2.798631476050831
2.850439882697948
2.8729227761485827
2.868035190615836
2.838709677419355
2.788856304985337
2.720430107526881
2.636363636363636
2.5405669599217986
2.434017595307918
2.318670576735093
2.2111436950146626
2.1065493646138806
1.989247311827957
1.866080156402737
1.7419354838709675
1.6217008797653958
1.509286412512219
1.4076246334310851
1.321603128054741
1.2512218963831867
1.198435972629521
1.163245356793744
1.1456500488758554
1.142717497556207
1.1505376344086022
1.1681329423264908
1.1945259042033236
1.227761485826002
1.2639296187683284
1.3020527859237536
1.3391984359726294
1.3734115347018572
1.4037145650048877
1.4281524926686218
1.4457478005865103
1.457478005865103
1.4633431085043989
1.4623655913978495
1.4545454545454546
1.4418377321603129
1.4242424242424243
1.401759530791789
1.3763440860215057
1.348973607038123
1.3196480938416422
1.2903225806451613
1.260019550342131
1.2346041055718475
1.2121212121212122
1.1857282502443791
1.1612903225806452
1.144672531769306
1.1436950146627567
1.1681329423264908
1.2258064516129032
1.321603128054741
1.458455522971652
1.6304985337243405
1.8269794721407624
2.0361681329423265
2.217986314760508
2.375366568914956
2.532746823069404
2.6715542521994133
2.8044965786901277
2.916911045943304
2.9765395894428157
2.995112414467253
2.979472140762464
2.935483870967742
2.8690127077223853
2.78494623655914
2.697947214076246
2.6050830889540566
2.495601173020528
2.3734115347018574
2.242424242424242
2.1065493646138806
1.967741935483871
1.83088954056696
1.696969696969697
1.5708699902248289
1.4545454545454546
1.3519061583577712
1.2658846529814272
1.203323558162268
1.160312805474096
1.1270772238514175
1.10752688172043
1.1016617790811338
1.110459433040078
1.1300097751710656
1.1593352883675463
1.1935483870967742
1.2316715542521994
1.270772238514174
1.3079178885630498
1.3391984359726294
1.3655913978494625
1.3870967741935485
1.4027370478983383
1.4115347018572826
1.414467253176931
1.409579667644184
1.3978494623655917
1.3812316715542523
1.359726295210166
1.3343108504398826
1.3069403714565004
1.2766373411534702
1.2512218963831867
1.227761485826002
1.198435972629521
1.166177908113392
1.1329423264907137
1.1016617790811338
1.0762463343108504
1.064516129032258
1.075268817204301
1.118279569892473
1.2013685239491692
1.3294232649071358
1.4711632453567938
1.629521016617791
1.8318670576735088
2.0547409579667644
2.278592375366569
2.487781036168133
2.6695992179863146
2.8152492668621703
2.921798631476051
2.988269794721408
3.0175953079178885
3.013685239491691
2.9824046920821115
2.9335288367546437
2.8699902248289346
2.7869012707722387
2.689149560117302
2.5777126099706744
2.4565004887585533
2.3274682306940373
2.193548387096774
2.0547409579667644
1.9149560117302051
1.7781036168132942
1.64613880742913
1.5366568914956011
1.4437927663734116
1.3519061583577712
1.267839687194526
1.198435972629521
1.1456500488758554
1.110459433040078
1.0918866080156402
1.0899315738025417
1.1016617790811338
1.1251221896383188
1.1564027370478984
1.1925708699902249
1.227761485826002
1.2609970674486803
1.295210166177908
1.327468230694037
1.3548387096774193
1.3763440860215057
1.391006842619746
1.3978494623655917
1.3978494623655917
1.391006842619746
1.3773216031280548
1.359726295210166
1.3421309872922775
1.3235581622678396
1.300097751710655
1.2727272727272727
1.2424242424242424
1.2111436950146628
1.1788856304985338
1.1456500488758554
1.1124144672531768
1.0821114369501466
1.0596285434995112
1.0527859237536656
1.0654936461388074
1.1026392961876832
1.1788856304985338
1.2981427174975562
1.4594330400782014
1.656891495601173
1.8778103616813293
2.10850439882698
2.332355816226784
2.5347018572825024
2.705767350928641
2.8396871945259043
2.9335288367546437
2.98435972629521
3.0019550342130987
2.995112414467253
2.964809384164223
2.9120234604105573
2.8406647116324537
2.752688172043011
2.6510263929618767
2.5386119257087
2.4164222873900294
2.286412512218964
2.1515151515151514
2.029325513196481
1.9149560117302051
1.7898338220918866
1.6627565982404693
1.5405669599217986
1.4281524926686218
1.3294232649071358
1.24633431085044
1.1808406647116323
1.133919843597263
1.104594330400782
1.0918866080156402
1.0948191593352885
1.10752688172043
1.1290322580645162
1.1593352883675463
1.1945259042033236
1.2336265884652982
1.2717497556207231
1.3079178885630498
1.3401759530791788
1.3655913978494625
1.3841642228739004
1.3958944281524928
1.4007820136852396
1.4007820136852396
1.3958944281524928
1.3841642228739004
1.367546432062561
1.3450635386119256
1.3186705767350928
1.2903225806451613
1.260019550342131
1.227761485826002
1.1945259042033236
1.160312805474096
1.126099706744868
1.093841642228739
1.0713587487781036
1.0586510263929618
1.0576735092864125
1.0801564027370478
1.1368523949169111
1.2346041055718475
1.3763440860215057
1.5581622678396871
1.7702834799608993
1.9980449657869013
2.2267839687194524
2.439882697947214
2.606060606060606
2.7331378299120237
2.8455522971652005
2.9286412512218964
2.9775171065493646
2.994134897360704
2.9804496578690127
2.940371456500489
2.878787878787879
2.798631476050831
2.7038123167155423
2.5972629521016617
2.479960899315738
2.36950146627566
2.260019550342131
2.134897360703812
2.0019550342130987
1.866080156402737
1.7311827956989247
1.6021505376344083
1.4819159335288368
1.3743890518084063
1.281524926686217
1.206256109481916
1.1485826001955035
1.1124144672531768
1.093841642228739
1.0869990224828934
1.0918866080156402
1.1085043988269794
1.1358748778103618
1.1691104594330402
1.2072336265884651
1.24633431085044
1.2834799608993157
1.3176930596285434
1.346041055718475
1.3685239491691104
1.3851417399804498
1.3958944281524928
1.3998044965786902
1.3978494623655917
1.3890518084066472
1.3743890518084063
1.3558162267839686
1.332355816226784
1.305962854349951
1.2776148582600195
1.2473118279569892
1.2150537634408602
1.1886608015640274
1.164222873900293
1.1348973607038124
1.104594330400782
1.078201368523949
1.06158357771261
1.064516129032258
1.0957966764418376
1.1652003910068427
1.2776148582600195
1.4330400782013686
1.6138807429130009
1.81524926686217
2.004887585532747
2.1818181818181817
2.3714565004887587
2.549364613880743
2.699902248289345
2.8152492668621703
2.89247311827957
2.932551319648094
2.9393939393939394
2.916911045943304
2.8690127077223853
2.801564027370479
2.7262952101661777
2.644183773216031
2.544477028347996
2.432062561094819
2.3098729227761488
2.179863147605083
2.0439882697947214
1.906158357771261
1.76930596285435
1.635386119257087
1.509286412512219
1.393939393939394
1.29227761485826
1.2160312805474096
1.1593352883675463
1.110459433040078
1.075268817204301
1.0557184750733135
1.0518084066471165
1.06158357771261
1.083088954056696
1.1133919843597262
1.1495601173020529
1.1886608015640274
1.227761485826002
1.2619745845552297
1.2913000977517106
1.3186705767350928
1.3411534701857282
1.3577712609970674
1.367546432062561
1.3695014662756595
1.3636363636363635
1.3519061583577712
1.3343108504398826
1.3128054740957966
1.2873900293255132
1.2590420332355816
1.2346041055718475
1.2121212121212122
1.18475073313783
1.1544477028347997
1.1221896383186705
1.088954056695992
1.056695992179863
1.0312805474095796
1.0175953079178883
1.0254154447702837
1.0635386119257086
1.1407624633431086
1.2375366568914956
1.359726295210166
1.5298142717497556
1.7341153470185728
1.9550342130987293
2.176930596285435
2.3851417399804498
2.5669599217986314
2.713587487781036
2.822091886608016
2.89247311827957
2.9266862170087977
2.9286412512218964
2.905180840664712
2.8611925708699903
2.7966764418377323
2.7155425219941347
2.6207233626588464
2.5141739980449658
2.396871945259042
2.271749755620724
2.139784946236559
2.003910068426197
1.866080156402737
1.729227761485826
1.6138807429130009
1.512218963831867
1.4086021505376345
1.3118279569892473
1.2267839687194526
1.1573802541544478
1.104594330400782
1.0694037145650048
1.0518084066471165
1.0498533724340176
1.06158357771261
1.0840664711632453
1.1124144672531768
1.144672531769306
1.181818181818182
1.219941348973607
1.2570869990224829
1.2903225806451613
1.3186705767350928
1.3401759530791788
1.3558162267839686
1.3636363636363635
1.364613880742913
1.3587487781036167
1.3470185728250244
1.3343108504398826
1.3196480938416422
1.2991202346041055
1.273704789833822
1.2443792766373412
1.2130987292277615
1.1808406647116323
1.147605083088954
1.1133919843597262
1.0801564027370478
1.0488758553274682
1.0263929618768328
1.0175953079178883
1.0283479960899315
1.0654936461388074
1.13880742913001
1.2541544477028348
1.4115347018572826
1.6050830889540566
1.823069403714565
2.050830889540567
2.272727272727273
2.474095796676442
2.6451612903225805
2.779081133919844
2.866080156402737
2.913978494623656
2.93841642228739
2.935483870967742
2.9071358748778104
2.8563049853372435
2.7859237536656893
2.699902248289345
2.60019550342131
2.489736070381232
2.36950146627566
2.241446725317693
2.124144672531769
2.0097751710654936
1.8826979472140764
1.750733137829912
1.6207233626588464
1.495601173020528
1.3812316715542523
1.2795698924731185
1.1935483870967742
1.1251221896383188
1.0762463343108504
1.04594330400782
1.0332355816226784
1.0361681329423265
1.050830889540567
1.075268817204301
1.10752688172043
1.1456500488758554
1.1867057673509287
1.227761485826002
1.2658846529814272
1.300097751710655
1.3284457478005864
1.348973607038123
1.3626588465298142
1.3714565004887584
1.3743890518084063
1.370478983382209
1.359726295210166
1.343108504398827
1.321603128054741
1.2961876832844574
1.2668621700879763
1.2355816226783969
1.203323558162268
1.1710654936461389
1.1378299120234605
1.1036168132942326
1.0762463343108504
1.0547409579667644
1.0342130987292275
1.0234604105571847
1.032258064516129
1.072336265884653
1.1515151515151516
1.2746823069403714
1.439882697947214
1.6392961876832846
1.86119257086999
2.089931573802541
2.2825024437927666
2.4457478005865103
2.6041055718475072
2.739980449657869
2.8426197458455524
2.909090909090909
2.940371456500489
2.93841642228739
2.90811339198436
2.854349951124145
2.7810361681329425
2.69208211143695
2.589442815249267
2.489736070381232
2.388074291300098
2.270772238514174
2.142717497556207
2.0087976539589443
1.8729227761485825
1.7380254154447703
1.607038123167155
1.4848484848484849
1.3743890518084063
1.2776148582600195
1.1974584555229717
1.1407624633431086
1.1026392961876832
1.075268817204301
1.06158357771261
1.06158357771261
1.0742913000977516
1.096774193548387
1.1280547409579669
1.164222873900293
1.2023460410557183
1.2404692082111437
1.2756598240469208
1.305962854349951
1.3294232649071358
1.346041055718475
1.3577712609970674
1.3626588465298142
1.359726295210166
1.3499511241446724
1.3333333333333333
1.310850439882698
1.2834799608993157
1.252199413489736
1.2179863147605083
1.181818181818182
1.1515151515151516
1.1241446725317692
1.0909090909090908
1.0547409579667644
1.018572825024438
0.9921798631476052
0.975562072336266
0.9638318670576737
0.9706744868035192
1.0068426197458455
1.0821114369501466
1.2003910068426198
1.3626588465298142
1.5288367546432062
1.7028347996089932
1.9120234604105573
2.1300097751710654
2.3382209188660803
2.5210166177908118
2.670576735092864
2.7810361681329425
2.852394916911046
2.886608015640274
2.886608015640274
2.857282502443793
2.811339198435973
2.7497556207233624
2.668621700879765
2.5718475073313782
2.462365591397849
2.343108504398827
2.2140762463343107
2.078201368523949
1.9374389051808407
1.7956989247311828
1.6559139784946235
1.521994134897361
1.396871945259042
1.2971652003910068
1.217008797653959
1.1397849462365592
1.075268817204301
1.0263929618768328
0.9951124144672532
0.9804496578690128
0.9824046920821116
0.997067448680352
1.0234604105571847
1.0576735092864125
1.0957966764418376
1.133919843597263
1.1700879765395895
1.2072336265884651
1.2424242424242424
1.2727272727272727
1.2961876832844574
1.3128054740957966
