ppg
1.8347996089931573
1.8025415444770283
1.76930596285435
1.7360703812316716
1.7018572825024438
1.667644183773216
1.6334310850439884
1.5992179863147604
1.5650048875855327
1.5317693059628543
1.504398826979472
1.479960899315738
1.4535679374389052
1.4281524926686218
1.4037145650048877
1.380254154447703
1.356793743890518
1.3333333333333333
1.3118279569892473
1.2932551319648091
1.2756598240469208
1.2590420332355816
1.24633431085044
1.2355816226783969
1.224828934506354
1.2140762463343109
1.203323558162268
1.1925708699902249
1.1837732160312806
1.1759530791788857
1.1681329423264908
1.1593352883675463
1.1495601173020529
1.1397849462365592
1.130987292277615
1.1251221896383188
1.121212121212121
1.115347018572825
1.1085043988269794
1.1026392961876832
1.096774193548387
1.0918866080156402
1.0869990224828934
1.083088954056696
1.078201368523949
1.0742913000977516
1.0703812316715542
1.0694037145650048
1.0703812316715542
1.0703812316715542
1.0694037145650048
1.0684261974584557
1.067448680351906
1.067448680351906
1.067448680351906
1.067448680351906
1.067448680351906
1.067448680351906
1.067448680351906
1.0664711632453567
1.067448680351906
1.0694037145650048
1.0703812316715542
1.0713587487781036
1.075268817204301
1.086021505376344
1.1094819159335287
1.1495601173020529
1.2111436950146628
1.2981427174975562
1.4105571847507332
1.5464320625610948
1.6764418377321604
1.804496578690127
1.9521016617790807
2.102639296187683
2.24633431085044
2.376344086021505
2.4887585532746823
2.582600195503421
2.658846529814272
2.720430107526881
2.7702834799608995
2.811339198435973
2.8367546432062563
2.852394916911046
2.8690127077223853
2.8826979472140764
2.89247311827957
2.895405669599218
2.8914956011730206
2.878787878787879
2.857282502443793
2.8260019550342133
2.782991202346041
2.729227761485826
2.665689149560117
2.60019550342131
2.5317693059628543
2.453567937438905
2.3714565004887587
2.2883675464320627
2.2082111436950145
2.133919843597263
2.0664711632453567
2.007820136852395
1.956989247311828
1.913978494623656
1.87683284457478
1.847507331378299
1.8211143695014664
1.793743890518084
1.7663734115347018
1.7380254154447703
1.7086999022482894
1.6793743890518085
1.6490713587487782
1.6177908113391983
1.58455522971652
1.5513196480938416
1.5180840664711632
1.4848484848484849
1.458455522971652
1.4349951124144673
1.409579667644184
1.3841642228739004
1.3587487781036167
1.3333333333333333
1.3098729227761483
1.2883675464320623
1.267839687194526
1.249266862170088
1.2326490713587488
1.217008797653959
1.2052785923753666
1.1964809384164223
1.1867057673509287
1.1759530791788857
1.1652003910068427
1.1534701857282503
1.141739980449658
1.1300097751710656
1.1192570869990224
1.110459433040078
1.1016617790811338
1.093841642228739
1.086021505376344
1.0811339198435972
1.078201368523949
1.072336265884653
1.0654936461388074
1.0576735092864125
1.0498533724340176
1.0420332355816226
1.035190615835777
1.0283479960899315
1.0234604105571847
1.0205278592375366
1.018572825024438
1.0195503421309873
1.021505376344086
1.021505376344086
1.0205278592375366
1.0195503421309873
1.018572825024438
1.0166177908113392
1.0156402737047898
1.0166177908113392
1.0175953079178883
1.018572825024438
1.0205278592375366
1.021505376344086
1.0234604105571847
1.0263929618768328
1.0263929618768328
1.0254154447702837
1.024437927663734
1.024437927663734
1.0263929618768328
1.0361681329423265
1.0576735092864125
1.0957966764418376
1.1564027370478984
1.2424242424242424
1.335288367546432
1.439882697947214
1.573802541544477
1.7272727272727273
1.8885630498533723
2.0498533724340176
2.2023460410557183
2.340175953079179
2.4604105571847508
2.5610948191593352
2.6451612903225805
2.7126099706744866
2.7673509286412514
2.8044965786901277
2.8299120234604107
2.855327468230694
2.878787878787879
2.897360703812317
2.911045943304008
2.917888563049853
2.916911045943304
2.9071358748778104
2.886608015640274
2.8563049853372435
2.8152492668621703
2.768328445747801
2.7145650048875853
2.6510263929618767
2.578690127077224
2.498533724340176
2.41544477028348
2.3304007820136854
2.247311827956989
2.16911045943304
2.0977517106549364
2.035190615835777
1.981427174975562
1.9345063538611929
1.8973607038123168
1.866080156402737
1.835777126099707
1.8064516129032255
1.7771260997067448
1.7487781036168133
1.7204301075268815
1.6911045943304008
1.66177908113392
1.6314760508308896
1.6001955034213098
1.56891495601173
1.541544477028348
1.517106549364614
1.4897360703812317
1.4613880742913
1.434017595307918
1.4076246334310851
1.3812316715542523
1.356793743890518
1.3333333333333333
1.3128054740957966
1.2942326490713587
1.2776148582600195
1.2609970674486803
1.249266862170088
1.2394916911045943
1.227761485826002
1.2160312805474096
1.2043010752688172
1.1935483870967742
1.1827956989247312
1.1730205278592376
1.163245356793744
1.1534701857282503
1.144672531769306
1.1368523949169111
1.130987292277615
1.1280547409579669
1.1231671554252198
1.1163245356793745
1.110459433040078
1.104594330400782
1.099706744868035
1.0948191593352885
1.0899315738025417
1.0850439882697946
1.0791788856304985
1.0742913000977516
1.0694037145650048
1.0684261974584557
1.0694037145650048
1.0654936461388074
1.0596285434995112
1.056695992179863
1.053763440860215
1.050830889540567
1.0488758553274682
1.0488758553274682
1.053763440860215
1.0684261974584557
1.0977517106549364
1.1378299120234605
1.1925708699902249
1.2746823069403714
1.383186705767351
1.5141739980449658
1.6637341153470186
1.823069403714565
1.9833822091886608
2.1378299120234603
2.280547409579668
2.407624633431085
2.515151515151515
2.592375366568915
2.649071358748778
2.7008797653958942
2.744868035190616
2.7810361681329425
2.8084066471163247
2.8299120234604107
2.8455522971652005
2.854349951124145
2.8563049853372435
2.8514173998044967
2.8377321603128056
2.8132942326490715
2.7810361681329425
2.7390029325513194
2.6852394916911044
2.621700879765396
2.548387096774193
2.4682306940371457
2.383186705767351
2.2952101661779083
2.209188660801564
2.1280547409579667
2.053763440860215
1.988269794721408
1.9364613880742916
1.8944281524926687
1.8563049853372435
1.822091886608016
1.7917888563049853
1.7634408602150538
1.7360703812316716
1.7086999022482894
1.6813294232649072
1.6529814271749756
1.6236559139784943
1.5933528836754642
1.5620723362658846
1.5347018572825024
1.509286412512219
1.478983382209189
1.447702834799609
1.4173998044965788
1.388074291300098
1.359726295210166
1.332355816226784
1.3069403714565004
1.2825024437927663
1.260019550342131
1.238514173998045
1.2238514173998043
1.2121212121212122
1.1994134897360704
1.18475073313783
1.1710654936461389
1.1573802541544478
1.144672531769306
1.1329423264907137
1.121212121212121
1.1114369501466277
1.1016617790811338
1.0918866080156402
1.0821114369501466
1.0762463343108504
1.0733137829912025
1.0664711632453567
1.0596285434995112
1.0518084066471165
1.0439882697947214
1.0361681329423265
1.029325513196481
1.0224828934506354
1.0156402737047898
1.0097751710654936
1.0048875855327468
1.002932551319648
1.002932551319648
1.0
0.9960899315738024
0.9921798631476052
0.9882697947214076
0.9853372434017597
0.9833822091886608
0.981427174975562
0.9794721407624634
0.9775171065493646
0.9765395894428152
0.975562072336266
0.9775171065493646
0.9824046920821116
0.9853372434017597
0.9872922776148584
0.9882697947214076
0.989247311827957
0.9902248289345064
0.9912023460410556
0.9931573802541545
0.9951124144672532
0.997067448680352
0.9980449657869012
1.0019550342130987
1.007820136852395
1.0127077223851415
1.0166177908113392
1.018572825024438
1.0205278592375366
1.021505376344086
1.021505376344086
1.0224828934506354
1.0263929618768328
1.0371456500488758
1.0596285434995112
1.099706744868035
1.1515151515151516
1.2209188660801564
1.3225806451612905
1.4545454545454546
1.6129032258064515
1.7898338220918866
1.975562072336266
2.160312805474096
2.335288367546432
2.493646138807429
2.631476050830889
2.7497556207233624
2.834799608993157
2.897360703812317
2.956989247311828
3.010752688172043
3.056695992179863
3.0948191593352883
3.1270772238514173
3.1515151515151514
3.1681329423264906
3.176930596285435
3.177908113391984
3.1700879765395893
3.15347018572825
3.126099706744868
3.089931573802541
3.0449657869012707
2.9902248289345064
2.924731182795699
2.849462365591398
2.766373411534702
2.677419354838709
2.5855327468230693
2.49266862170088
2.4027370478983383
2.318670576735093
2.2482893450635384
2.187683284457478
2.129032258064516
2.0762463343108504
2.0303030303030303
1.991202346041056
1.9560117302052784
1.9227761485826005
1.8905180840664717
1.8592375366568916
1.827956989247312
1.7956989247311828
1.7624633431085044
1.732160312805474
1.7028347996089932
1.6695992179863148
1.6334310850439884
1.5972629521016617
1.563049853372434
1.5298142717497556
1.4975562072336266
1.4672531769305963
1.436950146627566
1.4086021505376345
1.3822091886608017
1.3616813294232648
1.3440860215053765
1.3255131964809383
1.305962854349951
1.2873900293255132
1.270772238514174
1.2561094819159335
1.2424242424242424
1.2287390029325511
1.2160312805474096
1.2023460410557183
1.1896383186705768
1.1779081133919844
1.1700879765395895
1.164222873900293
1.1564027370478984
1.147605083088954
1.13880742913001
1.1300097751710656
1.121212121212121
1.1133919843597262
1.1065493646138806
1.099706744868035
1.093841642228739
1.0879765395894427
1.086021505376344
1.0850439882697946
1.0811339198435972
1.0762463343108504
1.0713587487781036
1.0664711632453567
1.0625610948191593
1.0586510263929618
1.0557184750733135
1.0518084066471165
1.0498533724340176
1.0488758553274682
1.0478983382209188
1.0498533724340176
1.053763440860215
1.0557184750733135
1.0576735092864125
1.0586510263929618
1.0596285434995112
1.0606060606060606
1.0606060606060606
1.0606060606060606
1.0596285434995112
1.0596285434995112
1.06158357771261
1.0694037145650048
1.0850439882697946
1.1124144672531768
1.1583577712609971
1.227761485826002
1.3225806451612905
1.4418377321603129
1.5835777126099706
1.7409579667644184
1.884652981427175
2.0439882697947214
2.189638318670577
2.2737047898338223
2.350928641251222
2.447702834799609
2.530791788856305
2.58455522971652
2.633431085043988
2.674486803519061
2.708699902248289
2.736070381231672
2.758553274682307
2.776148582600196
2.787878787878788
2.793743890518084
2.789833822091887
2.7781036168132944
2.7614858260019552
2.7370478983382207
2.702834799608993
2.6578690127077222
2.6021505376344085
2.5376344086021505
2.464320625610948
2.3870967741935485
2.30791788856305
2.228739002932551
2.160312805474096
2.099706744868035
2.0410557184750733
1.988269794721408
1.9413489736070384
1.900293255131965
1.865102639296188
1.833822091886608
1.8054740957966764
1.7790811339198436
1.7526881720430108
1.726295210166178
1.6989247311827955
1.6744868035190617
1.651026392961877
1.624633431085044
1.5972629521016617
1.5679374389051808
1.5386119257087
1.509286412512219
1.4809384164222874
1.4535679374389052
1.4271749755620724
1.401759530791789
1.3782991202346042
1.359726295210166
1.3440860215053765
1.3264907135874875
1.3079178885630498
1.2903225806451613
1.273704789833822
1.2590420332355816
1.2453567937438903
1.2326490713587488
1.219941348973607
1.2082111436950147
1.1974584555229717
1.1867057673509287
1.1798631476050832
1.173998044965787
1.1671554252199414
1.1593352883675463
1.1505376344086022
1.1407624633431086
1.130987292277615
1.1221896383186705
1.1143695014662756
1.10752688172043
1.1006842619745845
1.0928641251221896
1.0879765395894427
1.0850439882697946
1.0801564027370478
1.075268817204301
1.0713587487781036
1.067448680351906
1.0635386119257086
1.0606060606060606
1.0576735092864125
1.0547409579667644
1.0518084066471165
1.0488758553274682
1.0469208211143697
1.0488758553274682
1.0518084066471165
1.053763440860215
1.0547409579667644
1.0547409579667644
1.0547409579667644
1.0547409579667644
1.053763440860215
1.0518084066471165
1.0498533724340176
1.0478983382209188
1.0478983382209188
1.053763440860215
1.0654936461388074
1.086021505376344
1.1221896383186705
1.1779081133919844
1.2561094819159335
1.3587487781036167
1.482893450635386
1.624633431085044
1.775171065493646
1.927663734115347
2.075268817204301
2.210166177908113
2.315738025415445
2.39980449657869
2.479960899315738
2.550342130987292
2.6099706744868034
2.658846529814272
2.697947214076246
2.730205278592375
2.755620723362659
2.776148582600196
2.790811339198436
2.7996089931573804
2.798631476050831
2.7839687194525906
2.768328445747801
2.752688172043011
2.7262952101661777
2.673509286412512
2.6177908113391983
2.5718475073313782
2.5112414467253177
2.4408602150537635
2.364613880742913
2.2854349951124147
2.2082111436950145
2.1251221896383186
2.0576735092864125
2.0097751710654936
1.9608993157380252
1.9149560117302051
1.873900293255132
1.8387096774193548
1.8074291300097751
1.7790811339198436
1.7526881720430108
1.726295210166178
1.699902248289345
1.675464320625611
1.6520039100684265
1.6265884652981428
1.5992179863147604
1.563049853372434
1.5298142717497556
1.5063538611925709
1.479960899315738
1.452590420332356
1.426197458455523
1.3998044965786902
1.3734115347018572
1.348973607038123
1.3284457478005864
1.3118279569892473
1.2942326490713587
1.2766373411534702
1.260019550342131
1.2443792766373412
1.2297165200391007
1.2121212121212122
1.1974584555229717
1.1867057673509287
1.1759530791788857
1.166177908113392
1.1583577712609971
1.1534701857282503
1.1456500488758554
1.1348973607038124
1.126099706744868
1.1192570869990224
1.1124144672531768
1.104594330400782
1.0977517106549364
1.0899315738025417
1.083088954056696
1.075268817204301
1.0703812316715542
1.0703812316715542
1.0684261974584557
1.0654936461388074
1.06158357771261
1.0576735092864125
1.053763440860215
1.0488758553274682
1.0449657869012707
1.0420332355816226
1.0391006842619743
1.0361681329423265
1.0332355816226784
1.0342130987292275
1.0361681329423265
1.0361681329423265
1.0361681329423265
1.0361681329423265
1.0361681329423265
1.0361681329423265
1.0361681329423265
1.0361681329423265
1.0361681329423265
1.035190615835777
1.0342130987292275
1.0342130987292275
1.0381231671554252
1.0527859237536656
1.0694037145650048
1.0899315738025417
1.1300097751710656
1.2258064516129032
1.3304007820136852
1.4193548387096775
1.5395894428152492
1.6793743890518085
1.828934506353861
1.978494623655914
2.133919843597263
2.2795698924731185
2.376344086021505
2.444770283479961
2.525904203323558
2.6041055718475072
2.6529814271749754
2.6852394916911044
2.720430107526881
2.7536656891495603
2.774193548387097
2.7869012707722387
2.793743890518084
2.792766373411535
2.7869012707722387
2.774193548387097
2.752688172043011
2.721407624633431
2.679374389051808
2.627565982404692
2.565982404692082
2.495601173020528
2.419354838709677
2.340175953079179
2.2688172043010755
2.2023460410557183
2.133919843597263
2.089931573802541
2.06158357771261
2.0205278592375366
1.9775171065493649
1.9374389051808407
1.9012707722385145
1.868035190615836
1.8377321603128052
1.8084066471163245
1.782991202346041
1.7595307917888563
1.732160312805474
1.7028347996089932
1.6715542521994136
1.6392961876832846
1.606060606060606
1.5718475073313782
1.5376344086021505
1.504398826979472
1.4721407624633431
1.4418377321603129
1.412512218963832
1.3890518084066472
1.3685239491691104
1.346041055718475
1.3235581622678396
1.3020527859237536
1.2825024437927663
1.2639296187683284
1.2473118279569892
1.2316715542521994
1.2179863147605083
1.2043010752688172
1.1896383186705768
1.1788856304985338
1.1720430107526882
1.163245356793744
1.1534701857282503
1.1436950146627567
1.133919843597263
1.1241446725317692
1.1143695014662756
1.1065493646138806
1.0977517106549364
1.0899315738025417
1.0821114369501466
1.075268817204301
1.072336265884653
1.0713587487781036
1.0684261974584557
1.0635386119257086
1.0586510263929618
1.0527859237536656
1.0469208211143697
1.0420332355816226
1.0381231671554252
1.0342130987292275
1.0312805474095796
1.0283479960899315
1.029325513196481
1.032258064516129
1.0342130987292275
1.0361681329423265
1.0391006842619743
1.0420332355816226
1.0449657869012707
1.0469208211143697
1.0478983382209188
1.0478983382209188
1.0478983382209188
1.0478983382209188
1.0469208211143697
1.0488758553274682
1.0527859237536656
1.0596285434995112
1.075268817204301
1.104594330400782
1.1534701857282503
1.2267839687194526
1.3264907135874875
1.4516129032258065
1.5992179863147604
1.761485826001955
1.9296187683284456
2.075268817204301
2.203323558162268
2.3362658846529816
2.4604105571847508
2.5698924731182795
2.66177908113392
2.736070381231672
2.7966764418377323
2.8455522971652005
2.884652981427175
2.9149560117302054
2.93841642228739
2.9550342130987293
2.959921798631476
2.956989247311828
2.952101661779081
2.9423264907135875
2.924731182795699
2.897360703812317
2.859237536656892
2.811339198435973
2.752688172043011
2.684261974584555
2.6070381231671558
2.5239491691104594
2.4457478005865103
2.372434017595308
2.2952101661779083
2.218963831867057
2.1485826001955037
2.086021505376344
2.032258064516129
1.986314760508309
1.9472140762463344
1.9130009775171064
1.8807429130009776
1.8504398826979471
1.8211143695014664
1.7947214076246334
1.76930596285435
1.739980449657869
1.7086999022482894
1.675464320625611
1.640273704789834
1.6041055718475072
1.5669599217986314
1.5298142717497556
1.4936461388074291
1.458455522971652
1.4252199413489737
1.3988269794721409
1.3763440860215057
1.3519061583577712
1.327468230694037
1.303030303030303
1.2795698924731185
1.2590420332355816
1.241446725317693
1.2258064516129032
1.2121212121212122
1.1994134897360704
1.1867057673509287
1.1749755620723363
1.166177908113392
1.1583577712609971
1.147605083088954
1.1358748778103618
1.121212121212121
1.1036168132942326
1.0850439882697946
1.064516129032258
1.0410557184750733
1.0156402737047898
0.989247311827957
0.9638318670576737
0.9452590420332356
0.9296187683284456
0.9110459433040078
0.8924731182795699
0.8748778103616813
0.8582600195503421
0.8426197458455523
0.8269794721407625
0.8113391984359726
0.7976539589442815
0.7849462365591398
0.7732160312805474
0.7624633431085044
0.7585532746823069
0.7585532746823069
0.7575757575757576
0.7565982404692082
0.7546432062561095
0.7526881720430108
0.7497556207233627
0.7458455522971652
0.7409579667644184
0.7350928641251222
0.7262952101661779
0.7165200391006843
0.7106549364613881
0.70772238514174
0.7028347996089932
0.6999022482893451
0.7057673509286413
0.7262952101661779
0.7683284457478006
0.8357771260997068
0.9325513196480938
1.0596285434995112
1.2140762463343109
1.388074291300098
1.5483870967741935
1.699902248289345
1.865102639296188
2.0283479960899315
2.1808406647116323
2.315738025415445
2.432062561094819
2.530791788856305
2.613880742913001
2.684261974584555
2.7438905180840663
2.793743890518084
2.835777126099707
2.863147605083089
2.8807429130009776
2.8993157380254155
2.9120234604105573
2.917888563049853
2.913978494623656
2.900293255131965
2.875855327468231
2.838709677419355
2.789833822091887
2.730205278592375
2.6608015640273703
2.590420332355816
2.5190615835777126
2.4389051808406648
2.3548387096774195
2.272727272727273
2.1945259042033234
2.12316715542522
2.06158357771261
2.007820136852395
1.9618768328445748
1.9227761485826005
1.8885630498533723
1.8592375366568916
1.833822091886608
1.8103616813294232
1.7859237536656891
1.7595307917888563
1.732160312805474
1.7028347996089932
1.6735092864125125
1.6422287390029326
1.6109481915933528
1.5806451612903225
1.5503421309872922
1.521016617790811
1.4965786901270772
1.4750733137829912
1.4516129032258065
1.4271749755620724
1.4027370478983383
1.3782991202346042
1.3548387096774193
1.332355816226784
1.3118279569892473
1.29227761485826
1.3333333333333333
1.4056695992179864
1.435972629521017
1.447702834799609
1.4506353861192571
1.4457478005865103
1.4389051808406648
1.4301075268817205
1.4203323558162269
1.4115347018572826
1.4027370478983383
1.393939393939394
1.3861192570869991
1.3782991202346042
1.3714565004887584
1.367546432062561
1.3655913978494625
1.3616813294232648
1.356793743890518
1.3528836754643203
1.3479960899315735
1.343108504398827
1.3391984359726294
1.3343108504398826
1.3304007820136852
1.3264907135874875
1.3225806451612905
1.3196480938416422
1.3196480938416422
1.321603128054741
1.321603128054741
1.321603128054741
1.3225806451612905
1.3235581622678396
1.324535679374389
1.3255131964809383
1.3264907135874875
1.327468230694037
1.3284457478005864
1.3294232649071358
1.3313782991202343
1.3333333333333333
1.3343108504398826
1.3343108504398826
1.3343108504398826
1.3362658846529814
1.343108504398827
1.3587487781036167
1.388074291300098
1.435972629521017
1.5063538611925709
1.6011730205278591
1.7174975562072337
1.8318670576735088
1.949169110459433
2.0879765395894427
2.2346041055718477
2.378299120234604
2.5112414467253177
2.6285434995112413
2.729227761485826
2.812316715542522
2.8797653958944283
2.9345063538611926
2.979472140762464
3.007820136852395
3.026392961876833
3.04594330400782
3.0625610948191597
3.075268817204301
3.083088954056696
3.0840664711632453
3.0772238514174
3.06158357771261
3.0361681329423265
3.0009775171065494
2.956011730205278
2.900293255131965
2.841642228739003
2.779081133919844
2.70772238514174
2.631476050830889
2.5542521994134897
2.4780058651026398
2.406647116324536
2.340175953079179
2.281524926686217
2.23069403714565
2.185728250244379
2.146627565982405
2.114369501466276
2.086021505376344
2.0576735092864125
2.0283479960899315
1.9990224828934504
1.9687194525904204
1.93841642228739
1.9071358748778104
1.8748778103616808
1.8435972629521016
1.812316715542522
1.7810361681329423
1.7487781036168133
1.7223851417399805
1.6979472140762464
1.6715542521994136
1.6441837732160314
1.616813294232649
1.5913978494623655
1.5669599217986314
1.544477028347996
1.5239491691104594
1.5053763440860215
1.4887585532746823
1.4731182795698925
1.4623655913978495
1.4535679374389052
1.4428152492668622
1.4301075268817205
1.418377321603128
1.4066471163245358
1.3958944281524928
1.3851417399804498
1.3743890518084063
1.3636363636363635
1.35386119257087
1.3450635386119256
1.335288367546432
1.3294232649071358
1.3264907135874875
1.321603128054741
1.3157380254154447
1.3098729227761483
1.3040078201368523
1.2981427174975562
1.29227761485826
1.2864125122189638
1.2805474095796676
1.2756598240469208
1.2717497556207231
1.2717497556207231
1.2727272727272727
1.2717497556207231
1.270772238514174
1.2697947214076246
1.267839687194526
1.2668621700879763
1.2649071358748778
1.2639296187683284
1.262952101661779
1.2619745845552297
1.2619745845552297
1.2619745845552297
1.2639296187683284
1.2668621700879763
1.2688172043010753
1.2688172043010753
1.2688172043010753
1.2697947214076246
1.2727272727272727
1.2825024437927663
1.303030303030303
1.33822091886608
1.393939393939394
1.474095796676442
1.560117302052786
1.656891495601173
1.7820136852394917
1.924731182795699
2.0762463343108504
2.2277614858260018
2.3704789833822093
2.5004887585532747
2.6148582600195502
2.710654936461388
2.789833822091887
2.8533724340175954
2.8963831867057674
2.9266862170087977
2.956011730205278
2.983382209188661
3.005865102639296
3.024437927663734
3.037145650048876
3.0449657869012707
3.04594330400782
3.038123167155425
3.021505376344086
2.995112414467253
2.9579667644183774
2.913978494623656
2.8641251221896384
2.803519061583578
2.735092864125122
2.659824046920821
2.582600195503421
2.504398826979472
2.4281524926686218
2.3548387096774195
2.2873900293255134
2.2277614858260018
2.174975562072336
2.131964809384164
2.096774193548387
2.064516129032258
2.034213098729228
2.004887585532747
1.9765395894428155
1.949169110459433
