ppg
2.251221896383187
2.4545454545454546
2.6265884652981426
2.760508308895406
2.857282502443793
2.919843597262952
2.9501466275659824
2.956989247311828
2.9530791788856305
2.93841642228739
2.9149560117302054
2.884652981427175
2.849462365591398
2.8132942326490715
2.776148582600196
2.7390029325513194
2.699902248289345
2.6578690127077222
2.616813294232649
2.5747800586510263
2.5268817204301075
2.4731182795698925
2.4134897360703813
2.346041055718475
2.270772238514174
2.187683284457478
2.0977517106549364
2.0019550342130987
1.906158357771261
1.8142717497556209
1.7311827956989247
1.664711632453568
1.611925708699902
1.5650048875855327
1.5249266862170088
1.4916911045943304
1.4682306940371457
1.4516129032258065
1.4408602150537635
1.4320625610948192
1.4242424242424243
1.4173998044965788
1.4076246334310851
1.3978494623655917
1.3900293255131966
1.3782991202346042
1.3626588465298142
1.346041055718475
1.3284457478005864
1.3088954056695992
1.2873900293255132
1.2688172043010753
1.252199413489736
1.2346041055718475
1.2179863147605083
1.2013685239491692
1.1867057673509287
1.1730205278592376
1.1573802541544478
1.13880742913001
1.1202346041055715
1.104594330400782
1.0899315738025417
1.0762463343108504
1.0654936461388074
1.0586510263929618
1.0547409579667644
1.0527859237536656
1.053763440860215
1.053763440860215
1.0527859237536656
1.0518084066471165
1.0518084066471165
1.0518084066471165
1.0518084066471165
1.0518084066471165
1.0518084066471165
1.0518084066471165
1.0518084066471165
1.0518084066471165
1.0498533724340176
1.0488758553274682
1.0498533724340176
1.050830889540567
1.050830889540567
1.050830889540567
1.050830889540567
1.050830889540567
1.050830889540567
1.050830889540567
1.050830889540567
1.050830889540567
1.050830889540567
1.0527859237536656
1.0547409579667644
1.0547409579667644
1.0527859237536656
1.0498533724340176
1.0488758553274682
1.0478983382209188
1.0449657869012707
1.040078201368524
1.0381231671554252
1.043010752688172
1.0654936461388074
1.1202346041055715
1.1945259042033236
1.2942326490713587
1.4408602150537635
1.6256109481915937
1.8347996089931573
2.053763440860215
2.264907135874878
2.453567937438905
2.6070381231671558
2.7233626588465296
2.803519061583578
2.849462365591398
2.865102639296188
2.857282502443793
2.835777126099707
2.8025415444770285
2.7614858260019552
2.7155425219941347
2.6695992179863146
2.624633431085044
2.579667644183773
2.535679374389052
2.489736070381232
2.441837732160313
2.3900293255131966
2.337243401759531
2.283479960899316
2.219941348973607
2.1495601173020527
2.072336265884653
1.989247311827957
1.9042033235581624
1.8191593352883677
1.7380254154447703
1.6598240469208212
1.58455522971652
1.5180840664711632
1.4672531769305963
1.4301075268817205
1.396871945259042
1.3695014662756595
1.3479960899315735
1.332355816226784
1.321603128054741
1.3128054740957966
1.3040078201368523
1.2913000977517106
1.2756598240469208
1.260019550342131
1.24633431085044
1.2365591397849462
1.227761485826002
1.2160312805474096
1.2003910068426198
1.181818181818182
1.160312805474096
1.1368523949169111
1.1124144672531768
1.0879765395894427
1.0664711632453567
1.0478983382209188
1.032258064516129
1.0224828934506354
1.0146627565982405
1.0048875855327468
0.9921798631476052
0.9775171065493646
0.9628543499511242
0.9491691104594332
0.9393939393939394
0.9305962854349952
0.9237536656891496
0.916911045943304
0.9100684261974584
0.9042033235581622
0.9012707722385142
0.8993157380254154
0.895405669599218
0.8905180840664711
0.884652981427175
0.8787878787878788
0.8729227761485826
0.8660801564027371
0.8611925708699902
0.8592375366568915
0.8582600195503421
0.8572825024437928
0.8582600195503421
0.8621700879765396
0.8641251221896383
0.8651026392961877
0.8660801564027371
0.8660801564027371
0.8660801564027371
0.863147605083089
0.8602150537634409
0.8582600195503421
0.8572825024437928
0.8572825024437928
0.8582600195503421
0.8621700879765396
0.8670576735092864
0.8699902248289345
0.8680351906158358
0.8641251221896383
0.8602150537634409
0.8582600195503421
0.8602150537634409
0.8768328445747801
0.9217986314760508
1.0048875855327468
1.1329423264907137
1.2717497556207231
1.426197458455523
1.6256109481915937
1.847507331378299
2.071358748778104
2.289345063538612
2.482893450635386
2.63049853372434
2.73802541544477
2.812316715542522
2.8582600195503423
2.8797653958944283
2.8836754643206257
2.8719452590420333
2.8484848484848486
2.819159335288368
2.7859237536656893
2.7468230694037143
2.7038123167155423
2.6608015640273703
2.618768328445748
2.576735092864125
2.533724340175953
2.4887585532746823
2.439882697947214
2.3900293255131966
2.3391984359726297
2.2795698924731185
2.2130987292277613
2.1417399804496577
2.0664711632453567
1.989247311827957
1.911045943304008
1.833822091886608
1.7605083088954057
1.6911045943304008
1.6304985337243405
1.5835777126099706
1.5483870967741935
1.5190615835777126
1.4975562072336266
1.4819159335288368
1.4731182795698925
1.4682306940371457
1.4643206256109482
1.4594330400782014
1.4545454545454546
1.447702834799609
1.439882697947214
1.4301075268817205
1.4193548387096775
1.4076246334310851
1.392961876832845
1.3782991202346042
1.3655913978494625
1.3528836754643203
1.3391984359726294
1.3235581622678396
1.3069403714565004
1.2913000977517106
1.2776148582600195
1.2649071358748778
1.2561094819159335
1.2482893450635386
1.238514173998045
1.227761485826002
1.217008797653959
1.2052785923753666
1.195503421309873
1.187683284457478
1.1808406647116323
1.173998044965787
1.1681329423264908
1.163245356793744
1.1612903225806452
1.163245356793744
1.1671554252199414
1.1691104594330402
1.1681329423264908
1.1652003910068427
1.160312805474096
1.1564027370478984
1.1564027370478984
1.1593352883675463
1.163245356793744
1.1681329423264908
1.173998044965787
1.1798631476050832
1.1837732160312806
1.1857282502443791
1.1867057673509287
1.187683284457478
1.1867057673509287
1.18475073313783
1.1837732160312806
1.1827956989247312
1.1827956989247312
1.1827956989247312
1.1827956989247312
1.1827956989247312
1.1837732160312806
1.1857282502443791
1.1867057673509287
1.1857282502443791
1.1837732160312806
1.1827956989247312
1.1808406647116323
1.1788856304985338
1.1788856304985338
1.18475073313783
1.2052785923753666
1.252199413489736
1.3157380254154447
1.401759530791789
1.530791788856305
1.6979472140762464
1.8914956011730208
2.096774193548387
2.2981427174975564
2.4809384164222874
2.635386119257087
2.7565982404692084
2.843597262952102
2.8993157380254155
2.9266862170087977
2.9286412512218964
2.911045943304008
2.881720430107527
2.844574780058651
2.8025415444770285
2.758553274682307
2.7126099706744866
2.667644183773216
2.624633431085044
2.579667644183773
2.530791788856305
2.4809384164222874
2.4359726295210167
2.3900293255131966
2.337243401759531
2.278592375366569
2.2111436950146626
2.136852394916911
2.058651026392962
1.9765395894428155
1.8944281524926687
1.8172043010752688
1.7458455522971652
1.6842619745845553
1.632453567937439
1.5933528836754642
1.5650048875855327
1.543499511241447
1.5288367546432062
1.5180840664711632
1.5102639296187683
1.501466275659824
1.4926686217008798
1.4838709677419355
1.474095796676442
1.4643206256109482
1.4535679374389052
1.4428152492668622
1.43108504398827
1.4164222873900294
1.4007820136852396
1.3841642228739004
1.3685239491691104
1.3519061583577712
1.3313782991202343
1.310850439882698
1.2903225806451613
1.2688172043010753
1.2473118279569892
1.2297165200391007
1.2179863147605083
1.209188660801564
1.198435972629521
1.1886608015640274
1.1808406647116323
1.173998044965787
1.1681329423264908
1.1622678396871946
1.1564027370478984
1.1485826001955035
1.13880742913001
1.1300097751710656
1.1251221896383188
1.1231671554252198
1.1192570869990224
1.115347018572825
1.1133919843597262
1.1124144672531768
1.110459433040078
1.0909090909090908
1.104594330400782
1.1436950146627567
1.2189638318670577
1.3372434017595307
1.4946236559139785
1.653958944281525
1.818181818181818
2.0117302052785924
2.210166177908113
2.3958944281524928
2.558162267839687
2.687194525904203
2.782991202346041
2.8484848484848486
2.886608015640274
2.9012707722385143
2.898338220918866
2.8807429130009776
2.8533724340175954
2.822091886608016
2.7869012707722387
2.748778103616813
2.70772238514174
2.6666666666666665
2.627565982404692
2.5865102639296187
2.5454545454545454
2.5034213098729228
2.458455522971652
2.4086021505376345
2.355816226783969
2.300097751710655
2.233626588465298
2.1593352883675463
2.078201368523949
1.992179863147605
1.905180840664712
1.818181818181818
1.732160312805474
1.6520039100684265
1.5826001955034212
1.5083088954056696
1.4418377321603129
1.3978494623655917
1.3636363636363635
1.3401759530791788
1.3255131964809383
1.3147605083088951
1.3040078201368523
1.2932551319648091
1.281524926686217
1.2688172043010753
1.2561094819159335
1.2434017595307918
1.2326490713587488
1.2209188660801564
1.2043010752688172
1.1837732160312806
1.1612903225806452
1.13880742913001
1.118279569892473
1.0987292277614855
1.0791788856304985
1.0596285434995112
1.0420332355816226
1.0273704789833822
1.013685239491691
1.0058651026392962
1.0019550342130987
0.9960899315738024
0.9902248289345064
0.9843597262952102
0.978494623655914
0.9726295210166178
0.9657869012707724
0.9608993157380256
0.959921798631476
0.9628543499511242
0.967741935483871
0.9745845552297164
0.9824046920821116
0.9902248289345064
0.997067448680352
1.0019550342130987
1.0058651026392962
1.0097751710654936
1.0117302052785924
1.013685239491691
1.0175953079178883
1.0234604105571847
1.029325513196481
1.035190615835777
1.043010752688172
1.0518084066471165
1.0586510263929618
1.0654936461388074
1.0733137829912025
1.0821114369501466
1.0899315738025417
1.096774193548387
1.1016617790811338
1.104594330400782
1.1055718475073313
1.104594330400782
1.1036168132942326
1.1055718475073313
1.1065493646138806
1.1065493646138806
1.104594330400782
1.1006842619745845
1.0987292277614855
1.1006842619745845
1.1085043988269794
1.1280547409579669
1.1700879765395895
1.24633431085044
1.3626588465298142
1.4916911045943304
1.6412512218963833
1.8347996089931573
2.0498533724340176
2.2668621700879767
2.469208211143695
2.643206256109482
2.780058651026393
2.8807429130009776
2.9472140762463344
2.983382209188661
2.995112414467253
2.9853372434017595
2.961876832844575
2.929618768328446
2.8905180840664717
2.8455522971652005
2.7976539589442817
2.748778103616813
2.7008797653958942
2.654936461388074
2.610948191593353
2.5650048875855327
2.517106549364614
2.466275659824047
2.4164222873900294
2.361681329423265
2.2952101661779083
2.219941348973607
2.1378299120234603
2.0518084066471163
1.963831867057673
1.87683284457478
1.7956989247311828
1.7243401759530792
1.6637341153470186
1.6129032258064515
1.5747800586510263
1.5483870967741935
1.5268817204301075
1.512218963831867
1.5034213098729228
1.498533724340176
1.4946236559139785
1.4897360703812317
1.4838709677419355
1.47702834799609
1.4672531769305963
1.455522971652004
1.4418377321603129
1.4291300097751711
1.4164222873900294
1.4007820136852396
1.383186705767351
1.3655913978494625
1.3440860215053765
1.3206256109481915
1.2981427174975562
1.2776148582600195
1.2590420332355816
1.2404692082111437
1.2238514173998043
1.2121212121212122
1.203323558162268
1.1925708699902249
1.1808406647116323
1.1691104594330402
1.1564027370478984
1.147605083088954
1.1407624633431086
1.1358748778103618
1.130987292277615
1.1221896383186705
1.1143695014662756
1.110459433040078
1.1085043988269794
1.10752688172043
1.10752688172043
1.10752688172043
1.10752688172043
1.0928641251221896
1.093841642228739
1.1065493646138806
1.1436950146627567
1.217008797653959
1.332355816226784
1.4897360703812317
1.6529814271749756
1.822091886608016
2.0205278592375366
2.225806451612903
2.419354838709677
2.5884652981427174
2.7223851417399803
2.8211143695014664
2.8856304985337244
2.921798631476051
2.9345063538611926
2.9286412512218964
2.90811339198436
2.8797653958944283
2.84652981427175
2.8084066471163247
2.763440860215054
2.717497556207233
2.673509286412512
2.6295210166177907
2.5855327468230693
2.539589442815249
2.4916911045943304
2.441837732160313
2.3851417399804498
2.3284457478005867
2.270772238514174
2.2023460410557183
2.126099706744868
2.0439882697947214
1.9579667644183771
1.868035190615836
1.7810361681329423
1.699902248289345
1.6236559139784943
1.5562072336265884
1.498533724340176
1.455522971652004
1.423264907135875
1.3949169110459434
1.3714565004887584
1.3528836754643203
1.3411534701857282
1.3304007820136852
1.3186705767350928
1.305962854349951
1.2942326490713587
1.281524926686217
1.2688172043010753
1.2561094819159335
1.2473118279569892
1.2394916911045943
1.2297165200391007
1.2179863147605083
1.206256109481916
1.1935483870967742
1.1808406647116323
1.1691104594330402
1.1564027370478984
1.1436950146627567
1.130987292277615
1.1202346041055715
1.1133919843597262
1.1085043988269794
1.1026392961876832
1.096774193548387
1.0909090909090908
1.0850439882697946
1.0918866080156402
1.1085043988269794
1.1192570869990224
1.1280547409579669
1.133919843597263
1.1368523949169111
1.13880742913001
1.1407624633431086
1.1436950146627567
1.144672531769306
1.1456500488758554
1.1456500488758554
1.1456500488758554
1.1456500488758554
1.1456500488758554
1.1456500488758554
1.1456500488758554
1.1456500488758554
1.1456500488758554
1.147605083088954
1.1495601173020529
1.1495601173020529
1.147605083088954
1.1466275659824048
1.1466275659824048
1.1466275659824048
1.1466275659824048
1.1466275659824048
1.1466275659824048
1.1466275659824048
1.1466275659824048
1.1466275659824048
1.147605083088954
1.1495601173020529
1.1505376344086022
1.1495601173020529
1.1466275659824048
1.144672531769306
1.1495601173020529
1.1691104594330402
1.2130987292277615
1.2932551319648091
1.4115347018572826
1.5679374389051808
1.726295210166178
1.8885630498533723
2.0791788856304985
2.274682306940372
2.455522971652004
2.611925708699902
2.735092864125122
2.822091886608016
2.877810361681329
2.906158357771261
2.911045943304008
2.898338220918866
2.873900293255132
2.843597262952102
2.8084066471163247
2.768328445747801
2.724340175953079
2.679374389051808
2.634408602150537
2.587487781036168
2.539589442815249
2.4916911045943304
2.441837732160313
2.388074291300098
2.329423264907136
2.270772238514174
2.209188660801564
2.1378299120234603
2.059628543499511
1.978494623655914
1.8963831867057677
1.818181818181818
1.7458455522971652
1.6823069403714566
1.6275659824046922
1.581622678396872
1.5483870967741935
1.5278592375366569
1.5161290322580645
1.5083088954056696
1.501466275659824
1.4946236559139785
1.4887585532746823
1.482893450635386
1.47702834799609
1.469208211143695
1.457478005865103
1.4428152492668622
1.426197458455523
1.4086021505376345
1.393939393939394
1.380254154447703
1.364613880742913
1.348973607038123
1.3333333333333333
1.3186705767350928
1.3049853372434017
1.2903225806451613
1.273704789833822
1.2570869990224829
1.2394916911045943
1.2228739002932552
1.2052785923753666
1.1906158357771262
1.1798631476050832
1.1691104594330402
1.1593352883675463
1.1515151515151516
1.1436950146627567
1.1368523949169111
1.130987292277615
1.1251221896383188
1.1202346041055715
1.118279569892473
1.1173020527859236
1.1192570869990224
1.1231671554252198
1.1251221896383188
1.126099706744868
1.1251221896383188
1.1221896383186705
1.1173020527859236
1.1133919843597262
1.1114369501466277
1.110459433040078
1.1094819159335287
1.110459433040078
1.1114369501466277
1.1133919843597262
1.1173020527859236
1.121212121212121
1.1231671554252198
1.1241446725317692
1.1241446725317692
1.1241446725317692
1.1241446725317692
1.1231671554252198
1.1221896383186705
1.1202346041055715
1.1163245356793745
1.1143695014662756
1.1133919843597262
1.1094819159335287
1.1065493646138806
1.10752688172043
1.1231671554252198
1.1681329423264908
1.249266862170088
1.370478983382209
1.5317693059628543
1.7282502443792769
1.943304007820137
2.1593352883675463
2.337243401759531
2.4809384164222874
2.616813294232649
2.730205278592375
2.814271749755621
2.8699902248289346
2.902248289345064
2.9149560117302054
2.9120234604105573
2.897360703812317
2.8729227761485827
2.8426197458455524
2.809384164222874
2.7751710654936463
2.73802541544477
2.697947214076246
2.656891495601173
2.6148582600195502
2.5698924731182795
2.5219941348973607
2.472140762463343
2.4164222873900294
2.355816226783969
2.2883675464320627
2.212121212121212
2.139784946236559
2.0664711632453567
1.9833822091886608
1.8973607038123168
1.81524926686217
1.7380254154447703
1.6656891495601174
1.6041055718475072
1.5532746823069403
1.5131964809384164
1.482893450635386
1.4613880742913
1.4496578690127078
1.444770283479961
1.4457478005865103
1.447702834799609
1.4467253176930597
1.4437927663734116
1.4389051808406648
1.4320625610948192
1.4203323558162269
1.4056695992179864
1.3890518084066472
1.3724340175953078
1.3577712609970674
1.346041055718475
1.3333333333333333
1.321603128054741
1.3098729227761483
1.2971652003910068
1.2854349951124144
1.2727272727272727
1.2609970674486803
1.249266862170088
1.2365591397849462
1.224828934506354
1.2121212121212122
1.203323558162268
1.195503421309873
1.1886608015640274
1.1827956989247312
1.1730205278592376
1.1622678396871946
1.1544477028347997
1.1505376344086022
1.1466275659824048
1.144672531769306
1.1456500488758554
1.1456500488758554
1.147605083088954
1.1495601173020529
1.1495601173020529
1.147605083088954
1.1466275659824048
1.1466275659824048
1.1466275659824048
1.144672531769306
1.1436950146627567
1.1436950146627567
1.141739980449658
1.142717497556207
1.144672531769306
1.1466275659824048
1.1495601173020529
1.1505376344086022
1.1515151515151516
1.1515151515151516
1.1515151515151516
1.1515151515151516
1.1515151515151516
1.1515151515151516
1.1515151515151516
1.1515151515151516
1.1505376344086022
1.1231671554252198
1.083088954056696
1.0635386119257086
1.056695992179863
1.06158357771261
1.0869990224828934
1.144672531769306
1.2424242424242424
1.3841642228739004
1.5650048875855327
1.7741935483870968
1.9960899315738023
2.2160312805474094
2.3958944281524928
2.541544477028348
2.6803519061583576
2.7947214076246336
2.874877810361681
2.921798631476051
2.941348973607038
2.940371456500489
2.9227761485826003
2.8963831867057674
2.8611925708699903
2.819159335288368
2.773216031280548
2.727272727272727
2.681329423264907
2.634408602150537
2.58455522971652
2.5317693059628543
2.4789833822091887
2.423264907135875
2.361681329423265
2.297165200391007
2.2267839687194524
2.1495601173020527
2.0664711632453567
1.989247311827957
1.9159335288367547
1.835777126099707
1.7565982404692082
1.683284457478006
1.6187683284457477
1.563049853372434
1.517106549364614
1.482893450635386
1.4613880742913
1.4467253176930597
1.436950146627566
1.4301075268817205
1.4252199413489737
1.4193548387096775
1.412512218963832
1.4066471163245358
1.396871945259042
1.3822091886608017
1.364613880742913
1.346041055718475
1.3255131964809383
1.300097751710655
1.2756598240469208
1.2531769305962854
1.2355816226783969
1.2238514173998043
1.2111436950146628
1.198435972629521
1.1857282502443791
1.1720430107526882
1.1573802541544478
1.1397849462365592
1.121212121212121
1.1016617790811338
1.0840664711632453
1.067448680351906
1.0557184750733135
1.0498533724340176
1.043010752688172
1.0381231671554252
1.0361681329423265
1.035190615835777
1.0342130987292275
1.0342130987292275
1.032258064516129
1.0273704789833822
1.0224828934506354
1.0166177908113392
1.013685239491691
1.0166177908113392
1.0234604105571847
1.0283479960899315
1.0312805474095796
1.032258064516129
1.0312805474095796
1.0273704789833822
1.0224828934506354
1.0195503421309873
1.0195503421309873
1.0195503421309873
1.021505376344086
1.0254154447702837
1.0273704789833822
1.0254154447702837
1.021505376344086
1.0195503421309873
1.018572825024438
1.0146627565982405
1.0087976539589445
1.002932551319648
0.997067448680352
0.9902248289345064
0.9872922776148584
0.9941348973607038
1.0117302052785924
1.04594330400782
1.1094819159335287
1.2150537634408602
1.3665689149560116
1.5581622678396871
1.7761485826001957
2.003910068426197
2.2267839687194524
2.4301075268817205
2.6050830889540566
2.7438905180840663
2.834799608993157
2.8914956011730206
2.9335288367546437
2.956011730205278
2.960899315738025
2.9501466275659824
2.927663734115347
2.898338220918866
2.8641251221896384
2.8269794721407626
2.788856304985337
2.7497556207233624
2.710654936461388
2.670576735092864
2.6295210166177907
2.5855327468230693
2.5405669599217986
2.493646138807429
2.439882697947214
2.378299120234604
2.3098729227761488
2.232649071358749
2.147605083088954
2.058651026392962
1.9696969696969695
1.89247311827957
1.8211143695014664
1.7458455522971652
1.6744868035190617
1.6148582600195502
1.5669599217986314
1.5278592375366569
1.498533724340176
1.478983382209189
1.466275659824047
1.456500488758553
1.4496578690127078
1.444770283479961
1.4408602150537635
1.436950146627566
1.4320625610948192
1.426197458455523
1.4164222873900294
1.401759530791789
1.3841642228739004
1.3626588465298142
1.3362658846529814
1.3088954056695992
1.2834799608993157
1.2639296187683284
1.2512218963831867
1.241446725317693
1.2297165200391007
1.217008797653959
1.2043010752688172
1.1915933528836755
1.1788856304985338
1.1652003910068427
1.152492668621701
1.13880742913001
1.126099706744868
1.1124144672531768
1.1026392961876832
1.0948191593352885
1.0869990224828934
1.083088954056696
1.0811339198435972
1.0801564027370478
1.0801564027370478
1.0801564027370478
1.0801564027370478
1.0801564027370478
1.0801564027370478
1.0801564027370478
1.0801564027370478
1.0811339198435972
1.0840664711632453
1.0850439882697946
1.086021505376344
1.086021505376344
1.086021505376344
1.083088954056696
1.078201368523949
1.0742913000977516
1.0684261974584557
1.064516129032258
1.0625610948191593
1.0625610948191593
1.064516129032258
1.0654936461388074
1.0664711632453567
1.0664711632453567
1.0664711632453567
1.064516129032258
1.0586510263929618
1.050830889540567
1.0469208211143697
1.0518084066471165
1.072336265884653
1.1202346041055715
1.187683284457478
1.2825024437927663
1.423264907135875
1.603128054740958
1.8113391984359728
2.034213098729228
2.2531769305962857
2.450635386119257
2.6148582600195502
2.7419354838709675
2.831867057673509
2.886608015640274
2.9071358748778104
2.9042033235581624
2.8885630498533725
2.86217008797654
2.8289345063538613
2.792766373411535
2.7536656891495603
2.710654936461388
2.667644183773216
2.624633431085044
2.579667644183773
2.535679374389052
2.490713587487781
2.4457478005865103
2.396871945259042
2.3391984359726297
2.2737047898338223
2.198435972629521
2.114369501466276
2.027370478983382
1.9374389051808407
1.844574780058651
1.7556207233626588
1.6744868035190617
1.6041055718475072
1.5493646138807429
1.5073313782991202
1.4731182795698925
1.4467253176930597
1.426197458455523
1.412512218963832
1.4027370478983383
1.3949169110459434
1.3861192570869991
1.3763440860215057
1.364613880742913
1.348973607038123
1.3294232649071358
1.3118279569892473
1.2942326490713587
1.2727272727272727
1.2502443792766371
1.227761485826002
1.203323558162268
1.1798631476050832
1.1564027370478984
1.1348973607038124
1.1173020527859236
1.0977517106549364
1.0801564027370478
1.0713587487781036
1.0635386119257086
1.0527859237536656
1.0410557184750733
1.0283479960899315
1.0156402737047898
1.002932551319648
0.9931573802541545
0.9853372434017597
0.9745845552297164
0.9628543499511242
0.9530791788856304
0.9452590420332356
0.9413489736070382
0.9393939393939394
0.935483870967742
0.9315738025415444
0.927663734115347
0.9247311827956988
0.9227761485826002
0.9217986314760508
0.9217986314760508
