ppg
1.3304007820136852
1.3147605083088951
1.2991202346041055
1.2834799608993157
1.267839687194526
1.2561094819159335
1.24633431085044
1.2336265884652982
1.2189638318670577
1.203323558162268
1.187683284457478
1.1720430107526882
1.1564027370478984
1.1407624633431086
1.1231671554252198
1.104594330400782
1.086021505376344
1.0703812316715542
1.0586510263929618
1.0469208211143697
1.0371456500488758
1.0283479960899315
1.0224828934506354
1.0273704789833822
1.0488758553274682
1.088954056695992
1.152492668621701
1.2434017595307918
1.356793743890518
1.4848484848484849
1.6011730205278591
1.710654936461388
1.827956989247312
1.945259042033236
2.059628543499511
2.163245356793744
2.2531769305962857
2.32355816226784
2.3743890518084068
2.407624633431085
2.4242424242424243
2.4242424242424243
2.412512218963832
2.3949169110459434
2.372434017595308
2.345063538611926
2.3118279569892475
2.269794721407625
2.219941348973607
2.1652003910068425
2.1065493646138806
2.042033235581622
1.9765395894428155
1.9120234604105573
1.8563049853372435
1.804496578690127
1.7458455522971652
1.6813294232649072
1.6177908113391983
1.5581622678396871
1.500488758553275
1.4506353861192571
1.409579667644184
1.3773216031280548
1.35386119257087
1.3607038123167154
1.383186705767351
1.3900293255131966
1.3900293255131966
1.380254154447703
1.3655913978494625
1.3499511241446724
1.3343108504398826
1.3186705767350928
1.3040078201368523
1.2883675464320623
1.2746823069403714
1.2639296187683284
1.2551319648093842
1.2482893450635386
1.241446725317693
1.2297165200391007
1.2160312805474096
1.2003910068426198
1.1808406647116323
1.1612903225806452
1.1436950146627567
1.1290322580645162
1.1173020527859236
1.1055718475073313
1.0928641251221896
1.0762463343108504
1.0625610948191593
1.0498533724340176
1.035190615835777
1.0263929618768328
1.0254154447702837
1.0410557184750733
1.0791788856304985
1.144672531769306
1.2355816226783969
1.3470185728250244
1.4760508308895406
1.6187683284457477
1.7458455522971652
1.8592375366568916
1.978494623655914
2.089931573802541
2.190615835777126
2.275659824046921
2.343108504398827
2.396871945259042
2.4349951124144678
2.4604105571847508
2.4750733137829912
2.479960899315738
2.47702834799609
2.4672531769305963
2.450635386119257
2.423264907135875
2.386119257086999
2.340175953079179
2.286412512218964
2.2267839687194524
2.1622678396871944
2.0948191593352883
2.0283479960899315
1.9618768328445748
1.8914956011730208
1.8299120234604105
1.7741935483870968
1.715542521994135
1.6588465298142718
1.603128054740958
1.5503421309872922
1.504398826979472
1.466275659824047
1.434017595307918
1.4076246334310851
1.383186705767351
1.3587487781036167
1.335288367546432
1.3157380254154447
1.3020527859237536
1.2873900293255132
1.2746823069403714
1.2639296187683284
1.2570869990224829
1.2512218963831867
1.2443792766373412
1.2336265884652982
1.2160312805474096
1.1945259042033236
1.1681329423264908
1.1466275659824048
1.1280547409579669
1.1055718475073313
1.083088954056696
1.0596285434995112
1.0381231671554252
1.0195503421309873
1.0009775171065494
0.9824046920821116
0.9628543499511242
0.9433040078201368
0.9257086999022482
0.9090909090909092
0.8993157380254154
0.8963831867057673
0.8983382209188661
0.9110459433040078
0.93841642228739
0.9853372434017597
1.0557184750733135
1.1466275659824048
1.2580645161290325
1.3870967741935485
1.5278592375366569
1.6735092864125125
1.8005865102639296
1.913978494623656
2.032258064516129
2.1436950146627565
2.2404692082111435
2.3196480938416424
2.383186705767351
2.426197458455523
2.449657869012708
2.4594330400782014
2.458455522971652
2.450635386119257
2.4349951124144678
2.4134897360703813
2.3870967741935485
2.3528836754643208
2.3118279569892475
2.2668621700879767
2.2170087976539588
2.1652003910068425
2.10752688172043
2.04594330400782
1.9843597262952104
1.920821114369501
1.8523949169110456
1.7927663734115349
1.7438905180840665
1.6920821114369502
1.6392961876832846
1.5894428152492668
1.5493646138807429
1.520039100684262
1.4975562072336266
1.478005865102639
1.4623655913978495
1.452590420332356
1.447702834799609
1.4457478005865103
1.4467253176930597
1.4486803519061584
1.447702834799609
1.4418377321603129
1.4271749755620724
1.4066471163245358
1.3861192570869991
1.3685239491691104
1.3519061583577712
1.3372434017595307
1.324535679374389
1.310850439882698
1.300097751710655
1.2883675464320623
1.2688172043010753
1.2453567937438903
1.219941348973607
1.1945259042033236
1.1720430107526882
1.1544477028347997
1.141739980449658
1.1319648093841643
1.121212121212121
1.10752688172043
1.0957966764418376
1.0899315738025417
1.088954056695992
1.0918866080156402
1.1085043988269794
1.1515151515151516
1.2258064516129032
1.324535679374389
1.4457478005865103
1.8914956011730208
1.8514173998044965
1.81524926686217
1.7820136852394917
1.75366568914956
1.7311827956989247
1.710654936461388
1.689149560117302
1.6666666666666667
1.6422287390029326
1.616813294232649
1.595307917888563
1.573802541544477
1.544477028347996
1.5141739980449658
1.4858260019550342
1.458455522971652
1.4281524926686218
1.396871945259042
1.3655913978494625
1.3372434017595307
1.3098729227761483
1.2834799608993157
1.2570869990224829
1.2375366568914956
1.2238514173998043
1.209188660801564
1.1915933528836755
1.1749755620723363
1.1564027370478984
1.1358748778103618
1.1163245356793745
1.0957966764418376
1.0791788856304985
1.0694037145650048
1.0713587487781036
1.088954056695992
1.1231671554252198
1.1827956989247312
1.2717497556207231
1.3870967741935485
1.5249266862170088
1.683284457478006
1.8533724340175952
2.0254154447702835
2.190615835777126
2.343108504398827
2.4819159335288368
2.6021505376344085
2.6901270772238512
2.755620723362659
2.8132942326490715
2.8582600195503423
2.8905180840664717
2.9100684261974585
2.9159335288367547
2.911045943304008
2.897360703812317
2.873900293255132
2.8406647116324537
2.801564027370479
2.760508308895406
2.7155425219941347
2.66177908113392
2.6021505376344085
2.535679374389052
2.463343108504399
2.3900293255131966
2.3167155425219943
2.2453567937438903
2.176930596285435
2.110459433040078
2.0439882697947214
1.981427174975562
1.932551319648094
1.8914956011730208
1.8514173998044965
1.81524926686217
1.7820136852394917
1.7556207233626588
1.7360703812316716
1.7194525904203324
1.704789833822092
1.6911045943304008
1.6735092864125125
1.6520039100684265
1.6314760508308896
1.6080156402737047
1.5786901270772238
1.547409579667644
1.5151515151515151
1.4838709677419355
1.455522971652004
1.426197458455523
1.3958944281524928
1.3655913978494625
1.3372434017595307
1.3098729227761483
1.2834799608993157
1.2619745845552297
1.2394916911045943
1.2082111436950147
1.1749755620723363
1.141739980449658
1.1085043988269794
1.0762463343108504
1.0469208211143697
1.0224828934506354
1.0048875855327468
1.002932551319648
1.0234604105571847
1.06158357771261
1.121212121212121
1.2150537634408602
1.3391984359726294
1.4897360703812317
1.6637341153470186
1.8504398826979471
2.0391006842619745
2.219941348973607
2.388074291300098
2.5376344086021505
2.662756598240469
2.763440860215054
2.832844574780059
2.8797653958944283
2.913978494623656
2.936461388074292
2.9472140762463344
2.948191593352884
2.940371456500489
2.924731182795699
2.902248289345064
2.870967741935484
2.827956989247312
2.773216031280548
2.716520039100684
2.653958944281525
2.579667644183773
2.498533724340176
2.4134897360703813
2.3313782991202348
2.2551319648093844
2.1837732160312804
2.1065493646138806
2.042033235581622
1.9990224828934504
1.9530791788856303
1.905180840664712
1.865102639296188
1.827956989247312
1.7888563049853372
1.7487781036168133
1.7126099706744868
1.6813294232649072
1.6529814271749756
1.6256109481915937
1.598240469208211
1.5718475073313782
1.543499511241447
1.5131964809384164
1.487781036168133
1.4623655913978495
1.426197458455523
1.3870967741935485
1.3479960899315735
1.3088954056695992
1.2697947214076246
1.23069403714565
1.1915933528836755
1.1534701857282503
1.121212121212121
1.096774193548387
1.0801564027370478
1.0733137829912025
1.0733137829912025
1.0742913000977516
1.075268817204301
1.072336265884653
1.067448680351906
1.06158357771261
1.0576735092864125
1.0586510263929618
1.0733137829912025
1.110459433040078
1.176930596285435
1.2590420332355816
1.359726295210166
1.4965786901270772
1.66177908113392
1.842619745845552
2.0361681329423265
2.2277614858260018
2.401759530791789
2.555229716520039
2.6852394916911044
2.791788856304985
2.877810361681329
2.946236559139785
2.9902248289345064
3.0175953079178885
3.037145650048876
3.046920821114369
3.04594330400782
3.0332355816226784
3.010752688172043
2.9745845552297165
2.9227761485826003
2.860215053763441
2.789833822091887
2.710654936461388
2.638318670576735
2.5698924731182795
2.4946236559139785
2.4134897360703813
2.329423264907136
2.2482893450635384
2.1710654936461387
2.0977517106549364
2.029325513196481
1.964809384164223
1.903225806451613
1.844574780058651
1.796676441837732
1.7546432062561097
1.7086999022482894
1.6637341153470186
1.6207233626588464
1.5826001955034212
1.5503421309872922
1.521016617790811
1.4946236559139785
1.4682306940371457
1.4418377321603129
1.41544477028348
1.3870967741935485
1.3665689149560116
1.3509286412512218
1.3333333333333333
1.3128054740957966
1.289345063538612
1.2639296187683284
1.238514173998045
1.2121212121212122
1.18475073313783
1.1573802541544478
1.133919843597263
1.1124144672531768
1.0977517106549364
1.0869990224828934
1.072336265884653
1.0518084066471165
1.024437927663734
0.9941348973607038
0.9657869012707724
0.9442815249266864
0.93841642228739
0.9579667644183774
1.010752688172043
1.1016617790811338
1.2287390029325511
1.3636363636363635
1.509286412512219
1.6852394916911049
1.920821114369501
2.134897360703812
2.283479960899316
2.4330400782013686
2.589442815249267
2.7155425219941347
2.793743890518084
2.8611925708699903
2.9159335288367547
2.952101661779081
2.973607038123167
2.989247311827957
2.997067448680352
2.994134897360704
2.979472140762464
2.952101661779081
2.8914956011730206
2.8269794721407626
2.773216031280548
2.7008797653958942
2.6177908113391983
2.529814271749756
2.4516129032258065
2.3792766373411536
2.2991202346041058
2.217986314760508
2.1407624633431084
2.069403714565005
2.003910068426197
1.946236559139785
1.895405669599218
1.8523949169110456
1.8074291300097751
1.76930596285435
1.750733137829912
1.7360703812316716
1.7174975562072337
1.6950146627565983
1.6705767350928642
1.6441837732160314
1.616813294232649
1.5865102639296187
1.5542521994134897
1.5131964809384164
1.4760508308895406
1.4496578690127078
1.4164222873900294
1.3743890518084063
1.3304007820136852
1.2981427174975562
1.2619745845552297
1.2121212121212122
1.1759530791788857
1.147605083088954
1.10752688172043
1.0625610948191593
1.0312805474095796
1.0019550342130987
0.9745845552297164
0.9560117302052786
0.93841642228739
0.9227761485826002
0.9120234604105572
0.9090909090909092
0.9178885630498532
0.9423264907135877
0.967741935483871
1.032258064516129
1.152492668621701
1.2961876832844574
1.4643206256109482
1.624633431085044
1.782991202346041
1.962854349951124
2.1495601173020527
2.329423264907136
2.493646138807429
2.6392961876832843
2.7624633431085046
2.860215053763441
2.930596285434995
2.9745845552297165
2.9960899315738025
3.0
2.994134897360704
2.981427174975562
2.959921798631476
2.930596285434995
2.89247311827957
2.8484848484848486
2.7996089931573804
2.7419354838709675
2.675464320625611
2.5992179863147604
2.5141739980449658
2.4252199413489737
2.346041055718475
2.274682306940372
2.19941348973607
2.12316715542522
2.0518084066471163
1.986314760508309
1.9237536656891496
1.8621700879765395
1.8064516129032255
1.7595307917888563
1.7194525904203324
1.6852394916911049
1.6598240469208212
1.6392961876832846
1.6177908113391983
1.595307917888563
1.5718475073313782
1.5503421309872922
1.5298142717497556
1.5073313782991202
1.482893450635386
1.457478005865103
1.4320625610948192
1.4056695992179864
1.3792766373411536
1.359726295210166
1.343108504398827
1.321603128054741
1.295210166177908
1.2639296187683284
1.23069403714565
1.195503421309873
1.1593352883675463
1.126099706744868
1.0948191593352885
1.0625610948191593
1.0312805474095796
1.0087976539589445
0.9912023460410556
0.9687194525904204
0.9481915933528836
0.9305962854349952
0.9208211143695014
0.9217986314760508
0.9413489736070382
0.9853372434017597
1.0596285434995112
1.164222873900293
1.3020527859237536
1.4672531769305963
1.6256109481915937
1.7810361681329423
1.9550342130987293
2.131964809384164
2.304007820136853
2.463343108504399
2.6041055718475072
2.724340175953079
2.8211143695014664
2.89247311827957
2.93841642228739
2.9579667644183774
2.9550342130987293
2.9335288367546437
2.897360703812317
2.854349951124145
2.809384164222874
2.764418377321604
2.718475073313783
2.6715542521994133
2.625610948191593
2.5777126099706744
2.5239491691104594
2.4613880742913
2.3900293255131966
2.321603128054741
2.259042033235582
2.1925708699902247
2.1251221896383186
2.059628543499511
1.997067448680352
1.9345063538611929
1.870967741935484
1.8113391984359728
1.758553274682307
1.7116324535679377
1.6803519061583578
1.6637341153470186
1.64613880742913
1.624633431085044
1.603128054740958
1.581622678396872
1.5591397849462365
1.533724340175953
1.5053763440860215
1.4760508308895406
1.447702834799609
1.4193548387096775
1.3900293255131966
1.3665689149560116
1.3470185728250244
1.321603128054741
1.2932551319648091
1.2658846529814272
1.2375366568914956
1.2130987292277615
1.1886608015640274
1.1622678396871946
1.1348973607038124
1.1065493646138806
1.0762463343108504
1.04594330400782
1.024437927663734
1.0097751710654936
0.989247311827957
0.9706744868035192
0.9579667644183774
0.9560117302052786
0.9706744868035192
1.0068426197458455
1.0733137829912025
1.1710654936461389
1.2981427174975562
1.452590420332356
1.6041055718475072
1.7546432062561097
1.9266862170087975
2.103616813294233
2.2737047898338223
2.4281524926686218
2.5610948191593352
2.668621700879765
2.7517106549364616
2.8132942326490715
2.8563049853372435
2.8826979472140764
2.8963831867057674
2.898338220918866
2.8914956011730206
2.878787878787879
2.8582600195503423
2.827956989247312
2.788856304985337
2.740957966764418
2.6823069403714563
2.613880742913001
2.5425219941348973
2.469208211143695
2.3919843597262958
2.320625610948192
2.2531769305962857
2.1788856304985336
2.103616813294233
2.0303030303030303
1.959921798631476
1.8944281524926687
1.836754643206256
1.7878787878787878
1.7458455522971652
1.7057673509286413
1.667644183773216
1.6314760508308896
1.6041055718475072
1.5826001955034212
1.5591397849462365
1.5356793743890518
1.5112414467253177
1.4868035190615836
1.4604105571847508
1.434017595307918
1.4086021505376345
1.383186705767351
1.3577712609970674
1.3313782991202343
1.3088954056695992
1.2873900293255132
1.2580645161290325
1.2228739002932552
1.1827956989247312
1.1348973607038124
1.0772238514173995
1.002932551319648
0.9090909090909092
0.7947214076246334
0.6578690127077224
0.4985337243401759
0.324535679374389
0.176930596285435
0.0889540566959921
0.0439882697947214
0.021505376344086
0.010752688172043
0.0048875855327468
0.032258064516129
0.1436950146627566
0.3470185728250244
0.6187683284457478
0.9393939393939394
1.2903225806451613
1.607038123167155
1.8993157380254155
2.210166177908113
2.5083088954056696
2.776148582600196
3.002932551319648
3.1837732160312804
3.320625610948192
3.418377321603128
3.4809384164222874
3.5141739980449658
3.52297165200391
3.512218963831867
3.486803519061584
3.4486803519061584
3.40078201368524
3.3440860215053765
3.280547409579668
3.210166177908113
3.134897360703812
3.0576735092864125
2.9775171065493646
2.8905180840664717
2.7976539589442817
2.702834799608993
2.616813294232649
2.5347018572825024
2.447702834799609
2.3626588465298144
2.283479960899316
2.2111436950146626
2.144672531769306
2.083088954056696
2.029325513196481
1.9833822091886608
1.9413489736070384
1.903225806451613
1.868035190615836
1.8377321603128052
1.8132942326490715
1.7869012707722385
1.7605083088954057
1.732160312805474
1.6989247311827955
1.6637341153470186
1.632453567937439
1.606060606060606
1.5806451612903225
1.5571847507331378
1.5327468230694037
1.5112414467253177
1.4916911045943304
1.466275659824047
1.436950146627566
1.4037145650048877
1.3695014662756595
1.3362658846529814
1.3040078201368523
1.2756598240469208
1.2502443792766371
1.2258064516129032
1.1994134897360704
1.173998044965787
1.1564027370478984
1.1466275659824048
1.141739980449658
1.1515151515151516
1.1808406647116323
1.2355816226783969
1.321603128054741
1.4379276637341154
1.5806451612903225
1.7448680351906158
1.921798631476051
2.104594330400782
2.26197458455523
2.40078201368524
2.544477028347996
2.679374389051808
2.7976539589442817
2.89345063538612
2.9687194525904204
3.0303030303030303
3.0791788856304985
3.117302052785924
3.146627565982405
3.1681329423264906
3.1788856304985336
3.174975562072336
3.1593352883675463
3.1358748778103616
3.099706744868035
3.047898338220919
2.981427174975562
2.905180840664712
2.822091886608016
2.736070381231672
2.652003910068426
2.567937438905181
2.4858260019550342
2.4173998044965788
2.35386119257087
2.2844574780058653
2.217986314760508
2.15347018572825
2.093841642228739
2.0410557184750733
1.9931573802541545
1.948191593352884
1.9042033235581624
1.8621700879765395
1.822091886608016
1.7917888563049853
1.7683284457478006
1.7448680351906158
1.7204301075268815
1.6979472140762464
1.675464320625611
1.6520039100684265
1.6265884652981428
1.598240469208211
1.565982404692082
1.5278592375366569
1.487781036168133
1.4486803519061584
1.4222873900293256
1.4027370478983383
1.3812316715542523
1.3636363636363635
1.3479960899315735
1.3343108504398826
1.321603128054741
1.305962854349951
1.284457478005865
1.2580645161290325
1.2267839687194526
1.1925708699902249
1.1671554252199414
1.1485826001955035
1.1329423264907137
1.130987292277615
1.1515151515151516
1.2003910068426198
1.3949169110459434
1.6549364613880744
1.8201368523949168
1.9374389051808407
2.0332355816226784
2.117302052785924
2.196480938416422
2.264907135874878
2.3274682306940373
2.396871945259042
2.469208211143695
2.5405669599217986
2.6080156402737047
2.667644183773216
2.717497556207233
2.7546432062561097
2.780058651026393
2.7947214076246336
2.7976539589442817
2.791788856304985
2.779081133919844
2.7595307917888565
2.735092864125122
2.705767350928641
2.6725317693059627
2.635386119257087
2.5943304007820136
2.549364613880743
2.5024437927663734
2.453567937438905
2.4056695992179864
2.3597262952101663
2.321603128054741
2.289345063538612
2.2580645161290325
2.228739002932551
2.204301075268817
2.1837732160312804
2.166177908113392
2.150537634408602
2.134897360703812
2.118279569892473
2.102639296187683
2.088954056695992
2.078201368523949
2.067448680351906
2.0547409579667644
2.0410557184750733
2.027370478983382
2.013685239491691
2.0009775171065494
1.989247311827957
1.978494623655914
1.9667644183773216
1.95405669599218
1.9393939393939397
1.9237536656891496
1.911045943304008
1.9012707722385145
1.8914956011730208
1.8826979472140764
1.8758553274682308
1.868035190615836
1.8592375366568916
1.8504398826979471
1.839687194525904
1.827956989247312
1.8172043010752688
1.8084066471163245
1.801564027370479
1.7986314760508308
1.796676441837732
1.801564027370479
1.818181818181818
1.8494623655913975
1.8973607038123168
1.962854349951124
2.0449657869012707
2.1378299120234603
2.2385141739980448
2.3411534701857284
2.4408602150537635
2.52297165200391
2.590420332355816
2.656891495601173
2.7145650048875853
2.7624633431085046
2.7996089931573804
2.8269794721407626
2.8455522971652005
2.8563049853372435
2.8582600195503423
2.852394916911046
2.8396871945259043
2.822091886608016
2.8025415444770285
2.780058651026393
2.7536656891495603
2.7253176930596283
2.6940371456500487
2.658846529814272
2.6207233626588464
2.579667644183773
2.536656891495601
2.49266862170088
2.449657869012708
2.409579667644184
2.376344086021505
2.3489736070381237
2.321603128054741
2.2961876832844577
2.2737047898338223
2.2531769305962857
2.232649071358749
2.2140762463343107
2.196480938416422
2.1808406647116323
2.166177908113392
2.150537634408602
2.136852394916911
2.124144672531769
2.10752688172043
2.090909090909091
2.075268817204301
2.060606060606061
2.046920821114369
2.0332355816226784
2.0205278592375366
2.006842619745845
1.991202346041056
1.975562072336266
1.959921798631476
1.9472140762463344
1.9364613880742916
1.9227761485826005
1.9071358748778104
1.889540566959922
1.870967741935484
1.8523949169110456
1.8328445747800584
1.8132942326490715
1.7947214076246334
1.7781036168132942
1.7644183773216031
1.7556207233626588
1.750733137829912
1.747800586510264
1.75366568914956
1.76930596285435
1.7996089931573802
1.847507331378299
1.9130009775171064
1.9931573802541545
2.085043988269794
2.1837732160312804
2.2854349951124147
2.386119257086999
2.469208211143695
2.539589442815249
2.608993157380254
2.6695992179863146
2.719452590420332
2.758553274682307
2.78494623655914
2.801564027370479
2.811339198435973
2.814271749755621
2.811339198435973
2.8044965786901277
2.793743890518084
2.779081133919844
2.760508308895406
2.7370478983382207
2.708699902248289
2.675464320625611
2.638318670576735
2.5992179863147604
2.558162267839687
2.517106549364614
2.4760508308895406
2.436950146627566
2.39980449657869
2.367546432062561
2.3382209188660803
2.30791788856305
2.2795698924731185
2.2531769305962857
2.2267839687194524
2.203323558162268
2.1837732160312804
2.166177908113392
2.1485826001955037
2.1309872922776147
2.1114369501466275
2.0948191593352883
2.080156402737048
2.0635386119257086
2.0439882697947214
2.024437927663734
2.004887585532747
1.9872922776148585
1.970674486803519
1.9530791788856303
1.9345063538611929
1.9130009775171064
1.8914956011730208
1.873900293255132
1.8563049853372435
1.836754643206256
1.8172043010752688
1.7986314760508308
1.7810361681329423
1.7653958944281525
1.75366568914956
1.7419354838709675
1.729227761485826
1.715542521994135
1.7018572825024438
1.689149560117302
1.6823069403714566
1.6813294232649072
1.6842619745845553
1.6959921798631477
1.7204301075268815
1.761485826001955
1.8201368523949168
1.8963831867057677
1.9872922776148585
2.088954056695992
2.196480938416422
2.3059628543499517
2.39980449657869
2.4819159335288368
2.5650048875855327
2.6422287390029324
2.70772238514174
2.758553274682307
2.7947214076246336
2.8181818181818183
2.8299120234604107
2.83088954056696
2.8211143695014664
2.803519061583578
2.779081133919844
2.750733137829912
2.719452590420332
2.6832844574780057
2.643206256109482
2.60019550342131
2.5542521994134897
2.5083088954056696
2.4604105571847508
2.4115347018572826
2.361681329423265
2.3098729227761488
2.2580645161290325
2.1280547409579667
1.951124144672532
1.8269794721407624
1.7331378299120237
1.6578690127077225
1.5972629521016617
1.5493646138807429
1.5112414467253177
1.4760508308895406
1.4389051808406648
1.4007820136852396
1.356793743890518
1.3069403714565004
1.262952101661779
1.224828934506354
1.1827956989247312
1.144672531769306
1.1143695014662756
1.093841642228739
1.0840664711632453
1.0811339198435972
1.0811339198435972
1.0801564027370478
1.0742913000977516
1.06158357771261
1.0498533724340176
1.0371456500488758
1.0156402737047898
0.989247311827957
0.959921798631476
0.9305962854349952
0.9032258064516128
0.8807429130009775
0.8641251221896383
0.852394916911046
0.841642228739003
0.8269794721407625
0.8054740957966764
0.7869012707722385
0.7653958944281525
0.7331378299120235
0.7038123167155426
