ppg
1.152492668621701
1.1495601173020529
1.144672531769306
1.1378299120234605
1.1319648093841643
1.126099706744868
1.1202346041055715
1.1143695014662756
1.1094819159335287
1.1055718475073313
1.1016617790811338
1.0977517106549364
1.093841642228739
1.0918866080156402
1.0928641251221896
1.0909090909090908
1.088954056695992
1.0869990224828934
1.0840664711632453
1.0811339198435972
1.078201368523949
1.0742913000977516
1.0694037145650048
1.064516129032258
1.06158357771261
1.0625610948191593
1.0654936461388074
1.0664711632453567
1.067448680351906
1.067448680351906
1.0654936461388074
1.064516129032258
1.0635386119257086
1.0635386119257086
1.0635386119257086
1.0664711632453567
1.075268817204301
1.093841642228739
1.1202346041055715
1.1583577712609971
1.217008797653959
1.2981427174975562
1.401759530791789
1.525904203323558
1.667644183773216
1.822091886608016
1.9824046920821117
2.1407624633431084
2.291300097751711
2.429130009775171
2.536656891495601
2.621700879765396
2.704789833822092
2.779081133919844
2.841642228739003
2.89247311827957
2.932551319648094
2.964809384164223
2.989247311827957
3.006842619745845
3.0175953079178885
3.022482893450636
3.0205278592375366
3.0097751710654936
2.989247311827957
2.962854349951124
2.927663734115347
2.8826979472140764
2.827956989247312
2.7624633431085046
2.687194525904203
2.606060606060606
2.5210166177908118
2.4359726295210167
2.3528836754643208
2.280547409579668
2.2160312805474094
2.15347018572825
2.0948191593352883
2.042033235581622
1.9951124144672527
1.9550342130987293
1.919843597262952
1.8885630498533723
1.8602150537634408
1.8318670576735088
1.8025415444770283
1.7732160312805474
1.7458455522971652
1.718475073313783
1.6871945259042034
1.653958944281525
1.6187683284457477
1.5835777126099706
1.5483870967741935
1.5131964809384164
1.47702834799609
1.4418377321603129
1.4076246334310851
1.375366568914956
1.3499511241446724
1.3294232649071358
1.305962854349951
1.281524926686217
1.2590420332355816
1.2375366568914956
1.217008797653959
1.1974584555229717
1.1798631476050832
1.164222873900293
1.1505376344086022
1.1378299120234605
1.126099706744868
1.118279569892473
1.1133919843597262
1.10752688172043
1.1016617790811338
1.096774193548387
1.0909090909090908
1.0850439882697946
1.0801564027370478
1.075268817204301
1.0703812316715542
1.0654936461388074
1.0606060606060606
1.0586510263929618
1.0586510263929618
1.0557184750733135
1.0518084066471165
1.0478983382209188
1.043010752688172
1.0391006842619743
1.0361681329423265
1.0342130987292275
1.0332355816226784
1.0332355816226784
1.0332355816226784
1.032258064516129
1.0332355816226784
1.035190615835777
1.035190615835777
1.0342130987292275
1.0342130987292275
1.0342130987292275
1.0342130987292275
1.0342130987292275
1.0342130987292275
1.0342130987292275
1.035190615835777
1.0410557184750733
1.0547409579667644
1.0772238514173995
1.115347018572825
1.1730205278592376
1.2541544477028348
1.359726295210166
1.4868035190615836
1.6304985337243405
1.7859237536656891
1.945259042033236
2.101661779081134
2.2502443792766376
2.3851417399804498
2.489736070381232
2.5718475073313782
2.6510263929618767
2.720430107526881
2.779081133919844
2.8289345063538613
2.8699902248289346
2.9042033235581624
2.9315738025415445
2.9530791788856305
2.967741935483871
2.975562072336266
2.973607038123167
2.962854349951124
2.945259042033236
2.919843597262952
2.8856304985337244
2.8406647116324537
2.7839687194525906
2.716520039100684
2.6422287390029324
2.5620723362658846
2.4789833822091887
2.3949169110459434
2.312805474095797
2.242424242424242
2.1808406647116323
2.1192570869990224
2.0625610948191597
2.0117302052785924
1.9667644183773216
1.927663734115347
1.8934506353861196
1.86119257086999
1.8299120234604105
1.7986314760508308
1.7673509286412512
1.739980449657869
1.715542521994135
1.686217008797654
1.6549364613880744
1.6207233626588464
1.5865102639296187
1.552297165200391
1.5190615835777126
1.4858260019550342
1.452590420332356
1.4193548387096775
1.3861192570869991
1.35386119257087
1.327468230694037
1.3040078201368523
1.2766373411534702
1.2482893450635386
1.219941348973607
1.1925708699902249
1.166177908113392
1.1397849462365592
1.115347018572825
1.0928641251221896
1.072336265884653
1.0527859237536656
1.0410557184750733
1.0332355816226784
1.024437927663734
1.0166177908113392
1.0087976539589445
1.002932551319648
0.9980449657869012
0.9951124144672532
0.9941348973607038
0.9951124144672532
0.997067448680352
0.9990224828934506
1.0039100684261977
1.0117302052785924
1.0195503421309873
1.0263929618768328
1.0342130987292275
1.0420332355816226
1.0469208211143697
1.0498533724340176
1.050830889540567
1.0518084066471165
1.0518084066471165
1.0518084066471165
1.0518084066471165
1.0547409579667644
1.0576735092864125
1.0576735092864125
1.0557184750733135
1.0527859237536656
1.0488758553274682
1.0449657869012707
1.040078201368524
1.032258064516129
1.021505376344086
1.007820136852395
0.9921798631476052
0.981427174975562
0.975562072336266
0.9726295210166178
0.9775171065493646
0.9960899315738024
1.0332355816226784
1.0928641251221896
1.176930596285435
1.2864125122189638
1.4173998044965788
1.5650048875855327
1.721407624633431
1.8797653958944285
2.0127077223851417
2.1280547409579667
2.2453567937438903
2.3548387096774195
2.4516129032258065
2.532746823069404
2.5992179863147604
2.652003910068426
2.6930596285435
2.724340175953079
2.748778103616813
2.768328445747801
2.7781036168132944
2.780058651026393
2.780058651026393
2.774193548387097
2.7595307917888565
2.7341153470185726
2.697947214076246
2.650048875855328
2.592375366568915
2.525904203323558
2.453567937438905
2.377321603128055
2.3010752688172045
2.233626588465298
2.172043010752688
2.1094819159335287
2.0518084066471163
2.0
1.9550342130987293
1.916911045943304
1.884652981427175
1.858260019550342
1.835777126099707
1.8132942326490715
1.790811339198436
1.7702834799608993
1.7497556207233629
1.7253176930596286
1.6979472140762464
1.667644183773216
1.6363636363636365
1.6041055718475072
1.5708699902248289
1.5376344086021505
1.504398826979472
1.4701857282502444
1.436950146627566
1.4066471163245358
1.3822091886608017
1.3607038123167154
1.3362658846529814
1.3128054740957966
1.2913000977517106
1.270772238514174
1.2512218963831867
1.2336265884652982
1.2179863147605083
1.2043010752688172
1.1945259042033236
1.1857282502443791
1.1808406647116323
1.1788856304985338
1.176930596285435
1.1749755620723363
1.1730205278592376
1.1700879765395895
1.1681329423264908
1.1652003910068427
1.163245356793744
1.1612903225806452
1.1583577712609971
1.1564027370478984
1.1544477028347997
1.155425219941349
1.1573802541544478
1.1564027370478984
1.1544477028347997
1.1505376344086022
1.1456500488758554
1.1407624633431086
1.1368523949169111
1.1329423264907137
1.1300097751710656
1.1270772238514175
1.1251221896383188
1.1241446725317692
1.1231671554252198
1.1202346041055715
1.1163245356793745
1.1114369501466277
1.1085043988269794
1.110459433040078
1.1192570869990224
1.1407624633431086
1.1808406647116323
1.2404692082111437
1.3235581622678396
1.4301075268817205
1.5366568914956011
1.6490713587487782
1.7869012707722385
1.9364613880742916
2.089931573802541
2.2375366568914954
2.3743890518084068
2.496578690127077
2.6021505376344085
2.69208211143695
2.7653958944281527
2.8260019550342133
2.8670576735092865
2.895405669599218
2.9237536656891496
2.949169110459433
2.970674486803519
2.986314760508309
2.997067448680352
3.0009775171065494
2.9980449657869013
2.9872922776148583
2.967741935483871
2.93841642228739
2.898338220918866
2.8514173998044967
2.795698924731183
2.7282502443792764
2.6510263929618767
2.5669599217986314
2.479960899315738
2.3929618768328447
2.3088954056695994
2.2297165200391005
2.157380254154448
2.0928641251221896
2.035190615835777
1.988269794721408
1.949169110459433
1.9130009775171064
1.8807429130009776
1.8523949169110456
1.825024437927664
1.7976539589442817
1.7712609970674489
1.7438905180840665
1.715542521994135
1.6852394916911049
1.6529814271749756
1.619745845552297
1.590420332355816
1.564027370478983
1.5347018572825024
1.5034213098729228
1.4721407624633431
1.4408602150537635
1.4105571847507332
1.3812316715542523
1.3509286412512218
1.3196480938416422
1.2903225806451613
1.2639296187683284
1.2434017595307918
1.2267839687194526
1.209188660801564
1.1935483870967742
1.1798631476050832
1.1671554252199414
1.1544477028347997
1.141739980449658
1.1300097751710656
1.1202346041055715
1.110459433040078
1.1006842619745845
1.0948191593352885
1.0909090909090908
1.0850439882697946
1.0791788856304985
1.0733137829912025
1.067448680351906
1.0625610948191593
1.0576735092864125
1.0527859237536656
1.0478983382209188
1.0439882697947214
1.040078201368524
1.0371456500488758
1.0371456500488758
1.0381231671554252
1.0371456500488758
1.035190615835777
1.032258064516129
1.0303030303030305
1.0273704789833822
1.0254154447702837
1.0224828934506354
1.0205278592375366
1.0195503421309873
1.018572825024438
1.0205278592375366
1.0254154447702837
1.029325513196481
1.032258064516129
1.0342130987292275
1.0371456500488758
1.0391006842619743
1.040078201368524
1.040078201368524
1.040078201368524
1.040078201368524
1.0410557184750733
1.0469208211143697
1.0596285434995112
1.0811339198435972
1.118279569892473
1.1749755620723363
1.2541544477028348
1.3587487781036167
1.4848484848484849
1.6285434995112416
1.7849462365591398
1.946236559139785
2.10752688172043
2.26197458455523
2.383186705767351
2.4819159335288368
2.579667644183773
2.668621700879765
2.744868035190616
2.807429130009776
2.859237536656892
2.9012707722385143
2.935483870967742
2.961876832844575
2.9824046920821115
2.997067448680352
3.005865102639296
3.002932551319648
2.989247311827957
2.970674486803519
2.945259042033236
2.911045943304008
2.868035190615836
2.81622678396872
2.7546432062561097
2.6852394916911044
2.608993157380254
2.527859237536657
2.444770283479961
2.36950146627566
2.3010752688172045
2.23069403714565
2.1652003910068425
2.1055718475073317
2.0527859237536656
2.007820136852395
1.9687194525904204
1.935483870967742
1.906158357771261
1.8778103616813293
1.8504398826979471
1.822091886608016
1.7956989247311828
1.7702834799608993
1.739980449657869
1.7067448680351909
1.672531769305963
1.6373411534701858
1.6011730205278591
1.564027370478983
1.5278592375366569
1.4916911045943304
1.457478005865103
1.423264907135875
1.3958944281524928
1.3714565004887584
1.346041055718475
1.321603128054741
1.2971652003910068
1.273704789833822
1.252199413489736
1.2326490713587488
1.2150537634408602
1.198435972629521
1.181818181818182
1.166177908113392
1.152492668621701
1.1436950146627567
1.13880742913001
1.1319648093841643
1.1251221896383188
1.118279569892473
1.1114369501466277
1.1055718475073313
1.0987292277614855
1.0928641251221896
1.0869990224828934
1.0811339198435972
1.0762463343108504
1.075268817204301
1.075268817204301
1.072336265884653
1.0694037145650048
1.067448680351906
1.064516129032258
1.0625610948191593
1.0606060606060606
1.0576735092864125
1.0557184750733135
1.0547409579667644
1.0547409579667644
1.0557184750733135
1.0586510263929618
1.0625610948191593
1.064516129032258
1.064516129032258
1.064516129032258
1.064516129032258
1.064516129032258
1.0635386119257086
1.06158357771261
1.0606060606060606
1.0606060606060606
1.0635386119257086
1.0713587487781036
1.086021505376344
1.1114369501466277
1.1505376344086022
1.2082111436950147
1.2873900293255132
1.388074291300098
1.5073313782991202
1.6412512218963833
1.7849462365591398
1.932551319648094
2.078201368523949
2.2140762463343107
2.321603128054741
2.407624633431085
2.49266862170088
2.567937438905181
2.632453567937439
2.6852394916911044
2.727272727272727
2.7595307917888565
2.782991202346041
2.7996089931573804
2.8103616813294234
2.814271749755621
2.809384164222874
2.7976539589442817
2.7810361681329425
2.7565982404692084
2.7223851417399803
2.678396871945259
2.624633431085044
2.563049853372434
2.4946236559139785
2.4222873900293256
2.3489736070381237
2.27761485826002
2.210166177908113
2.15347018572825
2.104594330400782
2.058651026392962
2.016617790811339
1.9794721407624636
1.9472140762463344
1.9178885630498532
1.8914956011730208
1.866080156402737
1.8406647116324533
1.8142717497556209
1.7888563049853372
1.7653958944281525
1.7429130009775171
1.7165200391006843
1.689149560117302
1.6598240469208212
1.629521016617791
1.5972629521016617
1.5650048875855327
1.5327468230694037
1.501466275659824
1.4711632453567938
1.4418377321603129
1.4134897360703813
1.3900293255131966
1.3695014662756595
1.346041055718475
1.3225806451612905
1.3010752688172045
1.2825024437927663
1.2658846529814272
1.2512218963831867
1.2375366568914956
1.224828934506354
1.2150537634408602
1.2052785923753666
1.1994134897360704
1.1964809384164223
1.1906158357771262
1.1837732160312806
1.176930596285435
1.1700879765395895
1.1622678396871946
1.155425219941349
1.1485826001955035
1.1436950146627567
1.13880742913001
1.1348973607038124
1.133919843597263
1.1358748778103618
1.1368523949169111
1.1358748778103618
1.1348973607038124
1.133919843597263
1.133919843597263
1.1319648093841643
1.1300097751710656
1.1290322580645162
1.1270772238514175
1.1241446725317692
1.1221896383186705
1.1221896383186705
1.1241446725317692
1.1251221896383188
1.126099706744868
1.1280547409579669
1.130987292277615
1.133919843597263
1.1348973607038124
1.1348973607038124
1.1329423264907137
1.130987292277615
1.130987292277615
1.1358748778103618
1.1466275659824048
1.1671554252199414
1.2023460410557183
1.2551319648093842
1.3294232649071358
1.4252199413489737
1.5405669599217986
1.6735092864125125
1.8191593352883677
1.9716520039100685
2.124144672531769
2.270772238514174
2.388074291300098
2.484848484848485
2.582600195503421
2.670576735092864
2.7468230694037143
2.8103616813294234
2.86217008797654
2.903225806451613
2.9345063538611926
2.9589442815249267
2.9775171065493646
2.9902248289345064
2.992179863147605
2.9853372434017595
2.9765395894428157
2.960899315738025
2.9374389051808407
2.9042033235581624
2.860215053763441
2.806451612903226
2.7438905180840663
2.673509286412512
2.5972629521016617
2.517106549364614
2.4359726295210167
2.364613880742913
2.300097751710655
2.236559139784946
2.175953079178885
2.112414467253177
2.0498533724340176
1.9980449657869013
1.9550342130987293
1.9178885630498532
1.884652981427175
1.8543499511241448
1.825024437927664
1.7986314760508308
1.7741935483870968
1.7468230694037146
1.7165200391006843
1.6842619745845553
1.6500488758553276
1.6138807429130009
1.576735092864125
1.5386119257087
1.5024437927663734
1.4672531769305963
1.4330400782013686
1.401759530791789
1.3773216031280548
1.3548387096774193
1.3294232649071358
1.303030303030303
1.2766373411534702
1.2512218963831867
1.227761485826002
1.2052785923753666
1.1857282502443791
1.1681329423264908
1.1534701857282503
1.1407624633431086
1.1319648093841643
1.1251221896383188
1.115347018572825
1.1055718475073313
1.0957966764418376
1.0869990224828934
1.0801564027370478
1.0742913000977516
1.0684261974584557
1.0625610948191593
1.056695992179863
1.050830889540567
1.0449657869012707
1.0420332355816226
1.040078201368524
1.0361681329423265
1.0303030303030305
1.0254154447702837
1.021505376344086
1.018572825024438
1.0156402737047898
1.013685239491691
1.010752688172043
1.0087976539589445
1.0068426197458455
1.0068426197458455
1.0087976539589445
1.0087976539589445
1.007820136852395
1.0058651026392962
1.0048875855327468
1.0048875855327468
1.0048875855327468
1.0048875855327468
1.0048875855327468
1.0048875855327468
1.0058651026392962
1.007820136852395
1.013685239491691
1.024437927663734
1.0420332355816226
1.0713587487781036
1.1163245356793745
1.181818181818182
1.2688172043010753
1.3773216031280548
1.504398826979472
1.6451612903225807
1.7947214076246334
1.945259042033236
2.0733137829912023
2.1837732160312804
2.2981427174975564
2.404692082111437
2.498533724340176
2.576735092864125
2.6402737047898337
2.6901270772238512
2.730205278592375
2.763440860215054
2.788856304985337
2.809384164222874
2.8240469208211145
2.827956989247312
2.8240469208211145
2.81622678396872
2.80058651026393
2.776148582600196
2.7419354838709675
2.697947214076246
2.64613880742913
2.5855327468230693
2.517106549364614
2.443792766373412
2.3685239491691106
2.300097751710655
2.236559139784946
2.172043010752688
2.110459433040078
2.053763440860215
2.002932551319648
1.9579667644183771
1.919843597262952
1.8856304985337244
1.8543499511241448
1.825024437927664
1.7976539589442817
1.7702834799608993
1.7468230694037146
1.7243401759530792
1.6989247311827955
1.6695992179863148
1.6383186705767352
1.6050830889540566
1.5698924731182795
1.533724340175953
1.498533724340176
1.4633431085043989
1.4301075268817205
1.3988269794721409
1.3743890518084063
1.3519061583577712
1.327468230694037
1.3020527859237536
1.2776148582600195
1.2551319648093842
1.2346041055718475
1.2150537634408602
1.1964809384164223
1.1798631476050832
1.164222873900293
1.1505376344086022
1.1378299120234605
1.1290322580645162
1.1221896383186705
1.1133919843597262
1.1055718475073313
1.099706744868035
1.093841642228739
1.088954056695992
1.0840664711632453
1.0791788856304985
1.075268817204301
1.072336265884653
1.0694037145650048
1.0703812316715542
1.0733137829912025
1.075268817204301
1.0762463343108504
1.0762463343108504
1.0762463343108504
1.075268817204301
1.0733137829912025
1.072336265884653
1.072336265884653
1.072336265884653
1.072336265884653
1.0742913000977516
1.078201368523949
1.0801564027370478
1.0811339198435972
1.0811339198435972
1.0811339198435972
1.0811339198435972
1.0811339198435972
1.0811339198435972
1.0811339198435972
1.0811339198435972
1.0821114369501466
1.086021505376344
1.0948191593352885
1.1094819159335287
1.1358748778103618
1.1788856304985338
1.2424242424242424
1.3284457478005864
1.436950146627566
1.565982404692082
1.7096774193548387
1.8621700879765395
2.0175953079178885
2.167155425219941
2.289345063538612
2.391006842619746
2.493646138807429
2.5865102639296187
2.6666666666666665
2.7341153470185726
2.787878787878788
2.831867057673509
2.866080156402737
2.89247311827957
2.913000977517106
2.927663734115347
2.9374389051808407
2.936461388074292
2.9286412512218964
2.916911045943304
2.897360703812317
2.868035190615836
2.827956989247312
2.776148582600196
2.7145650048875853
2.643206256109482
2.5650048875855327
2.482893450635386
2.39980449657869
2.3255131964809386
2.2580645161290325
2.1915933528836757
2.1300097751710654
2.074291300097752
2.026392961876833
1.9843597262952104
1.948191593352884
1.9159335288367547
1.8866080156402736
1.857282502443793
1.827956989247312
1.7986314760508308
1.772238514173998
1.7468230694037146
1.7174975562072337
1.686217008797654
1.653958944281525
1.619745845552297
1.585532746823069
1.552297165200391
1.5190615835777126
1.4858260019550342
1.4535679374389052
1.423264907135875
1.3978494623655917
1.3763440860215057
1.3519061583577712
1.3264907135874875
1.300097751710655
1.2746823069403714
1.2512218963831867
1.2297165200391007
1.209188660801564
1.1896383186705768
1.1720430107526882
1.1573802541544478
1.144672531769306
1.1358748778103618
1.130987292277615
1.1251221896383188
1.118279569892473
1.110459433040078
1.1026392961876832
1.0957966764418376
1.0899315738025417
1.0840664711632453
1.0791788856304985
1.0742913000977516
1.0694037145650048
1.067448680351906
1.0664711632453567
1.0635386119257086
1.0596285434995112
1.0557184750733135
1.0518084066471165
1.0498533724340176
1.0478983382209188
1.04594330400782
1.043010752688172
1.0410557184750733
1.0381231671554252
1.035190615835777
1.0361681329423265
1.0391006842619743
1.0410557184750733
1.0420332355816226
1.0420332355816226
1.0420332355816226
1.0410557184750733
1.0391006842619743
1.035190615835777
1.032258064516129
1.0303030303030305
1.029325513196481
1.0332355816226784
1.0439882697947214
1.0635386119257086
1.096774193548387
1.1485826001955035
1.2209188660801564
1.3157380254154447
1.4330400782013686
1.5698924731182795
1.7204301075268815
1.8797653958944285
2.0391006842619745
2.1925708699902247
2.315738025415445
2.418377321603128
2.5219941348973607
2.6177908113391983
2.7008797653958942
2.771260997067449
2.8299120234604107
2.87683284457478
2.9149560117302054
2.945259042033236
2.967741935483871
2.983382209188661
2.9872922776148583
2.983382209188661
2.9765395894428157
2.963831867057673
2.9442815249266863
2.9149560117302054
2.873900293255132
2.822091886608016
2.760508308895406
2.689149560117302
2.610948191593353
2.5268817204301075
2.4408602150537635
2.3626588465298144
2.291300097751711
2.217986314760508
2.1485826001955037
2.086021505376344
2.0303030303030303
1.9824046920821117
1.9413489736070384
1.906158357771261
1.873900293255132
1.842619745845552
1.8132942326490715
1.7878787878787878
1.7644183773216031
1.7380254154447703
1.7096774193548387
1.6793743890518085
1.6480938416422288
1.6158357771260996
1.5826001955034212
1.5483870967741935
1.5131964809384164
1.47702834799609
1.4418377321603129
1.4066471163245358
1.3782991202346042
1.3548387096774193
1.3294232649071358
1.3040078201368523
1.278592375366569
1.2561094819159335
1.2346041055718475
1.2150537634408602
1.198435972629521
1.1827956989247312
1.1700879765395895
1.1593352883675463
1.1534701857282503
1.1505376344086022
1.147605083088954
1.147605083088954
1.1534701857282503
1.1700879765395895
1.2003910068426198
1.249266862170088
1.3157380254154447
1.4007820136852396
1.501466275659824
1.611925708699902
1.7135874877810362
1.8093841642228736
1.9130009775171064
2.0146627565982405
2.1065493646138806
2.1867057673509285
2.2521994134897363
2.303030303030303
2.3391984359726297
2.361681329423265
2.372434017595308
2.3734115347018574
2.364613880742913
2.347996089931574
2.3255131964809386
2.294232649071359
2.2531769305962857
2.204301075268817
2.147605083088954
2.0840664711632453
2.01564027370479
1.946236559139785
1.8778103616813293
1.8132942326490715
1.75366568914956
1.7057673509286413
1.667644183773216
1.632453567937439
1.6021505376344083
1.5786901270772238
1.560117302052786
1.544477028347996
1.5298142717497556
1.5151515151515151
1.500488758553275
1.4848484848484849
1.4672531769305963
1.4467253176930597
1.4291300097751711
1.412512218963832
1.3919843597262953
1.367546432062561
1.3411534701857282
1.3147605083088951
1.2883675464320623
1.2639296187683284
1.2424242424242424
1.2218963831867058
1.2023460410557183
1.18475073313783
1.173998044965787
1.1652003910068427
1.1534701857282503
1.1407624633431086
1.1290322580645162
1.1192570869990224
1.110459433040078
1.1036168132942326
1.099706744868035
1.096774193548387
1.093841642228739
1.0899315738025417
1.0850439882697946
1.083088954056696
1.0811339198435972
1.0733137829912025
1.0625610948191593
1.0488758553274682
1.0342130987292275
1.0175953079178883
1.0009775171065494
0.9843597262952102
0.9667644183773216
0.9491691104594332
0.9315738025415444
0.919843597262952
1.0156402737047898
1.013685239491691
1.0087976539589445
1.002932551319648
0.9960899315738024
0.9882697947214076
0.9804496578690128
0.9736070381231672
0.967741935483871
0.9638318670576737
0.9618768328445748
0.9618768328445748
0.9657869012707724
0.9716520039100685
0.9745845552297164
0.975562072336266
0.978494623655914
0.9843597262952102
0.997067448680352
1.021505376344086
1.0635386119257086
1.1280547409579669
1.2209188660801564
1.343108504398827
1.4701857282502444
1.606060606060606
1.7761485826001957
1.963831867057673
2.157380254154448
2.350928641251222
2.532746823069404
2.689149560117302
2.823069403714565
2.935483870967742
3.0283479960899315
3.102639296187683
3.1622678396871944
3.20039100684262
3.2238514173998043
