ppg
2.9696969696969697
2.90811339198436
2.8367546432062563
2.7565982404692084
2.673509286412512
2.589442815249267
2.506353861192571
2.4252199413489737
2.35386119257087
2.286412512218964
2.212121212121212
2.136852394916911
2.0625610948191597
1.988269794721408
1.916911045943304
1.8455522971652003
1.7741935483870968
1.7038123167155426
1.6344086021505375
1.56891495601173
1.517106549364614
1.4750733137829912
1.4349951124144673
1.4027370478983383
1.3812316715542523
1.3714565004887584
1.3734115347018572
1.3851417399804498
1.4066471163245358
1.4330400782013686
1.4594330400782014
1.4838709677419355
1.5053763440860215
1.521016617790811
1.5317693059628543
1.5366568914956011
1.533724340175953
1.5239491691104594
1.5102639296187683
1.4926686217008798
1.4750733137829912
1.455522971652004
1.434017595307918
1.4086021505376345
1.380254154447703
1.3577712609970674
1.33822091886608
1.3147605083088951
1.2883675464320623
1.2609970674486803
1.2316715542521994
1.1974584555229717
1.160312805474096
1.126099706744868
1.104594330400782
1.1094819159335287
1.1564027370478984
1.2580645161290325
1.3870967741935485
1.5493646138807429
1.7702834799608993
2.0234604105571847
2.281524926686217
2.5210166177908118
2.7262952101661777
2.8885630498533725
3.005865102639296
3.0791788856304985
3.113391984359726
3.113391984359726
3.089931573802541
3.0498533724340176
2.9931573802541545
2.9257086999022484
2.8514173998044967
2.774193548387097
2.6930596285435
2.610948191593353
2.527859237536657
2.442815249266862
2.358748778103617
2.2766373411534704
2.196480938416422
2.1251221896383186
2.058651026392962
1.9853372434017595
1.9100684261974583
1.835777126099707
1.7644183773216031
1.696969696969697
1.632453567937439
1.5718475073313782
1.517106549364614
1.4701857282502444
1.4330400782013686
1.4076246334310851
1.3919843597262953
1.383186705767351
1.3812316715542523
1.3870967741935485
1.401759530791789
1.4222873900293256
1.444770283479961
1.466275659824047
1.4838709677419355
1.495601173020528
1.500488758553275
1.501466275659824
1.4965786901270772
1.4858260019550342
1.4711632453567938
1.4535679374389052
1.4330400782013686
1.409579667644184
1.3861192570869991
1.3616813294232648
1.3362658846529814
1.3079178885630498
1.2795698924731185
1.2512218963831867
1.2297165200391007
1.209188660801564
1.181818181818182
1.1485826001955035
1.110459433040078
1.0713587487781036
1.043010752688172
1.0391006842619743
1.0742913000977516
1.1612903225806452
1.3069403714565004
1.504398826979472
1.7038123167155426
1.90811339198436
2.142717497556207
2.3734115347018574
2.5777126099706744
2.7419354838709675
2.8260019550342133
2.84652981427175
2.857282502443793
2.850439882697948
2.8240469208211145
2.782991202346041
2.7282502443792764
2.6695992179863146
2.6070381231671558
2.535679374389052
2.4594330400782014
2.380254154447703
2.300097751710655
2.217986314760508
2.1358748778103616
2.0557184750733137
1.9775171065493649
1.900293255131965
1.8240469208211143
1.7575757575757576
1.6979472140762464
1.632453567937439
1.565982404692082
1.500488758553275
1.436950146627566
1.3773216031280548
1.3235581622678396
1.2776148582600195
1.241446725317693
1.2160312805474096
1.203323558162268
1.2013685239491692
1.2082111436950147
1.2218963831867058
1.241446725317693
1.2649071358748778
1.289345063538612
1.310850439882698
1.3284457478005864
1.3411534701857282
1.3479960899315735
1.3509286412512218
1.348973607038123
1.3411534701857282
1.3313782991202343
1.3225806451612905
1.3088954056695992
1.29227761485826
1.2727272727272727
1.249266862170088
1.224828934506354
1.1994134897360704
1.173998044965787
1.1485826001955035
1.121212121212121
1.0928641251221896
1.0625610948191593
1.0361681329423265
1.0117302052785924
0.9843597262952102
0.9657869012707724
0.9696969696969696
1.010752688172043
1.1006842619745845
1.2434017595307918
1.4330400782013686
1.6549364613880744
1.8914956011730208
2.1221896383186705
2.3069403714565007
2.4516129032258065
2.579667644183773
2.678396871945259
2.744868035190616
2.7781036168132944
2.7810361681329425
2.7595307917888565
2.718475073313783
2.662756598240469
2.5972629521016617
2.525904203323558
2.450635386119257
2.3822091886608017
2.315738025415445
2.243401759530792
2.16911045943304
2.0928641251221896
2.01564027370479
1.9393939393939397
1.865102639296188
1.7917888563049853
1.721407624633431
1.653958944281525
1.587487781036168
1.5298142717497556
1.47702834799609
1.4203323558162269
1.364613880742913
1.3128054740957966
1.2688172043010753
1.2355816226783969
1.2140762463343109
1.2043010752688172
1.206256109481916
1.2160312805474096
1.2336265884652982
1.2561094819159335
1.2795698924731185
1.3020527859237536
1.321603128054741
1.3372434017595307
1.348973607038123
1.3548387096774193
1.35386119257087
1.3479960899315735
1.33822091886608
1.3255131964809383
1.3128054740957966
1.2971652003910068
1.2834799608993157
1.270772238514174
1.2531769305962854
1.2336265884652982
1.2130987292277615
1.1906158357771262
1.1671554252199414
1.141739980449658
1.1124144672531768
1.0791788856304985
1.0420332355816226
1.0058651026392962
0.9804496578690128
0.975562072336266
1.0
1.0664711632453567
1.1837732160312806
1.3519061583577712
1.5610948191593352
1.7947214076246334
2.0332355816226784
2.2561094819159337
2.44672531769306
2.598240469208211
2.70772238514174
2.7722385141739982
2.80058651026393
2.807429130009776
2.792766373411535
2.758553274682307
2.7096774193548385
2.649071358748778
2.5806451612903225
2.5083088954056696
2.4330400782013686
2.358748778103617
2.2844574780058653
2.210166177908113
2.1436950146627565
2.081133919843597
2.0146627565982405
1.946236559139785
1.87683284457478
1.8064516129032255
1.7380254154447703
1.6705767350928642
1.607038123167155
1.5464320625610948
1.487781036168133
1.434017595307918
1.3900293255131966
1.3548387096774193
1.321603128054741
1.2942326490713587
1.2746823069403714
1.2649071358748778
1.2649071358748778
1.2727272727272727
1.2864125122189638
1.303030303030303
1.321603128054741
1.3391984359726294
1.3548387096774193
1.367546432062561
1.3782991202346042
1.383186705767351
1.3822091886608017
1.375366568914956
1.3636363636363635
1.346041055718475
1.3264907135874875
1.305962854349951
1.2854349951124144
1.2639296187683284
1.241446725317693
1.224828934506354
1.209188660801564
1.1886608015640274
1.166177908113392
1.142717497556207
1.1163245356793745
1.0840664711632453
1.0488758553274682
1.0166177908113392
0.9951124144672532
0.9941348973607038
1.0283479960899315
1.0909090909090908
1.1886608015640274
1.3411534701857282
1.5366568914956011
1.7565982404692082
1.981427174975562
2.1925708699902247
2.3743890518084068
2.517106549364614
2.619745845552297
2.6823069403714563
2.7096774193548385
2.7096774193548385
2.6901270772238512
2.6559139784946235
2.6070381231671558
2.548387096774193
2.4838709677419355
2.4144672531769307
2.3411534701857284
2.2668621700879767
2.190615835777126
2.115347018572825
2.042033235581622
1.970674486803519
1.9090909090909087
1.8533724340175952
1.7917888563049853
1.7282502443792769
1.6637341153470186
1.5992179863147604
1.533724340175953
1.469208211143695
1.4086021505376345
1.3519061583577712
1.3010752688172045
1.2590420332355816
1.2258064516129032
1.2043010752688172
1.1925708699902249
1.1867057673509287
1.1896383186705768
1.198435972629521
1.2121212121212122
1.2316715542521994
1.2531769305962854
1.2746823069403714
1.2932551319648091
1.305962854349951
1.3118279569892473
1.3313782991202343
1.3558162267839686
1.3626588465298142
1.3587487781036167
1.3479960899315735
1.3313782991202343
1.3118279569892473
1.2913000977517106
1.2717497556207231
1.2512218963831867
1.227761485826002
1.203323558162268
1.1798631476050832
1.1622678396871946
1.147605083088954
1.1251221896383188
1.096774193548387
1.064516129032258
1.0303030303030305
1.0009775171065494
0.9882697947214076
1.0058651026392962
1.064516129032258
1.1730205278592376
1.3333333333333333
1.5024437927663734
1.6803519061583578
1.8914956011730208
2.104594330400782
2.2991202346041058
2.4604105571847508
2.581622678396872
2.662756598240469
2.70772238514174
2.721407624633431
2.7096774193548385
2.677419354838709
2.6285434995112413
2.5747800586510263
2.5161290322580645
2.44672531769306
2.372434017595308
2.2952101661779083
2.217986314760508
2.142717497556207
2.069403714565005
1.997067448680352
1.927663734115347
1.8602150537634408
1.793743890518084
1.7350928641251222
1.6813294232649072
1.6226783968719452
1.5610948191593352
1.499511241446725
1.4389051808406648
1.3822091886608017
1.3294232649071358
1.2825024437927663
1.2424242424242424
1.2121212121212122
1.1915933528836755
1.1808406647116323
1.181818181818182
1.1925708699902249
1.2101661779081134
1.2326490713587488
1.2561094819159335
1.2795698924731185
1.3010752688172045
1.316715542521994
1.3284457478005864
1.3362658846529814
1.33822091886608
1.335288367546432
1.332355816226784
1.327468230694037
1.3157380254154447
1.300097751710655
1.281524926686217
1.2590420332355816
1.2355816226783969
1.2111436950146628
1.1886608015640274
1.1691104594330402
1.1485826001955035
1.126099706744868
1.1006842619745845
1.078201368523949
1.0547409579667644
1.0263929618768328
1.0009775171065494
0.9902248289345064
1.0087976539589445
1.0703812316715542
1.1827956989247312
1.3450635386119256
1.547409579667644
1.7741935483870968
2.004887585532747
2.1955034213098727
2.3519061583577714
2.4975562072336266
2.613880742913001
2.695014662756598
2.740957966764418
2.7546432062561097
2.7419354838709675
2.708699902248289
2.659824046920821
2.60019550342131
2.533724340175953
2.463343108504399
2.3978494623655915
2.335288367546432
2.2688172043010755
2.201368523949169
2.133919843597263
2.064516129032258
1.9951124144672527
1.9266862170087975
1.8602150537634408
1.793743890518084
1.7282502443792769
1.6637341153470186
1.6080156402737047
1.5581622678396871
1.504398826979472
1.4506353861192571
1.3998044965786902
1.3528836754643203
1.3128054740957966
1.2825024437927663
1.2639296187683284
1.2570869990224829
1.2609970674486803
1.2746823069403714
1.2942326490713587
1.316715542521994
1.3391984359726294
1.3607038123167154
1.3792766373411536
1.3949169110459434
1.4066471163245358
1.4134897360703813
1.414467253176931
1.4105571847507332
1.401759530791789
1.391006842619746
1.3773216031280548
1.364613880742913
1.3519061583577712
1.335288367546432
1.3157380254154447
1.2961876832844574
1.2776148582600195
1.2580645161290325
1.2365591397849462
1.2130987292277615
1.1867057673509287
1.1564027370478984
1.1231671554252198
1.0928641251221896
1.0742913000977516
1.075268817204301
1.1026392961876832
1.1720430107526882
1.29227761485826
1.4623655913978495
1.6735092864125125
1.9090909090909087
2.146627565982405
2.3655913978494625
2.552297165200391
2.697947214076246
2.791788856304985
2.8455522971652005
2.873900293255132
2.87683284457478
2.8582600195503423
2.822091886608016
2.7722385141739982
2.7116324535679373
2.6451612903225805
2.5747800586510263
2.5024437927663734
2.4281524926686218
2.361681329423265
2.2991202346041058
2.23069403714565
2.161290322580645
2.090909090909091
2.021505376344086
1.95405669599218
1.8885630498533723
1.8240469208211143
1.761485826001955
1.699902248289345
1.640273704789834
1.5826001955034212
1.5356793743890518
1.4975562072336266
1.457478005865103
1.4213098729227762
1.393939393939394
1.3782991202346042
1.3724340175953078
1.3763440860215057
1.3870967741935485
1.4027370478983383
1.4222873900293256
1.4418377321603129
1.4594330400782014
1.4750733137829912
1.487781036168133
1.4946236559139785
1.4975562072336266
1.4975562072336266
1.4936461388074291
1.4848484848484849
1.4731182795698925
1.457478005865103
1.4389051808406648
1.418377321603128
1.396871945259042
1.380254154447703
1.364613880742913
1.3440860215053765
1.321603128054741
1.2981427174975562
1.2746823069403714
1.2482893450635386
1.217008797653959
1.1827956989247312
1.1485826001955035
1.1192570869990224
1.1065493646138806
1.1173020527859236
1.160312805474096
1.2502443792766371
1.391006842619746
1.5786901270772238
1.7986314760508308
2.0332355816226784
2.260997067448681
2.463343108504399
2.6265884652981426
2.747800586510264
2.8299120234604107
2.8729227761485827
2.8836754643206257
2.870967741935484
2.8406647116324537
2.793743890518084
2.7341153470185726
2.6666666666666665
2.611925708699902
2.5610948191593352
2.4946236559139785
2.421309872922776
2.345063538611926
2.2688172043010755
2.2023460410557183
2.1407624633431084
2.074291300097752
2.005865102639296
1.93841642228739
1.8699902248289344
1.801564027370479
1.732160312805474
1.6637341153470186
1.5972629521016617
1.5327468230694037
1.474095796676442
1.4242424242424243
1.3890518084066472
1.3655913978494625
1.3479960899315735
1.3391984359726294
1.3391984359726294
1.348973607038123
1.364613880742913
1.3841642228739004
1.4056695992179864
1.4252199413489737
1.4428152492668622
1.458455522971652
1.4711632453567938
1.478983382209189
1.4819159335288368
1.479960899315738
1.4721407624633431
1.4604105571847508
1.444770283479961
1.4271749755620724
1.4076246334310851
1.3861192570869991
1.3616813294232648
1.3362658846529814
1.3118279569892473
1.2932551319648091
1.278592375366569
1.260019550342131
1.238514173998045
1.2130987292277615
1.1827956989247312
1.1485826001955035
1.1173020527859236
1.0977517106549364
1.104594330400782
1.152492668621701
1.2502443792766371
1.3714565004887584
1.521994134897361
1.7243401759530792
1.9550342130987293
2.189638318670577
2.407624633431085
2.592375366568915
2.735092864125122
2.835777126099707
2.898338220918866
2.9257086999022484
2.9227761485826003
2.895405669599218
2.855327468230694
2.8054740957966766
2.744868035190616
2.67644183773216
2.603128054740958
2.5268817204301075
2.4486803519061584
2.36950146627566
2.290322580645161
2.2130987292277613
2.136852394916911
2.0635386119257086
2.0
1.9413489736070384
1.8758553274682308
1.8064516129032255
1.7360703812316716
1.6656891495601174
1.598240469208211
1.5327468230694037
1.4711632453567938
1.4173998044965788
1.3734115347018572
1.3401759530791788
1.3186705767350928
1.3098729227761483
1.310850439882698
1.3196480938416422
1.3372434017595307
1.3607038123167154
1.3870967741935485
1.4134897360703813
1.436950146627566
1.455522971652004
1.469208211143695
1.478983382209189
1.4838709677419355
1.4868035190615836
1.4858260019550342
1.479960899315738
1.4701857282502444
1.455522971652004
1.4379276637341154
1.418377321603128
1.3978494623655917
1.3763440860215057
1.35386119257087
1.3294232649071358
1.3040078201368523
1.278592375366569
1.2590420332355816
1.2394916911045943
1.2121212121212122
1.1798631476050832
1.1495601173020529
1.1300097751710656
1.1368523949169111
1.1837732160312806
1.2805474095796676
1.4301075268817205
1.6275659824046922
1.857282502443793
2.069403714565005
2.2629521016617797
2.463343108504399
2.6451612903225805
2.790811339198436
2.8963831867057674
2.961876832844575
2.992179863147605
2.992179863147605
2.9687194525904204
2.9266862170087977
2.8690127077223853
2.807429130009776
2.740957966764418
2.6666666666666665
2.587487781036168
2.505376344086021
2.4242424242424243
2.346041055718475
2.269794721407625
2.196480938416422
2.12316715542522
2.0518084066471163
1.9833822091886608
1.9159335288367547
1.857282502443793
1.801564027370479
1.7409579667644184
1.6803519061583578
1.6217008797653958
1.565982404692082
1.5141739980449658
1.469208211143695
1.4349951124144673
1.412512218963832
1.401759530791789
1.4027370478983383
1.412512218963832
1.4281524926686218
1.447702834799609
1.4701857282502444
1.4946236559139785
1.5180840664711632
1.5376344086021505
1.5532746823069403
1.564027370478983
1.56891495601173
1.5669599217986314
1.5571847507331378
1.543499511241447
1.5298142717497556
1.5151515151515151
1.4946236559139785
1.4721407624633431
1.4486803519061584
1.4252199413489737
1.4027370478983383
1.380254154447703
1.3577712609970674
1.3362658846529814
1.3128054740957966
1.284457478005865
1.2580645161290325
1.2326490713587488
1.2043010752688172
1.1857282502443791
1.1915933528836755
1.2375366568914956
1.332355816226784
1.482893450635386
1.6803519061583578
1.9100684261974583
2.15347018572825
2.3900293255131966
2.6021505376344085
2.7595307917888565
2.870967741935484
2.959921798631476
3.016617790811339
3.0391006842619745
3.034213098729228
3.005865102639296
2.9589442815249267
2.8993157380254155
2.83088954056696
2.7546432062561097
2.675464320625611
2.6021505376344085
2.532746823069404
2.458455522971652
2.3822091886608017
2.3069403714565007
2.232649071358749
2.161290322580645
2.090909090909091
2.021505376344086
1.9530791788856303
1.8856304985337244
1.8201368523949168
1.7565982404692082
1.7018572825024438
1.653958944281525
1.603128054740958
1.555229716520039
1.512218963831867
1.47702834799609
1.4516129032258065
1.436950146627566
1.434017595307918
1.439882697947214
1.452590420332356
1.4711632453567938
1.490713587487781
1.5102639296187683
1.5278592375366569
1.542521994134897
1.552297165200391
1.5562072336265884
1.5542521994134897
1.547409579667644
1.5376344086021505
1.5239491691104594
1.5083088954056696
1.4897360703812317
1.4672531769305963
1.4301075268817205
1.3861192570869991
1.35386119257087
1.3264907135874875
1.300097751710655
1.2727272727272727
1.24633431085044
1.2179863147605083
1.1857282502443791
1.1505376344086022
1.1143695014662756
1.0801564027370478
1.0586510263929618
1.0557184750733135
1.0811339198435972
1.1505376344086022
1.270772238514174
1.4408602150537635
1.6520039100684265
1.8866080156402736
2.12316715542522
2.340175953079179
2.52297165200391
2.664711632453568
2.7624633431085046
2.814271749755621
2.83088954056696
2.825024437927664
2.7966764418377323
2.750733137829912
2.6911045943304006
2.6236559139784945
2.5513196480938416
2.47702834799609
2.40078201368524
2.32355816226784
2.247311827956989
2.179863147605083
2.1163245356793743
2.047898338220919
1.9775171065493649
1.9090909090909087
1.839687194525904
1.76930596285435
1.6979472140762464
1.6275659824046922
1.560117302052786
1.4946236559139785
1.4330400782013686
1.3763440860215057
1.332355816226784
1.2981427174975562
1.2668621700879763
1.2443792766373412
1.2316715542521994
1.2297165200391007
1.2346041055718475
1.2453567937438903
1.2609970674486803
1.2795698924731185
1.300097751710655
1.321603128054741
1.3401759530791788
1.3548387096774193
1.364613880742913
1.3695014662756595
1.3695014662756595
1.3655913978494625
1.3577712609970674
1.3470185728250244
1.332355816226784
1.3128054740957966
1.289345063538612
1.2639296187683284
1.238514173998045
1.2179863147605083
1.2003910068426198
1.1788856304985338
1.155425219941349
1.1329423264907137
1.1094819159335287
1.0811339198435972
1.0488758553274682
1.018572825024438
0.9990224828934506
1.0019550342130987
1.0420332355816226
1.1114369501466277
1.217008797653959
1.3773216031280548
1.5796676441837731
1.8064516129032255
2.0361681329423265
2.247311827956989
2.426197458455523
2.563049853372434
2.656891495601173
2.7096774193548385
2.727272727272727
2.7155425219941347
2.687194525904203
2.6451612903225805
2.590420332355816
2.5268817204301075
2.4574780058651027
2.3851417399804498
2.3118279569892475
2.236559139784946
2.160312805474096
2.085043988269794
2.0127077223851417
1.9423264907135875
1.881720430107527
1.827956989247312
1.7683284457478006
1.70772238514174
1.6471163245356797
1.585532746823069
1.52297165200391
1.4623655913978495
1.404692082111437
1.3509286412512218
1.3040078201368523
1.2658846529814272
1.241446725317693
1.227761485826002
1.2209188660801564
1.2238514173998043
1.2355816226783969
1.252199413489736
1.2717497556207231
1.29227761485826
1.313782991202346
1.3333333333333333
1.3470185728250244
1.356793743890518
1.3616813294232648
1.364613880742913
1.3636363636363635
1.3577712609970674
1.3479960899315735
1.3343108504398826
1.316715542521994
1.2961876832844574
1.2756598240469208
1.2541544477028348
1.2316715542521994
1.2072336265884651
1.181818181818182
1.1622678396871946
1.1456500488758554
1.1251221896383188
1.1006842619745845
1.0703812316715542
1.0391006842619743
1.0117302052785924
1.0
1.0166177908113392
1.0742913000977516
1.1808406647116323
1.3372434017595307
1.5356793743890518
1.7272727272727273
1.9120234604105573
2.1114369501466275
2.2961876832844577
2.450635386119257
2.565982404692082
2.6422287390029324
2.6832844574780057
2.6940371456500487
2.677419354838709
2.6422287390029324
2.591397849462365
2.535679374389052
2.4780058651026398
2.412512218963832
2.3421309872922778
2.269794721407625
2.1974584555229715
2.1270772238514173
2.058651026392962
1.992179863147605
1.927663734115347
1.865102639296188
1.804496578690127
1.7458455522971652
1.696969696969697
1.6520039100684265
1.6011730205278591
1.5464320625610948
1.4916911045943304
1.4389051808406648
1.3900293255131966
1.3470185728250244
1.3128054740957966
1.2883675464320623
1.273704789833822
1.267839687194526
1.270772238514174
1.2805474095796676
1.295210166177908
1.313782991202346
1.3333333333333333
1.3519061583577712
1.3685239491691104
1.3822091886608017
1.392961876832845
1.3988269794721409
1.3988269794721409
1.393939393939394
1.3841642228739004
1.3734115347018572
1.3616813294232648
1.3450635386119256
1.3255131964809383
1.303030303030303
1.2776148582600195
1.2541544477028348
1.2326490713587488
1.2101661779081134
1.187683284457478
1.1652003910068427
1.1397849462365592
1.1192570869990224
1.0987292277614855
1.0703812316715542
1.0449657869012707
1.0342130987292275
1.050830889540567
1.10752688172043
1.2121212121212122
1.3636363636363635
1.552297165200391
1.7624633431085044
1.9745845552297163
2.1700879765395893
2.320625610948192
2.4330400782013686
2.5239491691104594
2.5855327468230693
2.616813294232649
2.621700879765396
2.603128054740958
2.565982404692082
2.5161290322580645
2.4574780058651027
2.3919843597262958
2.3225806451612905
2.2580645161290325
2.1974584555229715
2.132942326490713
2.067448680351906
2.003910068426197
1.943304007820137
1.8826979472140764
1.8387096774193548
1.8035190615835777
1.7565982404692082
1.704789833822092
1.6520039100684265
1.598240469208211
1.5532746823069403
1.5131964809384164
1.4682306940371457
1.4242424242424243
1.383186705767351
1.348973607038123
1.3235581622678396
1.3079178885630498
1.3020527859237536
1.3049853372434017
1.3157380254154447
1.3333333333333333
1.3528836754643203
1.3724340175953078
1.3900293255131966
1.404692082111437
1.41544477028348
1.4213098729227762
1.4213098729227762
1.4164222873900294
1.4076246334310851
1.396871945259042
1.383186705767351
1.3685239491691104
1.3519061583577712
1.3362658846529814
1.321603128054741
1.3020527859237536
1.278592375366569
1.2551319648093842
1.2316715542521994
1.206256109481916
1.1808406647116323
1.155425219941349
1.1270772238514175
1.0948191593352885
1.06158357771261
1.0381231671554252
1.029325513196481
1.040078201368524
1.0869990224828934
1.181818181818182
1.3255131964809383
1.5102639296187683
1.7233626588465298
1.9423264907135875
2.147605083088954
2.324535679374389
2.462365591397849
2.5591397849462365
2.611925708699902
2.632453567937439
2.63049853372434
2.6070381231671558
2.5669599217986314
2.515151515151515
2.4545454545454546
2.3900293255131966
2.3225806451612905
2.2531769305962857
2.1818181818181817
2.1114369501466275
2.048875855327468
1.991202346041056
1.9305962854349952
1.869012707722385
1.8074291300097751
1.7458455522971652
1.686217008797654
1.6265884652981428
1.5679374389051808
1.5112414467253177
1.458455522971652
1.4086021505376345
1.367546432062561
1.3333333333333333
1.3010752688172045
1.2756598240469208
1.2580645161290325
1.249266862170088
1.2482893450635386
1.2551319648093842
