ppg
2.6158357771261
2.570869990224829
2.5190615835777126
2.462365591397849
2.401759530791789
2.3382209188660803
2.272727272727273
2.206256109481916
2.1417399804496577
2.080156402737048
2.0195503421309877
1.9608993157380252
1.911045943304008
1.8670576735092863
1.8172043010752688
1.7663734115347018
1.7165200391006843
1.6705767350928642
1.629521016617791
1.595307917888563
1.5698924731182795
1.5532746823069403
1.5464320625610948
1.5503421309872922
1.563049853372434
1.581622678396872
1.607038123167155
1.6412512218963833
1.6823069403714566
1.7282502443792769
1.7790811339198436
1.833822091886608
1.8914956011730208
1.95405669599218
2.0195503421309877
2.0879765395894427
2.156402737047898
2.2170087976539588
2.272727272727273
2.334310850439883
2.396871945259042
2.4574780058651027
2.515151515151515
2.56891495601173
2.6177908113391983
2.6608015640273703
2.696969696969697
2.7262952101661777
2.750733137829912
2.766373411534702
2.777126099706745
2.789833822091887
2.803519061583578
2.817204301075269
2.8289345063538613
2.841642228739003
2.8533724340175954
2.863147605083089
2.8719452590420333
2.8797653958944283
2.8856304985337244
2.8905180840664717
2.8905180840664717
2.8856304985337244
2.8807429130009776
2.8729227761485827
2.860215053763441
2.843597262952102
2.8211143695014664
2.792766373411535
2.758553274682307
2.720430107526881
2.677419354838709
2.63049853372434
2.5865102639296187
2.5425219941348973
2.493646138807429
2.439882697947214
2.383186705767351
2.324535679374389
2.26197458455523
2.1955034213098727
2.1270772238514173
2.056695992179863
1.9843597262952104
1.911045943304008
1.8387096774193548
1.7781036168132942
1.7253176930596286
1.6666666666666667
1.606060606060606
1.547409579667644
1.4887585532746823
1.43108504398827
1.375366568914956
1.3225806451612905
1.2727272727272727
1.2267839687194526
1.187683284457478
1.1622678396871946
1.147605083088954
1.1368523949169111
1.1329423264907137
1.1368523949169111
1.1495601173020529
1.1710654936461389
1.2003910068426198
1.2375366568914956
1.2805474095796676
1.3294232649071358
1.383186705767351
1.4418377321603129
1.498533724340176
1.5532746823069403
1.6148582600195502
1.6813294232649072
1.7517106549364614
1.823069403714565
1.8934506353861196
1.9618768328445748
2.029325513196481
2.0948191593352883
2.157380254154448
2.21505376344086
2.26197458455523
2.300097751710655
2.3362658846529816
2.367546432062561
2.393939393939394
2.4164222873900294
2.4379276637341154
2.4594330400782014
2.4789833822091887
2.4995112414467253
2.5210166177908118
2.5434995112414467
2.563049853372434
2.5777126099706744
2.5884652981427174
2.601173020527859
2.613880742913001
2.624633431085044
2.631476050830889
2.636363636363636
2.6373411534701856
2.634408602150537
2.627565982404692
2.6148582600195502
2.5962854349951123
2.5747800586510263
2.548387096774193
2.5161290322580645
2.4789833822091887
2.4379276637341154
2.393939393939394
2.347018572825025
2.2981427174975564
2.24633431085044
2.1925708699902247
2.1358748778103616
2.0762463343108504
2.013685239491691
1.9579667644183771
1.905180840664712
1.842619745845552
1.7771260997067448
1.710654936461388
1.6451612903225807
1.581622678396872
1.521994134897361
1.4643206256109482
1.4076246334310851
1.3509286412512218
1.295210166177908
1.2502443792766371
1.2140762463343109
1.173998044965787
1.1348973607038124
1.099706744868035
1.0703812316715542
1.050830889540567
1.0410557184750733
1.0391006842619743
1.0449657869012707
1.0606060606060606
1.0850439882697946
1.1163245356793745
1.1515151515151516
1.1906158357771262
1.2346041055718475
1.2834799608993157
1.3372434017595307
1.393939393939394
1.4545454545454546
1.517106549364614
1.5826001955034212
1.6490713587487782
1.7145650048875856
1.7790811339198436
1.8347996089931573
1.8866080156402736
1.9403714565004888
1.991202346041056
2.0391006842619745
2.0821114369501466
2.1192570869990224
2.1515151515151514
2.177908113391984
2.201368523949169
2.222873900293255
2.243401759530792
2.264907135874878
2.283479960899316
2.300097751710655
2.3196480938416424
2.3421309872922778
2.3655913978494625
2.389051808406647
2.410557184750733
2.4301075268817205
2.4486803519061584
2.4652981427174976
2.4789833822091887
2.487781036168133
2.490713587487781
2.489736070381232
2.4858260019550342
2.4789833822091887
2.4672531769305963
2.450635386119257
2.43108504398827
2.407624633431085
2.3792766373411536
2.346041055718475
2.3098729227761488
2.270772238514174
2.2277614858260018
2.187683284457478
2.1485826001955037
2.096774193548387
2.038123167155425
1.978494623655914
1.9188660801564028
1.858260019550342
1.7986314760508308
1.7419354838709675
1.6881720430107527
1.6363636363636365
1.585532746823069
1.543499511241447
1.5063538611925709
1.4652981427174976
1.4222873900293256
1.3792766373411536
1.3391984359726294
1.3049853372434017
1.2766373411534702
1.2551319648093842
1.2443792766373412
1.2443792766373412
1.2551319648093842
1.2756598240469208
1.303030303030303
1.3362658846529814
1.3773216031280548
1.4242424242424243
1.478005865102639
1.5376344086021505
1.6011730205278591
1.6695992179863148
1.7409579667644184
1.81524926686217
1.8914956011730208
1.970674486803519
2.040078201368524
2.104594330400782
2.1788856304985336
2.257086999022483
2.335288367546432
2.412512218963832
2.486803519061584
2.555229716520039
2.6177908113391983
2.674486803519061
2.724340175953079
2.766373411534702
2.795698924731183
2.817204301075269
2.8406647116324537
2.865102639296188
2.8905180840664717
2.916911045943304
2.9442815249266863
2.9716520039100685
2.9980449657869013
3.0234604105571847
3.047898338220919
3.070381231671554
3.089931573802541
3.1006842619745845
3.1065493646138806
3.114369501466276
3.121212121212121
3.126099706744868
3.1280547409579667
3.126099706744868
3.1192570869990224
3.10752688172043
3.088954056695992
3.064516129032258
3.034213098729228
3.0009775171065494
2.964809384164223
2.9237536656891496
2.8797653958944283
2.833822091886608
2.78494623655914
2.7331378299120237
2.679374389051808
2.622678396871945
2.563049853372434
2.5004887585532747
2.434017595307918
2.366568914956012
2.3059628543499517
2.2482893450635384
2.185728250244379
2.121212121212121
2.056695992179863
1.9931573802541545
1.9315738025415443
1.871945259042033
1.8132942326490715
1.7565982404692082
1.7018572825024438
1.6490713587487782
1.6080156402737047
1.5757575757575757
1.543499511241447
1.5161290322580645
1.4975562072336266
1.487781036168133
1.4887585532746823
1.500488758553275
1.521994134897361
1.5513196480938416
1.587487781036168
1.6304985337243405
1.6793743890518085
1.726295210166178
1.7732160312805474
1.827956989247312
1.8885630498533723
1.9521016617790807
2.018572825024438
2.0869990224828934
2.156402737047898
2.225806451612903
2.2952101661779083
2.364613880742913
2.43108504398827
2.4858260019550342
2.5317693059628543
2.5777126099706744
2.618768328445748
2.654936461388074
2.686217008797654
2.7116324535679373
2.7331378299120237
2.7517106549364616
2.768328445747801
2.782991202346041
2.7976539589442817
2.8103616813294234
2.817204301075269
2.8211143695014664
2.8269794721407626
2.833822091886608
2.841642228739003
2.849462365591398
2.855327468230694
2.859237536656892
2.859237536656892
2.8563049853372435
2.8484848484848486
2.835777126099707
2.820136852394917
2.80058651026393
2.776148582600196
2.745845552297165
2.7096774193548385
2.6695992179863146
2.625610948191593
2.578690127077224
2.527859237536657
2.474095796676442
2.41544477028348
2.35386119257087
2.291300097751711
2.233626588465298
2.176930596285435
2.112414467253177
2.0449657869012707
1.975562072336266
1.905180840664712
1.8328445747800584
1.7624633431085044
1.694037145650049
1.6275659824046922
1.563049853372434
1.501466275659824
1.452590420332356
1.4086021505376345
1.359726295210166
1.3098729227761483
1.260019550342131
1.2130987292277615
1.1720430107526882
1.1378299120234605
1.1133919843597262
1.099706744868035
1.096774193548387
1.1026392961876832
1.1163245356793745
1.13880742913001
1.1681329423264908
1.203323558162268
1.2443792766373412
1.2913000977517106
1.3440860215053765
1.4007820136852396
1.4623655913978495
1.5268817204301075
1.595307917888563
1.6656891495601174
1.7380254154447703
1.8025415444770283
1.8621700879765395
1.9266862170087975
1.9902248289345064
2.0518084066471163
2.110459433040078
2.164222873900293
2.212121212121212
2.254154447702835
2.289345063538612
2.318670576735093
2.345063538611926
2.36950146627566
2.389051808406647
2.4056695992179864
2.4252199413489737
2.444770283479961
2.4652981427174976
2.4858260019550342
2.506353861192571
2.5249266862170088
2.541544477028348
2.5542521994134897
2.5640273704789838
2.570869990224829
2.5718475073313782
2.5698924731182795
2.5669599217986314
2.5620723362658846
2.5542521994134897
2.5405669599217986
2.5219941348973607
2.4975562072336266
2.4682306940371457
2.4330400782013686
2.393939393939394
2.350928641251222
2.304985337243402
2.2629521016617797
2.222873900293255
2.175953079178885
2.124144672531769
2.067448680351906
2.006842619745845
1.943304007820137
1.87683284457478
1.8084066471163245
1.7380254154447703
1.6695992179863148
1.6050830889540566
1.552297165200391
1.5073313782991202
1.457478005865103
1.4056695992179864
1.3528836754643203
1.3010752688172045
1.2512218963831867
1.2023460410557183
1.155425219941349
1.088954056695992
1.0156402737047898
0.9657869012707724
0.93841642228739
0.9257086999022482
0.919843597262952
0.9217986314760508
0.9315738025415444
0.9511241446725318
0.9775171065493646
1.010752688172043
1.0488758553274682
1.093841642228739
1.142717497556207
1.195503421309873
1.2531769305962854
1.3088954056695992
1.3636363636363635
1.4252199413489737
1.490713587487781
1.5581622678396871
1.6275659824046922
1.696969696969697
1.7634408602150538
1.8269794721407624
1.8866080156402736
1.9413489736070384
1.9902248289345064
2.0283479960899315
2.058651026392962
2.0869990224828934
2.113391984359726
2.136852394916911
2.1593352883675463
2.1808406647116323
2.201368523949169
2.222873900293255
2.2453567937438903
2.2668621700879767
2.2883675464320627
2.3098729227761488
2.3274682306940373
2.3411534701857284
2.3548387096774195
2.366568914956012
2.377321603128055
2.3841642228739004
2.3870967741935485
2.386119257086999
2.3792766373411536
2.367546432062561
2.3519061583577714
2.3313782991202348
2.3088954056695994
2.283479960899316
2.2531769305962857
2.218963831867057
2.182795698924731
2.1436950146627565
2.102639296187683
2.059628543499511
2.013685239491691
1.963831867057673
1.911045943304008
1.8563049853372435
1.7986314760508308
1.747800586510264
1.7018572825024438
1.6500488758553276
1.5943304007820136
1.5386119257087
1.482893450635386
1.4271749755620724
1.3724340175953078
1.3186705767350928
1.267839687194526
1.2189638318670577
1.1730205278592376
1.1378299120234605
1.110459433040078
1.0811339198435972
1.053763440860215
1.0332355816226784
1.021505376344086
1.018572825024438
1.0234604105571847
1.0371456500488758
1.0596285434995112
1.0909090909090908
1.1290322580645162
1.1730205278592376
1.2179863147605083
1.2658846529814272
1.321603128054741
1.3822091886608017
1.4467253176930597
1.5141739980449658
1.5835777126099706
1.6559139784946235
1.7302052785923754
1.8054740957966764
1.878787878787879
1.951124144672532
2.0127077223851417
2.067448680351906
2.126099706744868
2.182795698924731
2.236559139784946
2.2844574780058653
2.3274682306940373
2.364613880742913
2.396871945259042
2.426197458455523
2.453567937438905
2.479960899315738
2.504398826979472
2.5210166177908118
2.5347018572825024
2.5513196480938416
2.5698924731182795
2.587487781036168
2.6041055718475072
2.6207233626588464
2.636363636363636
2.6510263929618767
2.6637341153470184
2.675464320625611
2.684261974584555
2.687194525904203
2.6881720430107525
2.6901270772238512
2.6901270772238512
2.6881720430107525
2.6823069403714563
2.6725317693059627
2.658846529814272
2.641251221896383
2.619745845552297
2.595307917888563
2.5650048875855327
2.5288367546432062
2.4916911045943304
2.452590420332356
2.406647116324536
2.355816226783969
2.300097751710655
2.242424242424242
2.1847507331378297
2.1270772238514173
2.069403714565005
2.0127077223851417
1.956989247311828
1.902248289345064
1.855327468230694
1.8132942326490715
1.7673509286412512
1.7204301075268815
1.6744868035190617
1.6304985337243405
1.5894428152492668
1.5542521994134897
1.525904203323558
1.5034213098729228
1.4897360703812317
1.4868035190615836
1.4936461388074291
1.5073313782991202
1.5268817204301075
1.5542521994134897
1.5894428152492668
1.6304985337243405
1.6764418377321604
1.7282502443792769
1.7849462365591398
1.844574780058651
1.90811339198436
1.975562072336266
2.0449657869012707
2.1065493646138806
2.164222873900293
2.23069403714565
2.2991202346041058
2.366568914956012
2.432062561094819
2.49266862170088
2.548387096774193
2.5972629521016617
2.638318670576735
2.6725317693059627
2.7008797653958942
2.7233626588465296
2.736070381231672
2.744868035190616
2.755620723362659
2.766373411534702
2.776148582600196
2.7859237536656893
2.795698924731183
2.8044965786901277
2.812316715542522
2.8181818181818183
2.8240469208211145
2.8289345063538613
2.827956989247312
2.8240469208211145
2.820136852394917
2.8152492668621703
2.807429130009776
2.7947214076246336
2.777126099706745
2.7536656891495603
2.7253176930596283
2.6911045943304006
2.652003910068426
2.6099706744868034
2.5640273704789838
2.520039100684262
2.47702834799609
2.429130009775171
2.376344086021505
2.3196480938416424
2.259042033235582
2.1955034213098727
2.129032258064516
2.058651026392962
1.9872922776148585
1.9159335288367547
1.8455522971652003
1.7839687194525904
1.7282502443792769
1.6666666666666667
1.6041055718475072
1.542521994134897
1.482893450635386
1.4252199413489737
1.3695014662756595
1.3157380254154447
1.2639296187683284
1.217008797653959
1.173998044965787
1.1436950146627567
1.1231671554252198
1.104594330400782
1.0928641251221896
1.088954056695992
1.0928641251221896
1.1036168132942326
1.1231671554252198
1.1505376344086022
1.1857282502443791
1.227761485826002
1.2746823069403714
1.327468230694037
1.3792766373411536
1.4320625610948192
1.4926686217008798
1.5894428152492668
1.7067448680351909
1.804496578690127
1.89247311827957
1.975562072336266
2.0557184750733137
2.132942326490713
2.2082111436950145
2.2795698924731185
2.337243401759531
2.3851417399804498
2.4330400782013686
2.4789833822091887
2.5180840664711632
2.5513196480938416
2.578690127077224
2.603128054740958
2.6265884652981426
2.649071358748778
2.6695992179863146
2.6901270772238512
2.7096774193548385
2.724340175953079
2.736070381231672
2.748778103616813
2.760508308895406
2.771260997067449
2.7781036168132944
2.782991202346041
2.7839687194525906
2.7810361681329425
2.774193548387097
2.763440860215054
2.748778103616813
2.730205278592375
2.70772238514174
2.6803519061583576
2.6480938416422286
2.610948191593353
2.5698924731182795
2.525904203323558
2.4789833822091887
2.4301075268817205
2.378299120234604
2.32355816226784
2.2658846529814274
2.2052785923753664
2.150537634408602
2.096774193548387
2.0361681329423265
1.9716520039100685
1.9042033235581624
1.836754643206256
1.76930596285435
1.7038123167155426
1.6412512218963833
1.5796676441837731
1.520039100684262
1.4613880742913
1.4134897360703813
1.3714565004887584
1.324535679374389
1.2766373411534702
1.2287390029325511
1.1857282502443791
1.1495601173020529
1.1221896383186705
1.1036168132942326
1.0957966764418376
1.0987292277614855
1.1094819159335287
1.1290322580645162
1.155425219941349
1.187683284457478
1.224828934506354
1.2688172043010753
1.316715542521994
1.3685239491691104
1.4242424242424243
1.4838709677419355
1.5464320625610948
1.6109481915933528
1.6793743890518085
1.7497556207233629
1.8132942326490715
1.8729227761485825
1.9364613880742916
2.0009775171065494
2.0625610948191597
2.121212121212121
2.1739980449657867
2.219941348973607
2.260019550342131
2.294232649071359
2.3225806451612905
2.346041055718475
2.367546432062561
2.3851417399804498
2.401759530791789
2.421309872922776
2.441837732160313
2.462365591397849
2.4809384164222874
2.498533724340176
2.5141739980449658
2.5288367546432062
2.5425219941348973
2.5542521994134897
2.5640273704789838
2.56891495601173
2.5698924731182795
2.5698924731182795
2.565982404692082
2.557184750733138
2.5425219941348973
2.5239491691104594
2.5004887585532747
2.4711632453567938
2.4379276637341154
2.39980449657869
2.357771260997068
2.312805474095797
2.272727272727273
2.232649071358749
2.1847507331378297
2.132942326490713
2.0791788856304985
2.021505376344086
1.9608993157380252
1.8993157380254155
1.835777126099707
1.7712609970674489
1.70772238514174
1.64613880742913
1.5962854349951123
1.552297165200391
1.501466275659824
1.447702834799609
1.3949169110459434
1.3440860215053765
1.295210166177908
1.2482893450635386
1.2043010752688172
1.164222873900293
1.130987292277615
1.104594330400782
1.086021505376344
1.0801564027370478
1.0840664711632453
1.093841642228739
1.110459433040078
1.1348973607038124
1.166177908113392
1.203323558162268
1.24633431085044
1.2942326490713587
1.3479960899315735
1.4066471163245358
1.469208211143695
1.5278592375366569
1.585532746823069
1.6500488758553276
1.718475073313783
1.7888563049853372
1.86119257086999
1.9335288367546437
2.003910068426197
2.070381231671554
2.1309872922776147
2.1867057673509285
2.2355816226783967
2.27761485826002
2.3098729227761488
2.334310850439883
2.358748778103617
2.383186705767351
2.406647116324536
2.429130009775171
2.4516129032258065
2.474095796676442
2.496578690127077
2.5190615835777126
2.539589442815249
2.560117302052786
2.575757575757576
2.5884652981427174
2.603128054740958
2.616813294232649
2.627565982404692
2.634408602150537
2.638318670576735
2.636363636363636
2.6295210166177907
2.6177908113391983
2.601173020527859
2.5806451612903225
2.557184750733138
2.5317693059628543
2.501466275659824
2.4682306940371457
2.43108504398827
2.3919843597262958
2.3499511241446727
2.304985337243402
2.257086999022483
2.2052785923753664
2.1495601173020527
2.090909090909091
2.027370478983382
1.9716520039100685
1.9178885630498532
1.8563049853372435
1.7927663734115349
1.7302052785923754
1.6705767350928642
1.6129032258064515
1.5571847507331378
1.5024437927663734
1.447702834799609
1.3949169110459434
1.3450635386119256
1.3069403714565004
1.2746823069403714
1.2394916911045943
1.2072336265884651
1.1788856304985338
1.1564027370478984
1.142717497556207
1.13880742913001
1.1436950146627567
1.1573802541544478
1.1798631476050832
1.2101661779081134
1.2473118279569892
1.2864125122189638
1.3284457478005864
1.3773216031280548
1.4467253176930597
1.5112414467253177
1.560117302052786
1.616813294232649
1.678396871945259
1.7429130009775171
1.8084066471163245
1.87683284457478
1.945259042033236
2.002932551319648
2.053763440860215
2.10752688172043
2.1593352883675463
2.2052785923753664
2.2453567937438903
2.2795698924731185
2.3088954056695994
2.333333333333333
2.3548387096774195
2.412512218963832
2.4887585532746823
2.536656891495601
2.5669599217986314
2.589442815249267
2.613880742913001
2.638318670576735
2.662756598240469
2.684261974584555
2.702834799608993
2.720430107526881
2.736070381231672
2.748778103616813
2.7595307917888565
2.7673509286412514
2.76930596285435
2.766373411534702
2.758553274682307
2.745845552297165
2.7282502443792764
2.705767350928641
2.679374389051808
2.6480938416422286
2.6129032258064515
2.573802541544477
2.5317693059628543
2.4858260019550342
2.4359726295210167
2.389051808406647
2.343108504398827
2.2883675464320627
2.228739002932551
2.166177908113392
2.099706744868035
2.03128054740958
1.9618768328445748
1.89247311827957
1.823069403714565
1.7556207233626588
1.6911045943304008
1.6383186705767352
1.5913978494623655
1.5386119257087
1.4838709677419355
1.43108504398827
1.380254154447703
1.3304007820136852
1.2854349951124144
1.2482893450635386
1.2218963831867058
1.2072336265884651
1.2043010752688172
1.2140762463343109
1.2346041055718475
1.2639296187683284
1.3010752688172045
1.346041055718475
1.3958944281524928
1.4516129032258065
1.512218963831867
1.576735092864125
1.64613880742913
1.721407624633431
1.8005865102639296
1.8826979472140764
1.956989247311828
2.0283479960899315
2.10850439882698
2.193548387096774
2.2795698924731185
2.363636363636364
2.444770283479961
2.5219941348973607
2.592375366568915
2.654936461388074
2.7096774193548385
2.7565982404692084
2.7976539589442817
2.8269794721407626
2.8484848484848486
2.8699902248289346
2.8944281524926687
2.920821114369501
2.9501466275659824
2.9804496578690127
3.0127077223851417
3.046920821114369
3.081133919843597
3.114369501466276
3.144672531769306
3.1652003910068425
3.179863147605083
3.1974584555229715
3.2140762463343107
3.2277614858260018
3.2375366568914954
3.242424242424242
3.242424242424242
3.2355816226783967
3.2218963831867056
3.203323558162268
3.179863147605083
3.1515151515151514
3.120234604105572
3.086021505376344
3.04594330400782
3.0019550342130987
2.9530791788856305
2.9012707722385143
2.83088954056696
2.764418377321604
2.7145650048875853
2.653958944281525
2.5865102639296187
2.515151515151515
2.449657869012708
2.388074291300098
2.320625610948192
2.2521994134897363
2.1837732160312804
2.1163245356793743
2.050830889540567
1.986314760508309
1.9227761485826005
1.8621700879765395
1.8025415444770283
1.7468230694037146
1.696969696969697
1.6608015640273706
1.635386119257087
1.6148582600195502
1.6021505376344083
1.6011730205278591
1.6099706744868034
1.6285434995112416
1.656891495601173
1.694037145650049
1.7380254154447703
1.7878787878787878
1.8435972629521016
1.8973607038123168
1.9530791788856303
2.018572825024438
2.088954056695992
2.164222873900293
2.242424242424242
2.32355816226784
2.4056695992179864
2.486803519061584
2.5650048875855327
2.6402737047898337
2.7116324535679373
2.777126099706745
2.8269794721407626
2.866080156402737
2.905180840664712
2.940371456500489
2.9696969696969697
2.994134897360704
3.01564027370479
3.0361681329423265
3.0557184750733137
3.0733137829912023
3.088954056695992
3.101661779081134
3.10850439882698
3.1114369501466275
3.118279569892473
3.1251221896383186
3.1309872922776147
3.1358748778103616
3.139784946236559
3.1417399804496577
3.139784946236559
3.133919843597263
3.1221896383186705
3.104594330400782
3.0821114369501466
3.053763440860215
3.018572825024438
2.978494623655914
2.932551319648094
2.8826979472140764
2.8299120234604107
2.774193548387097
2.7145650048875853
2.652003910068426
2.58455522971652
2.5131964809384164
2.4389051808406648
2.3714565004887587
2.3069403714565007
2.233626588465298
2.156402737047898
2.0762463343108504
1.9951124144672527
1.913978494623656
1.8347996089931573
1.7595307917888563
1.6881720430107527
1.6177908113391983
1.5493646138807429
1.4936461388074291
1.4437927663734116
1.3861192570869991
1.327468230694037
1.2697947214076246
1.2179863147605083
1.1730205278592376
1.1358748778103618
1.10752688172043
1.0899315738025417
1.0840664711632453
1.0909090909090908
1.110459433040078
1.1378299120234605
1.1720430107526882
1.2130987292277615
1.2590420332355816
1.3118279569892473
1.370478983382209
1.434017595307918
1.5034213098729228
1.576735092864125
1.6529814271749756
1.732160312805474
1.8132942326490715
1.8856304985337244
1.95405669599218
2.0303030303030303
2.10752688172043
2.1837732160312804
2.257086999022483
2.324535679374389
2.3851417399804498
2.4389051808406648
2.4838709677419355
2.5268817204301075
2.5620723362658846
2.58455522971652
2.6021505376344085
2.618768328445748
2.6402737047898337
