ppg
3.8044965786901273
3.759530791788857
3.7067448680351904
3.6480938416422286
3.5855327468230693
3.5190615835777126
3.453567937438905
3.3870967741935485
3.315738025415445
3.243401759530792
3.174975562072336
3.110459433040078
3.046920821114369
2.9872922776148583
2.9315738025415445
2.87683284457478
2.825024437927664
2.7751710654936463
2.727272727272727
2.684261974584555
2.6471163245356792
2.610948191593353
2.573802541544477
2.535679374389052
2.4995112414467253
2.463343108504399
2.4281524926686218
2.3929618768328447
2.357771260997068
2.3196480938416424
2.281524926686217
2.251221896383187
2.2248289345063537
2.196480938416422
2.1652003910068425
2.131964809384164
2.0987292277614857
2.064516129032258
2.0303030303030303
1.9951124144672527
1.959921798631476
1.924731182795699
1.8914956011730208
1.86119257086999
1.8406647116324533
1.823069403714565
1.8025415444770283
1.780058651026393
1.7575757575757576
1.7350928641251222
1.7135874877810362
1.694037145650049
1.672531769305963
1.6500488758553276
1.6265884652981428
1.606060606060606
1.5933528836754642
1.5806451612903225
1.565982404692082
1.5513196480938416
1.5366568914956011
1.52297165200391
1.5131964809384164
1.5102639296187683
1.5141739980449658
1.530791788856305
1.565982404692082
1.619745845552297
1.6930596285434996
1.7712609970674489
1.855327468230694
1.9618768328445748
2.081133919843597
2.207233626588465
2.3391984359726297
2.4711632453567938
2.60019550342131
2.7233626588465296
2.838709677419355
2.948191593352884
3.0498533724340176
3.1280547409579667
3.1915933528836757
3.257086999022483
3.317693059628544
3.3714565004887587
3.4173998044965788
3.453567937438905
3.4780058651026398
3.4916911045943304
3.496578690127077
3.4946236559139785
3.486803519061584
3.472140762463343
3.4516129032258065
3.4252199413489737
3.3919843597262958
3.3499511241446727
3.300097751710655
3.243401759530792
3.1837732160312804
3.1221896383186705
3.0557184750733137
2.989247311827957
2.9237536656891496
2.860215053763441
2.8044965786901277
2.7565982404692084
2.70772238514174
2.659824046920821
2.6158357771261
2.572825024437928
2.530791788856305
2.489736070381232
2.449657869012708
2.412512218963832
2.376344086021505
2.340175953079179
2.304985337243402
2.2737047898338223
2.247311827956989
2.219941348973607
2.1915933528836757
2.1622678396871944
2.132942326490713
2.103616813294233
2.0762463343108504
2.047898338220919
2.01564027370479
1.9833822091886608
1.9530791788856303
1.927663734115347
1.906158357771261
1.8836754643206255
1.8602150537634408
1.6959921798631477
1.4633431085043989
1.33822091886608
1.262952101661779
1.2140762463343109
1.1788856304985338
1.1515151515151516
1.1280547409579669
1.1065493646138806
1.0918866080156402
1.0801564027370478
1.067448680351906
1.0557184750733135
1.0420332355816226
1.0254154447702837
1.0087976539589445
0.9941348973607038
0.9794721407624634
0.9648093841642228
0.9501466275659824
0.935483870967742
0.9257086999022482
0.9208211143695014
0.9159335288367546
0.9110459433040078
0.9090909090909092
0.913978494623656
0.9286412512218964
0.9521016617790812
0.9872922776148584
1.035190615835777
1.096774193548387
1.1691104594330402
1.252199413489736
1.3333333333333333
1.41544477028348
1.5102639296187683
1.608993157380254
1.70772238514174
1.8064516129032255
1.902248289345064
1.9931573802541545
2.0762463343108504
2.1515151515151514
2.218963831867057
2.27761485826002
2.318670576735093
2.347996089931574
2.3743890518084068
2.3958944281524928
2.4115347018572826
2.420332355816227
2.423264907135875
2.420332355816227
2.410557184750733
2.393939393939394
2.36950146627566
2.3391984359726297
2.304007820136853
2.267839687194526
2.228739002932551
2.1847507331378297
2.136852394916911
2.0869990224828934
2.0361681329423265
1.9833822091886608
1.9305962854349952
1.878787878787879
1.828934506353861
1.7810361681329423
1.7350928641251222
1.6979472140762464
1.6656891495601174
1.6314760508308896
1.598240469208211
1.5650048875855327
1.5317693059628543
1.498533724340176
1.466275659824047
1.435972629521017
1.4066471163245358
1.3763440860215057
1.3440860215053765
1.3186705767350928
1.2971652003910068
1.2727272727272727
1.2453567937438903
1.2160312805474096
1.1867057673509287
1.1573802541544478
1.1290322580645162
1.1006842619745845
1.0713587487781036
1.043010752688172
1.0156402737047898
0.9882697947214076
0.967741935483871
0.9521016617790812
0.9315738025415444
0.9100684261974584
0.8856304985337243
0.8592375366568915
0.8347996089931574
0.8103616813294232
0.7849462365591398
0.761485826001955
0.739980449657869
0.7214076246334311
0.7106549364613881
0.7038123167155426
0.6930596285434996
0.6813294232649071
0.667644183773216
0.6539589442815249
0.6383186705767351
0.6226783968719453
0.6080156402737048
0.5933528836754643
0.5786901270772239
0.5650048875855328
0.5542521994134897
0.5493646138807429
0.5513196480938416
0.5532746823069403
0.5601173020527859
0.5747800586510264
0.6011730205278593
0.6412512218963832
0.6930596285434996
0.7585532746823069
0.8367546432062561
0.9247311827956988
1.018572825024438
1.1055718475073313
1.1906158357771262
1.2864125122189638
1.3851417399804498
1.482893450635386
1.576735092864125
1.6656891495601174
1.747800586510264
1.823069403714565
1.8885630498533723
1.9442815249266865
1.989247311827957
2.0234604105571847
2.0449657869012707
2.056695992179863
2.0625610948191597
2.0625610948191597
2.0547409579667644
2.042033235581622
2.024437927663734
2.002932551319648
1.975562072336266
1.9413489736070384
1.903225806451613
1.8621700879765395
1.8240469208211143
1.7859237536656891
1.7438905180840665
1.7028347996089932
1.66177908113392
1.6217008797653958
1.5835777126099706
1.5483870967741935
1.5141739980449658
1.4819159335288368
1.455522971652004
1.4320625610948192
1.409579667644184
1.3919843597262953
1.3773216031280548
1.3607038123167154
1.3421309872922775
1.3235581622678396
1.305962854349951
1.2903225806451613
1.2746823069403714
1.260019550342131
1.2453567937438903
1.23069403714565
1.217008797653959
1.206256109481916
1.1974584555229717
1.1857282502443791
1.1730205278592376
1.160312805474096
1.1485826001955035
1.133919843597263
1.1173020527859236
1.1016617790811338
1.0879765395894427
1.075268817204301
1.0625610948191593
1.050830889540567
1.0420332355816226
1.0332355816226784
1.0205278592375366
1.0068426197458455
0.9951124144672532
0.9853372434017597
0.9775171065493646
0.9706744868035192
0.9648093841642228
0.959921798631476
0.95405669599218
0.9452590420332356
0.93841642228739
0.9325513196480938
0.9247311827956988
0.9159335288367546
0.9071358748778104
0.8993157380254154
0.8914956011730205
0.884652981427175
0.8787878787878788
0.8748778103616813
0.873900293255132
0.8787878787878788
0.8914956011730205
0.913978494623656
0.946236559139785
0.9931573802541545
1.056695992179863
1.1329423264907137
1.2209188660801564
1.3196480938416422
1.426197458455523
1.5395894428152492
1.656891495601173
1.775171065493646
1.8914956011730208
1.988269794721408
2.075268817204301
2.1700879765395893
2.264907135874878
2.35386119257087
2.434017595307918
2.506353861192571
2.5698924731182795
2.6236559139784945
2.668621700879765
2.704789833822092
2.7341153470185726
2.755620723362659
2.766373411534702
2.76930596285435
2.771260997067449
2.7702834799608995
2.7653958944281527
2.7546432062561097
2.73802541544477
2.7155425219941347
2.686217008797654
2.6529814271749754
2.678396871945259
2.732160312805474
2.740957966764418
2.727272727272727
2.7008797653958942
2.667644183773216
2.631476050830889
2.5943304007820136
2.557184750733138
2.5219941348973607
2.489736070381232
2.4604105571847508
2.434017595307918
2.409579667644184
2.3851417399804498
2.363636363636364
2.3440860215053765
2.3255131964809386
2.30791788856305
2.291300097751711
2.272727272727273
2.254154447702835
2.2346041055718477
2.2130987292277613
2.1915933528836757
2.1710654936461387
2.1524926686217007
2.1358748778103616
2.121212121212121
2.1055718475073317
2.0879765395894427
2.070381231671554
2.0527859237536656
2.0361681329423265
2.018572825024438
2.0019550342130987
1.9853372434017595
1.967741935483871
1.9530791788856303
1.9442815249266865
1.9364613880742916
1.9257086999022484
1.9149560117302051
1.906158357771261
1.8963831867057677
1.884652981427175
1.8729227761485825
1.8602150537634408
1.847507331378299
1.8347996089931573
1.822091886608016
1.8093841642228736
1.7986314760508308
1.7898338220918866
1.7790811339198436
1.7663734115347018
1.7526881720430108
1.7380254154447703
1.726295210166178
1.715542521994135
1.70772238514174
1.7038123167155426
1.7067448680351909
1.7194525904203324
1.7390029325513197
1.7644183773216031
1.8025415444770283
1.8543499511241448
1.919843597262952
1.997067448680352
2.083088954056696
2.175953079178885
2.274682306940372
2.376344086021505
2.47702834799609
2.5777126099706744
2.67644183773216
2.757575757575758
2.8269794721407626
2.8993157380254155
2.967741935483871
3.032258064516129
3.089931573802541
3.139784946236559
3.1818181818181817
3.2170087976539588
3.2453567937438903
3.267839687194526
3.2854349951124147
3.29227761485826
3.29227761485826
3.2932551319648096
3.291300097751711
3.2844574780058653
3.270772238514174
3.2531769305962857
3.2297165200391005
3.201368523949169
3.167155425219941
3.129032258064516
3.086021505376344
3.040078201368524
2.995112414467253
2.948191593352884
2.898338220918866
2.8455522971652005
2.792766373411535
2.7419354838709675
2.69208211143695
2.644183773216031
2.5992179863147604
2.5562072336265884
2.5161290322580645
2.4780058651026398
2.443792766373412
2.4134897360703813
2.3822091886608017
2.3499511241446727
2.3196480938416424
2.2883675464320627
2.257086999022483
2.2277614858260018
2.198435972629521
2.16911045943304
2.139784946236559
2.1114369501466275
2.0840664711632453
2.059628543499511
2.035190615835777
2.005865102639296
1.975562072336266
1.945259042033236
1.9159335288367547
1.8885630498533723
1.8631476050830889
1.8387096774193548
1.81524926686217
1.793743890518084
1.7712609970674489
1.750733137829912
1.7341153470185728
1.715542521994135
1.696969696969697
1.6793743890518085
1.6598240469208212
1.6412512218963833
1.6236559139784943
1.6041055718475072
1.58455522971652
1.5669599217986314
1.552297165200391
1.5386119257087
1.5288367546432062
1.521016617790811
1.5112414467253177
1.4975562072336266
1.482893450635386
1.466275659824047
1.4506353861192571
1.4379276637341154
1.4281524926686218
1.423264907135875
1.4252199413489737
1.436950146627566
1.456500488758553
1.4838709677419355
1.5239491691104594
1.5786901270772238
1.64613880742913
1.7233626588465298
1.8084066471163245
1.9012707722385145
1.9980449657869013
2.0977517106549364
2.1955034213098727
2.289345063538612
2.3792766373411536
2.453567937438905
2.5180840664711632
2.5835777126099706
2.64613880742913
2.704789833822092
2.757575757575758
2.8025415444770285
2.8396871945259043
2.8699902248289346
2.89345063538612
2.911045943304008
2.9227761485826003
2.9266862170087977
2.9257086999022484
2.9227761485826003
2.9159335288367547
2.9042033235581624
2.887585532746823
2.8670576735092865
2.8406647116324537
2.8084066471163247
2.7702834799608995
2.729227761485826
2.684261974584555
2.636363636363636
2.591397849462365
2.547409579667644
2.501466275659824
2.455522971652004
2.412512218963832
2.372434017595308
2.3362658846529816
2.3010752688172045
2.2658846529814274
2.232649071358749
2.201368523949169
2.1710654936461387
2.1436950146627565
2.118279569892473
2.09188660801564
2.0664711632453567
2.0410557184750733
2.01564027370479
1.9902248289345064
1.9657869012707725
1.943304007820137
1.919843597262952
1.895405669599218
1.869012707722385
1.8435972629521016
1.823069403714565
1.804496578690127
1.782991202346041
1.7595307917888563
1.7350928641251222
1.710654936461388
1.6881720430107527
1.6656891495601174
1.6441837732160314
1.6226783968719452
1.6011730205278591
1.5796676441837731
1.564027370478983
1.552297165200391
1.5405669599217986
1.5278592375366569
1.5141739980449658
1.500488758553275
1.4868035190615836
1.4731182795698925
1.457478005865103
1.4408602150537635
1.426197458455523
1.414467253176931
1.4037145650048877
1.3958944281524928
1.3900293255131966
1.3812316715542523
1.370478983382209
1.2688172043010753
1.1221896383186705
1.043010752688172
0.9990224828934506
0.9765395894428152
0.9706744868035192
0.978494623655914
0.9990224828934506
1.0263929618768328
1.0625610948191593
1.1114369501466277
1.173998044965787
1.2482893450635386
1.3313782991202343
1.4213098729227762
1.5161290322580645
1.6129032258064515
1.7086999022482894
1.8035190615835777
1.8944281524926687
1.9687194525904204
2.034213098729228
2.103616813294233
2.16911045943304
2.2297165200391005
2.281524926686217
2.3274682306940373
2.366568914956012
2.3978494623655915
2.4222873900293256
2.439882697947214
2.450635386119257
2.455522971652004
2.452590420332356
2.441837732160313
2.4281524926686218
2.4115347018572826
2.3900293255131966
2.3626588465298144
2.3304007820136854
2.2952101661779083
2.2561094819159337
2.21505376344086
2.1739980449657867
2.133919843597263
2.0977517106549364
2.0635386119257086
2.026392961876833
1.988269794721408
1.951124144672532
1.9159335288367547
1.8826979472140764
1.8514173998044965
1.8201368523949168
1.7898338220918866
1.7605083088954057
1.7331378299120237
1.70772238514174
1.6852394916911049
1.6656891495601174
1.643206256109482
1.6217008797653958
1.6011730205278591
1.5806451612903225
1.5591397849462365
1.5376344086021505
1.5151515151515151
1.490713587487781
1.4652981427174976
1.439882697947214
1.418377321603128
1.3988269794721409
1.3734115347018572
1.3470185728250244
1.3225806451612905
1.2971652003910068
1.2717497556207231
1.2473118279569892
1.2228739002932552
1.2013685239491692
1.181818181818182
1.160312805474096
1.13880742913001
1.1231671554252198
1.1085043988269794
1.0899315738025417
1.0703812316715542
1.050830889540567
1.032258064516129
1.0127077223851415
0.9931573802541545
0.9745845552297164
0.956989247311828
0.9403714565004888
0.9247311827956988
0.9149560117302052
0.9081133919843596
0.8963831867057673
0.8826979472140762
0.8690127077223851
0.8543499511241447
0.8377321603128055
0.8211143695014663
0.8074291300097751
0.7996089931573802
0.7966764418377321
0.8015640273704789
0.8172043010752689
0.841642228739003
0.8729227761485826
0.9149560117302052
0.9696969696969696
1.0371456500488758
1.115347018572825
1.2003910068426198
1.2903225806451613
1.3861192570869991
1.4809384164222874
1.5728250244379276
1.66177908113392
1.7360703812316716
1.8005865102639296
1.866080156402737
1.9257086999022484
1.978494623655914
2.024437927663734
2.0635386119257086
2.0957966764418376
2.120234604105572
2.133919843597263
2.139784946236559
2.1407624633431084
2.136852394916911
2.1270772238514173
2.112414467253177
2.0928641251221896
2.069403714565005
2.0410557184750733
2.0097751710654936
1.9745845552297163
1.9345063538611929
1.8905180840664717
1.844574780058651
1.7986314760508308
1.7526881720430108
1.7126099706744868
1.675464320625611
1.6363636363636365
1.598240469208211
1.5591397849462365
1.521994134897361
1.4897360703812317
1.4604105571847508
1.4330400782013686
1.4056695992179864
1.3792766373411536
1.35386119257087
1.3304007820136852
1.3118279569892473
1.2961876832844574
1.2776148582600195
1.2580645161290325
1.238514173998045
1.219941348973607
1.2013685239491692
1.1837732160312806
1.166177908113392
1.147605083088954
1.1270772238514175
1.1065493646138806
1.0909090909090908
1.0772238514173995
1.06158357771261
1.0449657869012707
1.0273704789833822
1.0097751710654936
0.9912023460410556
0.9716520039100685
0.9530791788856304
0.9374389051808406
0.9257086999022482
0.9130009775171064
0.9002932551319648
0.8924731182795699
0.8856304985337243
0.8748778103616813
0.8611925708699902
0.8455522971652004
0.8318670576735093
0.8181818181818182
0.8054740957966764
0.7947214076246334
0.782991202346041
0.772238514173998
0.761485826001955
0.7546432062561095
0.750733137829912
0.7438905180840665
0.7341153470185728
0.7233626588465298
0.7126099706744868
0.7028347996089932
0.696969696969697
0.6959921798631477
0.7028347996089932
0.718475073313783
0.7468230694037146
0.7888563049853372
0.8367546432062561
0.8924731182795699
0.9618768328445748
1.0420332355816226
1.130987292277615
1.2267839687194526
1.3264907135874875
1.4301075268817205
1.5327468230694037
1.6304985337243405
1.7253176930596286
1.81524926686217
1.8885630498533723
1.951124144672532
2.013685239491691
2.071358748778104
2.1221896383186705
2.163245356793744
2.196480938416422
2.220918866080156
2.2375366568914954
2.247311827956989
2.2521994134897363
2.2521994134897363
2.247311827956989
2.2375366568914954
2.2238514173998043
2.2052785923753664
2.1808406647116323
2.1515151515151514
2.118279569892473
2.0821114369501466
2.04594330400782
2.0087976539589443
1.9696969696969695
1.9305962854349952
1.89247311827957
1.8592375366568916
1.83088954056696
1.801564027370479
1.772238514173998
1.7448680351906158
1.7194525904203324
1.6959921798631477
1.6735092864125125
1.651026392961877
1.629521016617791
1.6099706744868034
1.694037145650049
1.833822091886608
1.895405669599218
1.913978494623656
1.911045943304008
1.8983382209188664
1.881720430107527
1.8641251221896384
1.8455522971652003
1.826001955034213
1.8064516129032255
1.7859237536656891
1.7624633431085044
1.737047898338221
1.7165200391006843
1.6989247311827955
1.6793743890518085
1.6598240469208212
1.640273704789834
1.6207233626588464
1.6011730205278591
1.5826001955034212
1.5650048875855327
1.5493646138807429
1.5356793743890518
1.5239491691104594
1.5161290322580645
1.5112414467253177
1.504398826979472
1.4965786901270772
1.490713587487781
1.4848484848484849
1.478983382209189
1.4711632453567938
1.4633431085043989
1.456500488758553
1.4496578690127078
1.4428152492668622
1.436950146627566
1.434017595307918
1.43108504398827
1.426197458455523
1.4222873900293256
1.4203323558162269
1.4203323558162269
1.4271749755620724
1.4437927663734116
1.474095796676442
1.517106549364614
1.573802541544477
1.6451612903225807
1.7174975562072337
1.793743890518084
1.8875855327468232
1.9931573802541545
2.10850439882698
2.2297165200391005
2.35386119257087
2.4760508308895406
2.5962854349951123
2.713587487781036
2.8269794721407626
2.932551319648094
3.029325513196481
3.104594330400782
3.166177908113392
3.228739002932551
3.2883675464320627
3.3421309872922778
3.389051808406647
3.4271749755620724
3.4574780058651027
3.4809384164222874
3.4995112414467253
3.512218963831867
3.5180840664711632
3.5141739980449658
3.5024437927663734
3.487781036168133
3.469208211143695
3.4457478005865103
3.4164222873900294
3.383186705767351
3.345063538611926
3.3010752688172045
3.2531769305962857
3.2023460410557183
3.150537634408602
3.1006842619745845
3.053763440860215
3.0087976539589443
2.963831867057673
2.919843597262952
2.875855327468231
2.832844574780059
2.791788856304985
2.7517106549364616
2.7116324535679373
2.675464320625611
2.644183773216031
2.613880742913001
2.5865102639296187
2.560117302052786
2.530791788856305
2.5004887585532747
2.4731182795698925
2.44672531769306
2.419354838709677
2.391006842619746
2.3626588465298144
2.3362658846529816
2.310850439882698
2.2854349951124147
2.260997067448681
2.2385141739980448
2.2160312805474094
2.190615835777126
2.1652003910068425
2.1407624633431084
2.114369501466276
2.088954056695992
2.064516129032258
2.0410557184750733
2.0195503421309877
1.9990224828934504
1.9804496578690127
1.964809384164223
1.9501466275659824
1.932551319648094
1.913978494623656
1.8944281524926687
1.8758553274682308
1.8592375366568916
1.842619745845552
1.826001955034213
1.8093841642228736
1.790811339198436
1.772238514173998
1.7526881720430108
1.7380254154447703
1.7272727272727273
1.7135874877810362
1.7018572825024438
1.694037145650049
1.6901270772238517
1.6930596285434996
1.704789833822092
1.726295210166178
1.7605083088954057
1.8093841642228736
1.8748778103616808
1.9413489736070384
2.0127077223851417
2.102639296187683
2.2052785923753664
2.315738025415445
2.43108504398827
2.548387096774193
2.662756598240469
2.771260997067449
2.875855327468231
2.9745845552297165
3.064516129032258
3.145650048875855
3.206256109481916
3.254154447702835
3.304985337243402
3.350928641251222
3.3900293255131966
3.423264907135875
3.449657869012708
3.469208211143695
3.4819159335288368
3.4887585532746823
3.486803519061584
3.4789833822091887
3.462365591397849
3.439882697947214
3.41544477028348
3.3900293255131966
3.360703812316716
3.324535679374389
3.283479960899316
3.236559139784946
3.1837732160312804
3.1251221896383186
3.0635386119257086
2.99902248289345
2.936461388074292
2.878787878787879
2.8269794721407626
2.7751710654936463
2.7233626588465296
2.6725317693059627
2.6236559139784945
2.5777126099706744
2.533724340175953
2.4916911045943304
2.4516129032258065
2.4115347018572826
2.3743890518084068
2.343108504398827
2.315738025415445
2.2873900293255134
2.257086999022483
2.225806451612903
2.1955034213098727
2.1652003910068425
2.1358748778103616
2.1065493646138806
2.075268817204301
2.043010752688172
2.0097751710654936
1.9804496578690127
1.95405669599218
1.9257086999022484
1.8983382209188664
1.8699902248289344
1.8416422287390029
1.81524926686217
1.7898338220918866
1.7653958944281525
1.7429130009775171
1.7233626588465298
1.7038123167155426
1.6842619745845553
1.6695992179863148
1.6559139784946235
1.6363636363636365
1.6148582600195502
1.5923753665689149
1.5718475073313782
1.5513196480938416
1.5327468230694037
1.5161290322580645
1.499511241446725
1.4809384164222874
1.4623655913978495
1.447702834799609
1.436950146627566
1.4242424242424243
1.409579667644184
1.3978494623655917
1.3890518084066472
1.3861192570869991
1.3919843597262953
1.4086021505376345
1.436950146627566
1.478005865102639
1.533724340175953
1.6050830889540566
1.6774193548387095
1.75366568914956
1.844574780058651
1.943304007820137
2.047898338220919
2.0439882697947214
1.981427174975562
1.9990224828934504
2.0518084066471163
2.121212121212121
2.1955034213098727
2.269794721407625
2.3284457478005867
2.376344086021505
2.4242424242424243
2.4672531769305963
2.505376344086021
2.535679374389052
2.560117302052786
2.5777126099706744
2.587487781036168
2.592375366568915
2.5943304007820136
2.591397849462365
2.5855327468230693
2.5747800586510263
2.558162267839687
2.5347018572825024
2.504398826979472
2.4682306940371457
2.426197458455523
2.380254154447703
2.3313782991202348
2.281524926686217
2.232649071358749
2.182795698924731
2.132942326490713
2.0879765395894427
2.048875855327468
2.0097751710654936
1.9716520039100685
1.935483870967742
1.9012707722385145
1.868035190615836
1.835777126099707
1.8035190615835777
1.772238514173998
1.7429130009775171
1.7145650048875856
1.6871945259042034
1.6627565982404693
1.640273704789834
1.616813294232649
1.5933528836754642
1.5708699902248289
1.547409579667644
1.5249266862170088
1.500488758553275
1.4750733137829912
1.4486803519061584
1.4213098729227762
1.393939393939394
1.3714565004887584
1.3519061583577712
1.3304007820136852
1.3088954056695992
1.2864125122189638
1.2639296187683284
1.2404692082111437
1.2179863147605083
1.1945259042033236
1.1710654936461389
1.1466275659824048
1.1221896383186705
1.099706744868035
1.0840664711632453
1.0694037145650048
1.0518084066471165
1.0361681329423265
1.021505376344086
1.0048875855327468
0.9872922776148584
0.9716520039100685
0.9550342130987292
0.9374389051808406
0.9208211143695014
0.9032258064516128
0.8905180840664711
0.8807429130009775
0.8670576735092864
0.8514173998044966
0.833822091886608
0.8181818181818182
0.8084066471163245
0.8054740957966764
0.8123167155425219
