ppg
2.873900293255132
2.8885630498533725
2.8914956011730206
2.8836754643206257
2.8670576735092865
2.8426197458455524
2.812316715542522
2.776148582600196
2.7331378299120237
2.6832844574780057
2.625610948191593
2.5610948191593352
2.4916911045943304
2.418377321603128
2.3421309872922778
2.2639296187683287
2.1847507331378297
2.10752688172043
2.0391006842619745
1.9775171065493649
1.9149560117302051
1.8543499511241448
1.7986314760508308
1.7487781036168133
1.7038123167155426
1.664711632453568
1.6314760508308896
1.603128054740958
1.5786901270772238
1.5591397849462365
1.544477028347996
1.5327468230694037
1.520039100684262
1.5073313782991202
1.4946236559139785
1.4819159335288368
1.469208211143695
1.455522971652004
1.4418377321603129
1.4291300097751711
1.4164222873900294
1.401759530791789
1.3861192570869991
1.3734115347018572
1.3626588465298142
1.3499511241446724
1.3372434017595307
1.324535679374389
1.310850439882698
1.2981427174975562
1.2854349951124144
1.2717497556207231
1.2570869990224829
1.2424242424242424
1.2287390029325511
1.2209188660801564
1.2150537634408602
1.2072336265884651
1.198435972629521
1.1896383186705768
1.1798631476050832
1.1700879765395895
1.1612903225806452
1.1534701857282503
1.144672531769306
1.1358748778103618
1.1280547409579669
1.121212121212121
1.1202346041055715
1.121212121212121
1.121212121212121
1.121212121212121
1.1094819159335287
1.0928641251221896
1.0850439882697946
1.0811339198435972
1.078201368523949
1.0733137829912025
1.067448680351906
1.0625610948191593
1.06158357771261
1.0664711632453567
1.0791788856304985
1.1085043988269794
1.1612903225806452
1.2473118279569892
1.3665689149560116
1.5151515151515151
1.6881720430107527
1.87683284457478
2.070381231671554
2.257086999022483
2.4086021505376345
2.533724340175953
2.656891495601173
2.7673509286412514
2.860215053763441
2.935483870967742
2.994134897360704
3.037145650048876
3.065493646138808
3.081133919843597
3.085043988269794
3.0791788856304985
3.064516129032258
3.040078201368524
3.0087976539589443
2.972629521016618
2.929618768328446
2.8797653958944283
2.8211143695014664
2.7546432062561097
2.6803519061583576
2.5992179863147604
2.512218963831867
2.420332355816227
2.324535679374389
2.2375366568914954
2.158357771260997
2.075268817204301
1.9931573802541545
1.9149560117302051
1.842619745845552
1.7771260997067448
1.7204301075268815
1.672531769305963
1.632453567937439
1.6001955034213098
1.573802541544477
1.5513196480938416
1.5347018572825024
1.5239491691104594
1.5131964809384164
1.501466275659824
1.4887585532746823
1.4750733137829912
1.4613880742913
1.447702834799609
1.4330400782013686
1.4173998044965788
1.4027370478983383
1.388074291300098
1.375366568914956
1.3636363636363635
1.348973607038123
1.332355816226784
1.3147605083088951
1.2971652003910068
1.278592375366569
1.260019550342131
1.241446725317693
1.2238514173998043
1.2072336265884651
1.1915933528836755
1.1759530791788857
1.166177908113392
1.1573802541544478
1.1456500488758554
1.1329423264907137
1.121212121212121
1.1094819159335287
1.099706744868035
1.0909090909090908
1.083088954056696
1.0762463343108504
1.0703812316715542
1.064516129032258
1.06158357771261
1.0606060606060606
1.0557184750733135
1.0498533724340176
1.0439882697947214
1.0371456500488758
1.0303030303030305
1.0254154447702837
1.0254154447702837
1.035190615835777
1.0596285434995112
1.1055718475073313
1.1788856304985338
1.2658846529814272
1.3695014662756595
1.5073313782991202
1.667644183773216
1.8387096774193548
2.0087976539589443
2.1681329423264906
2.310850439882698
2.4330400782013686
2.532746823069404
2.6129032258064515
2.6725317693059627
2.70772238514174
2.7253176930596283
2.7341153470185726
2.7331378299120237
2.7223851417399803
2.701857282502444
2.6725317693059627
2.636363636363636
2.593352883675464
2.5425219941348973
2.4838709677419355
2.418377321603128
2.347996089931574
2.2795698924731185
2.2111436950146626
2.132942326490713
2.0518084066471163
1.9687194525904204
1.8856304985337244
1.8054740957966764
1.7311827956989247
1.6627565982404693
1.6021505376344083
1.5493646138807429
1.5034213098729228
1.469208211143695
1.444770283479961
1.4242424242424243
1.409579667644184
1.3998044965786902
1.3949169110459434
1.393939393939394
1.3958944281524928
1.3978494623655917
1.3998044965786902
1.3998044965786902
1.3988269794721409
1.3958944281524928
1.3949169110459434
1.393939393939394
1.391006842619746
1.3851417399804498
1.3782991202346042
1.370478983382209
1.3616813294232648
1.3519061583577712
1.3411534701857282
1.3304007820136852
1.3176930596285434
1.3049853372434017
1.295210166177908
1.2883675464320623
1.2795698924731185
1.2697947214076246
1.2609970674486803
1.2531769305962854
1.2443792766373412
1.2355816226783969
1.2267839687194526
1.2189638318670577
1.2121212121212122
1.2043010752688172
1.198435972629521
1.195503421309873
1.1935483870967742
1.1915933528836755
1.187683284457478
1.1827956989247312
1.1788856304985338
1.1749755620723363
1.1720430107526882
1.1681329423264908
1.163245356793744
1.1573802541544478
1.1515151515151516
1.147605083088954
1.1456500488758554
1.142717497556207
1.1397849462365592
1.1368523949169111
1.1329423264907137
1.1300097751710656
1.1251221896383188
1.1173020527859236
1.10752688172043
1.0987292277614855
1.093841642228739
1.1016617790811338
1.1221896383186705
1.1612903225806452
1.2336265884652982
1.3401759530791788
1.4819159335288368
1.653958944281525
1.844574780058651
2.043010752688172
2.2385141739980448
2.421309872922776
2.58455522971652
2.7253176930596283
2.8269794721407626
2.902248289345064
2.972629521016618
3.032258064516129
3.078201368523949
3.1094819159335287
3.1280547409579667
3.134897360703812
3.1309872922776147
3.118279569892473
3.0987292277614857
3.070381231671554
3.035190615835777
2.995112414467253
2.949169110459433
2.897360703812317
2.8377321603128056
2.7722385141739982
2.6989247311827955
2.618768328445748
2.530791788856305
2.436950146627566
2.340175953079179
2.243401759530792
2.1495601173020527
2.0684261974584555
1.997067448680352
1.9257086999022484
1.858260019550342
1.796676441837732
1.7409579667644184
1.6920821114369502
1.6500488758553276
1.6148582600195502
1.5835777126099706
1.5571847507331378
1.52297165200391
1.4897360703812317
1.469208211143695
1.4516129032258065
1.436950146627566
1.4222873900293256
1.4086021505376345
1.3958944281524928
1.383186705767351
1.3724340175953078
1.3616813294232648
1.3499511241446724
1.3362658846529814
1.3206256109481915
1.3079178885630498
1.2971652003910068
1.284457478005865
1.2717497556207231
1.2580645161290325
1.2453567937438903
1.2326490713587488
1.2189638318670577
1.206256109481916
1.1935483870967742
1.1808406647116323
1.1700879765395895
1.163245356793744
1.1583577712609971
1.1505376344086022
1.1407624633431086
1.1300097751710656
1.1202346041055715
1.110459433040078
1.1016617790811338
1.0957966764418376
1.0909090909090908
1.0869990224828934
1.0840664711632453
1.0801564027370478
1.078201368523949
1.0772238514173995
1.072336265884653
1.067448680351906
1.0635386119257086
1.0596285434995112
1.0576735092864125
1.056695992179863
1.056695992179863
1.056695992179863
1.056695992179863
1.0557184750733135
1.056695992179863
1.0596285434995112
1.0654936461388074
1.0821114369501466
1.1173020527859236
1.1779081133919844
1.267839687194526
1.3870967741935485
1.5327468230694037
1.6979472140762464
1.871945259042033
2.0439882697947214
2.2052785923753664
2.332355816226784
2.4330400782013686
2.530791788856305
2.616813294232649
2.686217008797654
2.739980449657869
2.7781036168132944
2.801564027370479
2.811339198435973
2.8084066471163247
2.795698924731183
2.773216031280548
2.7438905180840663
2.708699902248289
2.668621700879765
2.622678396871945
2.5698924731182795
2.5102639296187683
2.4457478005865103
2.376344086021505
2.302052785923754
2.2218963831867056
2.139784946236559
2.056695992179863
1.975562072336266
1.9042033235581624
1.8406647116324533
1.7732160312805474
1.7086999022482894
1.651026392961877
1.5992179863147604
1.5532746823069403
1.5141739980449658
1.4809384164222874
1.452590420332356
1.4301075268817205
1.4115347018572826
1.3978494623655917
1.388074291300098
1.380254154447703
1.3743890518084063
1.3695014662756595
1.3655913978494625
1.3616813294232648
1.3577712609970674
1.3519061583577712
1.3440860215053765
1.335288367546432
1.324535679374389
1.3118279569892473
1.3010752688172045
1.2903225806451613
1.2766373411534702
1.2619745845552297
1.24633431085044
1.2297165200391007
1.2111436950146628
1.1925708699902249
1.173998044965787
1.1564027370478984
1.1378299120234605
1.1173020527859236
1.1016617790811338
1.088954056695992
1.0742913000977516
1.0596285434995112
1.0439882697947214
1.0283479960899315
1.013685239491691
0.9990224828934506
0.9853372434017597
0.9736070381231672
0.9648093841642228
0.9589442815249268
0.95405669599218
0.95405669599218
0.9550342130987292
0.95405669599218
0.9530791788856304
0.9530791788856304
0.9550342130987292
0.956989247311828
0.9589442815249268
0.9608993157380256
0.9638318670576737
0.9657869012707724
0.9667644183773216
0.9696969696969696
0.9726295210166178
0.9736070381231672
0.9745845552297164
0.9804496578690128
0.9960899315738024
1.029325513196481
1.086021505376344
1.1710654936461389
1.284457478005865
1.4222873900293256
1.5786901270772238
1.7429130009775171
1.8866080156402736
2.013685239491691
2.144672531769306
2.267839687194526
2.375366568914956
2.464320625610948
2.5347018572825024
2.587487781036168
1.3098729227761483
1.3998044965786902
1.521016617790811
1.6695992179863148
1.836754643206256
2.013685239491691
2.166177908113392
2.2991202346041058
2.4389051808406648
2.5698924731182795
2.6832844574780057
2.776148582600196
2.8484848484848486
2.902248289345064
2.9393939393939394
2.962854349951124
2.9745845552297165
2.9765395894428157
2.970674486803519
2.956011730205278
2.936461388074292
2.9159335288367547
2.8914956011730206
2.860215053763441
2.823069403714565
2.779081133919844
2.7282502443792764
2.6715542521994133
2.6080156402737047
2.5405669599217986
2.469208211143695
2.4027370478983383
2.3362658846529816
2.26197458455523
2.182795698924731
2.102639296187683
2.024437927663734
1.949169110459433
1.87683284457478
1.8084066471163245
1.7468230694037146
1.694037145650049
1.6480938416422288
1.608993157380254
1.5806451612903225
1.5591397849462365
1.5405669599217986
1.5249266862170088
1.5131964809384164
1.5034213098729228
1.495601173020528
1.487781036168133
1.479960899315738
1.4721407624633431
1.4613880742913
1.4506353861192571
1.4418377321603129
1.435972629521017
1.4271749755620724
1.4173998044965788
1.404692082111437
1.391006842619746
1.3773216031280548
1.3626588465298142
1.3470185728250244
1.3304007820136852
1.3157380254154447
1.3020527859237536
1.289345063538612
1.2795698924731185
1.2717497556207231
1.2619745845552297
1.2502443792766371
1.238514173998045
1.2267839687194526
1.2150537634408602
1.2023460410557183
1.1915933528836755
1.181818181818182
1.1730205278592376
1.164222873900293
1.1593352883675463
1.155425219941349
1.1495601173020529
1.142717497556207
1.1348973607038124
1.1270772238514175
1.1192570869990224
1.110459433040078
1.1026392961876832
1.096774193548387
1.093841642228739
1.0918866080156402
1.0909090909090908
1.0928641251221896
1.093841642228739
1.0918866080156402
1.088954056695992
1.083088954056696
1.0772238514173995
1.072336265884653
1.0694037145650048
1.0654936461388074
1.0606060606060606
1.0557184750733135
1.0518084066471165
1.050830889540567
1.050830889540567
1.050830889540567
1.0557184750733135
1.0733137829912025
1.1114369501466277
1.176930596285435
1.273704789833822
1.3998044965786902
1.5532746823069403
1.7233626588465298
1.900293255131965
2.0518084066471163
2.1837732160312804
2.318670576735093
2.439882697947214
2.5434995112414467
2.627565982404692
2.69208211143695
2.739980449657869
2.773216031280548
2.793743890518084
2.801564027370479
2.80058651026393
2.790811339198436
2.771260997067449
2.7438905180840663
2.7126099706744866
2.67644183773216
2.633431085043988
2.58455522971652
2.5288367546432062
2.4672531769305963
2.40078201368524
2.329423264907136
2.2521994134897363
2.1730205278592374
2.1006842619745845
2.03128054740958
1.9521016617790807
1.869012707722385
1.7878787878787878
1.7096774193548387
1.6373411534701858
1.5718475073313782
1.5141739980449658
1.4643206256109482
1.423264907135875
1.3890518084066472
1.3616813294232648
1.343108504398827
1.3313782991202343
1.3206256109481915
1.3128054740957966
1.3088954056695992
1.3079178885630498
1.3069403714565004
1.3069403714565004
1.3069403714565004
1.305962854349951
1.303030303030303
1.300097751710655
1.2981427174975562
1.2961876832844574
1.2913000977517106
1.284457478005865
1.2756598240469208
1.2668621700879763
1.2570869990224829
1.24633431085044
1.2346041055718475
1.2228739002932552
1.2101661779081134
1.198435972629521
1.1857282502443791
1.1779081133919844
1.1730205278592376
1.1652003910068427
1.1564027370478984
1.1466275659824048
1.1358748778103618
1.1241446725317692
1.1124144672531768
1.1016617790811338
1.0918866080156402
1.083088954056696
1.0742913000977516
1.0694037145650048
1.0654936461388074
1.0606060606060606
1.0557184750733135
1.0518084066471165
1.0488758553274682
1.0478983382209188
1.0498533724340176
1.0518084066471165
1.0527859237536656
1.0527859237536656
1.0420332355816226
1.0254154447702837
1.0195503421309873
1.018572825024438
1.0195503421309873
1.0205278592375366
1.0234604105571847
1.0283479960899315
1.0332355816226784
1.040078201368524
1.0469208211143697
1.050830889540567
1.0527859237536656
1.053763440860215
1.056695992179863
1.0606060606060606
1.064516129032258
1.0762463343108504
1.1026392961876832
1.1515151515151516
1.2297165200391007
1.3401759530791788
1.479960899315738
1.643206256109482
1.8201368523949168
1.9990224828934504
2.1730205278592374
2.314760508308896
2.4301075268817205
2.5425219941348973
2.641251221896383
2.7233626588465296
2.787878787878788
2.834799608993157
2.865102639296188
2.8797653958944283
2.8807429130009776
2.8690127077223853
2.84652981427175
2.8181818181818183
2.782991202346041
2.740957966764418
2.6940371456500487
2.643206256109482
2.587487781036168
2.5288367546432062
2.4652981427174976
2.3978494623655915
2.326490713587488
2.251221896383187
2.172043010752688
2.09188660801564
2.0195503421309877
1.9550342130987293
1.889540566959922
1.826001955034213
1.76930596285435
1.7194525904203324
1.6774193548387095
1.6412512218963833
1.611925708699902
1.587487781036168
1.5669599217986314
1.5493646138807429
1.5376344086021505
1.530791788856305
1.525904203323558
1.521016617790811
1.5161290322580645
1.512218963831867
1.5073313782991202
1.500488758553275
1.4916911045943304
1.4809384164222874
1.469208211143695
1.456500488758553
1.4437927663734116
1.4320625610948192
1.4213098729227762
1.4086021505376345
1.3949169110459434
1.3812316715542523
1.367546432062561
1.3519061583577712
1.3362658846529814
1.3206256109481915
1.305962854349951
1.2913000977517106
1.2776148582600195
1.267839687194526
1.2590420332355816
1.2482893450635386
1.2365591397849462
1.224828934506354
1.2121212121212122
1.1994134897360704
1.1867057673509287
1.1759530791788857
1.1652003910068427
1.1544477028347997
1.1456500488758554
1.1397849462365592
1.1378299120234605
1.1378299120234605
1.1358748778103618
1.133919843597263
1.130987292277615
1.1280547409579669
1.1241446725317692
1.1202346041055715
1.115347018572825
1.110459433040078
1.1085043988269794
1.10752688172043
1.1085043988269794
1.1114369501466277
1.1133919843597262
1.1143695014662756
1.1143695014662756
1.1143695014662756
1.1124144672531768
1.1085043988269794
1.1055718475073313
1.10752688172043
1.1221896383186705
1.1573802541544478
1.206256109481916
1.2766373411534702
1.3841642228739004
1.5239491691104594
1.689149560117302
1.868035190615836
2.050830889540567
2.2277614858260018
2.389051808406647
2.5288367546432062
2.649071358748778
2.748778103616813
2.8260019550342133
2.874877810361681
2.906158357771261
2.9315738025415445
2.948191593352884
2.9550342130987293
2.9550342130987293
2.949169110459433
2.935483870967742
2.913978494623656
2.8836754643206257
2.8475073313782997
2.806451612903226
2.763440860215054
2.716520039100684
2.662756598240469
2.603128054740958
2.539589442815249
2.472140762463343
2.39980449657869
2.3225806451612905
2.241446725317693
2.157380254154448
2.072336265884653
1.989247311827957
1.9090909090909087
1.8406647116324533
1.780058651026393
1.7194525904203324
1.6637341153470186
1.6129032258064515
1.5698924731182795
1.5356793743890518
1.5063538611925709
1.4838709677419355
1.466275659824047
1.4506353861192571
1.436950146627566
1.426197458455523
1.4164222873900294
1.4066471163245358
1.396871945259042
1.388074291300098
1.3792766373411536
1.3695014662756595
1.3587487781036167
1.3470185728250244
1.3333333333333333
1.3186705767350928
1.303030303030303
1.2873900293255132
1.2756598240469208
1.262952101661779
1.24633431085044
1.227761485826002
1.2082111436950147
1.1896383186705768
1.1720430107526882
1.1534701857282503
1.1358748778103618
1.118279569892473
1.1016617790811338
1.0850439882697946
1.0733137829912025
1.0654936461388074
1.053763440860215
1.040078201368524
1.0254154447702837
1.0117302052785924
0.9980449657869012
0.9833822091886608
0.9696969696969696
0.956989247311828
0.9452590420332356
0.9335288367546432
0.9237536656891496
0.9188660801564028
0.9159335288367546
0.9100684261974584
0.9042033235581622
0.8973607038123167
0.8914956011730205
0.8866080156402737
0.8817204301075269
0.8768328445747801
0.8729227761485826
0.8699902248289345
0.8680351906158358
0.8699902248289345
0.8748778103616813
0.8758553274682307
0.873900293255132
0.8719452590420332
0.8719452590420332
0.8778103616813294
0.8944281524926686
0.9296187683284456
0.9912023460410556
1.0850439882697946
1.2111436950146628
1.3636363636363635
1.509286412512219
1.6520039100684265
1.812316715542522
1.9736070381231672
2.12316715542522
2.254154447702835
2.367546432062561
2.458455522971652
2.5268817204301075
2.576735092864125
2.610948191593353
2.63049853372434
2.634408602150537
2.625610948191593
2.608993157380254
2.58455522971652
2.5532746823069403
2.530791788856305
2.5112414467253177
2.4750733137829912
2.429130009775171
2.377321603128055
2.320625610948192
2.259042033235582
2.1925708699902247
2.1300097751710654
2.070381231671554
2.0019550342130987
1.927663734115347
1.8523949169110456
1.7790811339198436
1.7086999022482894
1.6422287390029326
1.5826001955034212
1.5327468230694037
1.490713587487781
1.456500488758553
1.4320625610948192
1.414467253176931
1.3998044965786902
1.3900293255131966
1.3851417399804498
1.3841642228739004
1.3870967741935485
1.3919843597262953
1.3988269794721409
1.4066471163245358
1.414467253176931
1.4203323558162269
1.423264907135875
1.4252199413489737
1.426197458455523
1.4242424242424243
1.4193548387096775
1.412512218963832
1.404692082111437
1.396871945259042
1.3900293255131966
1.3851417399804498
1.3782991202346042
1.3685239491691104
1.3577712609970674
1.3499511241446724
1.343108504398827
1.3333333333333333
1.3225806451612905
1.310850439882698
1.2991202346041055
1.2873900293255132
1.2766373411534702
1.2668621700879763
1.2580645161290325
1.249266862170088
1.241446725317693
1.2336265884652982
1.2287390029325511
1.224828934506354
1.2189638318670577
1.2121212121212122
1.2043010752688172
1.1964809384164223
1.1886608015640274
1.1808406647116323
1.1730205278592376
1.1652003910068427
1.1583577712609971
1.1534701857282503
1.1534701857282503
1.155425219941349
1.1564027370478984
1.1564027370478984
1.1573802541544478
1.1593352883675463
1.160312805474096
1.160312805474096
1.160312805474096
1.1612903225806452
1.166177908113392
1.1788856304985338
1.2043010752688172
1.238514173998045
1.2903225806451613
1.3714565004887584
1.4848484848484849
1.6265884652981428
1.7888563049853372
1.963831867057673
2.1407624633431084
2.3098729227761488
2.464320625610948
2.5972629521016617
2.708699902248289
2.788856304985337
2.8455522971652005
2.8963831867057674
2.935483870967742
2.963831867057673
2.981427174975562
2.989247311827957
2.9872922776148583
2.9765395894428157
2.956989247311828
2.929618768328446
2.897360703812317
2.8611925708699903
2.820136852394917
2.773216031280548
2.720430107526881
2.662756598240469
2.60019550342131
2.532746823069404
2.4613880742913
2.386119257086999
2.3088954056695994
2.23069403714565
2.15347018572825
2.078201368523949
2.0127077223851417
1.9560117302052784
1.8983382209188664
1.8406647116324533
1.7888563049853372
1.7429130009775171
1.7018572825024438
1.6666666666666667
1.6373411534701858
1.6129032258064515
1.5913978494623655
1.573802541544477
1.5610948191593352
1.5513196480938416
1.541544477028348
1.5327468230694037
1.5239491691104594
1.5151515151515151
1.5063538611925709
1.498533724340176
1.4897360703812317
1.4809384164222874
1.4701857282502444
1.457478005865103
1.4437927663734116
1.4320625610948192
1.4193548387096775
1.404692082111437
1.388074291300098
1.370478983382209
1.35386119257087
1.33822091886608
1.324535679374389
1.310850439882698
1.2971652003910068
1.2834799608993157
1.270772238514174
1.2619745845552297
1.1300097751710656
1.1280547409579669
1.1280547409579669
1.1378299120234605
1.166177908113392
1.2189638318670577
1.300097751710655
1.412512218963832
1.5493646138807429
1.704789833822092
1.870967741935484
2.0361681329423265
2.1739980449657867
2.289345063538612
2.403714565004888
2.505376344086021
2.587487781036168
2.6510263929618767
2.696969696969697
2.727272727272727
2.742913000977517
2.747800586510264
2.7438905180840663
2.732160312805474
2.713587487781036
2.689149560117302
2.6608015640273703
2.627565982404692
2.587487781036168
2.5425219941348973
2.490713587487781
2.4330400782013686
2.3704789833822093
2.303030303030303
2.231671554252199
2.156402737047898
2.0772238514174
2.005865102639296
1.9364613880742916
1.86119257086999
1.7839687194525904
1.7096774193548387
1.6412512218963833
1.5786901270772238
1.52297165200391
1.4750733137829912
1.435972629521017
1.4056695992179864
1.3822091886608017
1.367546432062561
1.359726295210166
1.35386119257087
1.348973607038123
1.3450635386119256
1.343108504398827
1.3421309872922775
1.3421309872922775
1.3411534701857282
1.33822091886608
1.335288367546432
1.3313782991202343
1.327468230694037
1.3255131964809383
1.3235581622678396
1.3186705767350928
1.3118279569892473
1.3040078201368523
1.2932551319648091
1.2825024437927663
1.2717497556207231
1.262952101661779
1.2541544477028348
1.2453567937438903
1.2072336265884651
1.1583577712609971
1.1319648093841643
1.1133919843597262
1.0987292277614855
1.086021505376344
1.075268817204301
1.0654936461388074
1.056695992179863
1.0478983382209188
1.040078201368524
1.0332355816226784
1.0263929618768328
1.0205278592375366
1.018572825024438
1.018572825024438
1.0166177908113392
1.0146627565982405
1.013685239491691
1.0127077223851415
1.0117302052785924
1.0117302052785924
1.0117302052785924
1.0127077223851415
1.0127077223851415
1.0127077223851415
1.0146627565982405
1.018572825024438
1.0205278592375366
1.021505376344086
1.0195503421309873
1.0166177908113392
1.0146627565982405
1.0166177908113392
1.029325513196481
1.06158357771261
1.1192570869990224
1.206256109481916
1.324535679374389
1.4486803519061584
1.581622678396872
1.7458455522971652
1.9237536656891496
2.101661779081134
2.2688172043010755
2.418377321603128
2.548387096774193
2.654936461388074
2.73802541544477
2.7996089931573804
2.841642228739003
2.8611925708699903
2.866080156402737
2.865102639296188
2.857282502443793
2.841642228739003
2.817204301075269
2.7859237536656893
2.7497556207233624
