ppg
2.962854349951124
2.997067448680352
3.016617790811339
3.026392961876833
3.035190615835777
3.0410557184750733
3.040078201368524
3.0303030303030303
3.010752688172043
2.978494623655914
2.9335288367546437
2.875855327468231
2.8084066471163247
2.732160312805474
2.6510263929618767
2.575757575757576
2.504398826979472
2.432062561094819
2.3626588465298144
2.2991202346041058
2.242424242424242
2.1925708699902247
2.1485826001955037
2.10850439882698
2.071358748778104
2.0361681329423265
2.0009775171065494
1.9696969696969695
1.9393939393939397
1.905180840664712
1.8670576735092863
1.827956989247312
1.7869012707722385
1.7438905180840665
1.7008797653958945
1.6598240469208212
1.619745845552297
1.5806451612903225
1.543499511241447
1.5083088954056696
1.479960899315738
1.455522971652004
1.4291300097751711
1.4027370478983383
1.3782991202346042
1.3558162267839686
1.3343108504398826
1.313782991202346
1.2942326490713587
1.2756598240469208
1.2570869990224829
1.2394916911045943
1.2267839687194526
1.2160312805474096
1.203323558162268
1.1906158357771262
1.1779081133919844
1.1652003910068427
1.1534701857282503
1.141739980449658
1.1300097751710656
1.1192570869990224
1.1094819159335287
1.1006842619745845
1.0918866080156402
1.0869990224828934
1.0840664711632453
1.078201368523949
1.0703812316715542
1.06158357771261
1.0527859237536656
1.04594330400782
1.0410557184750733
1.0371456500488758
1.0342130987292275
1.0303030303030305
1.0273704789833822
1.0273704789833822
1.029325513196481
1.029325513196481
1.0283479960899315
1.0273704789833822
1.0254154447702837
1.0234604105571847
1.021505376344086
1.0195503421309873
1.018572825024438
1.0175953079178883
1.0166177908113392
1.0166177908113392
1.0195503421309873
1.0254154447702837
1.0312805474095796
1.043010752688172
1.064516129032258
1.1016617790811338
1.160312805474096
1.24633431085044
1.3587487781036167
1.4975562072336266
1.656891495601173
1.83088954056696
1.9853372434017595
2.1270772238514173
2.278592375366569
2.426197458455523
2.558162267839687
2.6715542521994133
2.764418377321604
2.838709677419355
2.897360703812317
2.943304007820137
2.9804496578690127
3.0097751710654936
3.03128054740958
3.0391006842619745
3.038123167155425
3.034213098729228
3.022482893450636
3.0009775171065494
2.9687194525904204
2.9237536656891496
2.868035190615836
2.80058651026393
2.724340175953079
2.6422287390029324
2.5591397849462365
2.4838709677419355
2.4164222873900294
2.3499511241446727
2.2883675464320627
2.232649071358749
2.1837732160312804
2.139784946236559
2.099706744868035
2.06158357771261
2.0254154447702835
1.9902248289345064
1.9550342130987293
1.9188660801564028
1.884652981427175
1.8514173998044965
1.8132942326490715
1.772238514173998
1.7311827956989247
1.6901270772238517
1.6441837732160314
1.5962854349951123
1.555229716520039
1.5180840664711632
1.4838709677419355
1.4516129032258065
1.426197458455523
1.404692082111437
1.3822091886608017
1.359726295210166
1.3391984359726294
1.3186705767350928
1.300097751710655
1.2834799608993157
1.267839687194526
1.2531769305962854
1.238514173998045
1.224828934506354
1.2101661779081134
1.1994134897360704
1.1906158357771262
1.1798631476050832
1.1681329423264908
1.1564027370478984
1.144672531769306
1.133919843597263
1.1241446725317692
1.1143695014662756
1.104594330400782
1.0957966764418376
1.0879765395894427
1.0840664711632453
1.0821114369501466
1.0772238514173995
1.072336265884653
1.0664711632453567
1.0606060606060606
1.0557184750733135
1.050830889540567
1.0469208211143697
1.043010752688172
1.0381231671554252
1.0312805474095796
1.0254154447702837
1.0234604105571847
1.0234604105571847
1.0224828934506354
1.021505376344086
1.021505376344086
1.021505376344086
1.021505376344086
1.021505376344086
1.021505376344086
1.021505376344086
1.021505376344086
1.021505376344086
1.024437927663734
1.0332355816226784
1.0478983382209188
1.0733137829912025
1.1163245356793745
1.181818181818182
1.2727272727272727
1.3890518084066472
1.5288367546432062
1.6852394916911049
1.8523949169110456
2.0205278592375366
2.161290322580645
2.281524926686217
2.4027370478983383
2.5131964809384164
2.6070381231671558
2.6832844574780057
2.744868035190616
2.792766373411535
2.83088954056696
2.8582600195503423
2.877810361681329
2.8885630498533725
2.8914956011730206
2.8826979472140764
2.8641251221896384
2.838709677419355
2.803519061583578
2.7565982404692084
2.697947214076246
2.6295210166177907
2.5542521994134897
2.4760508308895406
2.398826979472141
2.324535679374389
2.257086999022483
2.201368523949169
2.1544477028347995
2.1114369501466275
2.0733137829912023
2.040078201368524
2.0087976539589443
1.978494623655914
1.948191593352884
1.916911045943304
1.8826979472140764
1.847507331378299
1.8113391984359728
1.7732160312805474
1.7390029325513197
1.7067448680351909
1.6715542521994136
1.6344086021505375
1.598240469208211
1.5620723362658846
1.5278592375366569
1.495601173020528
1.4652981427174976
1.435972629521017
1.4086021505376345
1.383186705767351
1.3636363636363635
1.3470185728250244
1.3284457478005864
1.310850439882698
1.2932551319648091
1.2766373411534702
1.2609970674486803
1.2453567937438903
1.2297165200391007
1.2160312805474096
1.203323558162268
1.1906158357771262
1.1788856304985338
1.1710654936461389
1.1652003910068427
1.1564027370478984
1.147605083088954
1.1378299120234605
1.1270772238514175
1.1163245356793745
1.1065493646138806
1.096774193548387
1.0879765395894427
1.0801564027370478
1.072336265884653
1.067448680351906
1.064516129032258
1.0596285434995112
1.0527859237536656
1.04594330400782
1.040078201368524
1.035190615835777
1.0303030303030305
1.0254154447702837
1.021505376344086
1.0175953079178883
1.013685239491691
1.010752688172043
1.010752688172043
1.0127077223851415
1.0127077223851415
1.0127077223851415
1.0127077223851415
1.013685239491691
1.0156402737047898
1.0175953079178883
1.0195503421309873
1.0224828934506354
1.029325513196481
1.0449657869012707
1.0694037145650048
1.1065493646138806
1.166177908113392
1.2512218963831867
1.3636363636363635
1.501466275659824
1.6598240469208212
1.8318670576735088
2.007820136852395
2.1788856304985336
2.3382209188660803
2.479960899315738
2.6021505376344085
2.69208211143695
2.758553274682307
2.8211143695014664
2.874877810361681
2.918866080156403
2.95405669599218
2.9804496578690127
3.0
3.013685239491691
3.0195503421309877
3.0175953079178885
3.005865102639296
2.9824046920821115
2.949169110459433
2.905180840664712
2.849462365591398
2.782013685239492
2.705767350928641
2.624633431085044
2.541544477028348
2.4613880742913
2.3851417399804498
2.314760508308896
2.2531769305962857
2.198435972629521
2.15347018572825
2.115347018572825
2.078201368523949
2.043010752688172
2.0087976539589443
1.9736070381231672
1.9374389051808407
1.900293255131965
1.8621700879765395
1.822091886608016
1.780058651026393
1.7390029325513197
1.7038123167155426
1.6715542521994136
1.6363636363636365
1.6011730205278591
1.5650048875855327
1.5298142717497556
1.4965786901270772
1.4633431085043989
1.4320625610948192
1.4037145650048877
1.3763440860215057
1.3509286412512218
1.3284457478005864
1.3118279569892473
1.2971652003910068
1.2805474095796676
1.2639296187683284
1.24633431085044
1.2287390029325511
1.2130987292277615
1.1974584555229717
1.181818181818182
1.1671554252199414
1.1534701857282503
1.1397849462365592
1.1300097751710656
1.1231671554252198
1.1143695014662756
1.1036168132942326
1.0928641251221896
1.083088954056696
1.0742913000977516
1.0664711632453567
1.0586510263929618
1.050830889540567
1.043010752688172
1.0342130987292275
1.0263929618768328
1.021505376344086
1.0175953079178883
1.013685239491691
1.0097751710654936
1.0048875855327468
0.9990224828934506
0.9941348973607038
0.9902248289345064
0.9863147605083088
0.9833822091886608
0.9804496578690128
0.9794721407624634
0.9824046920821116
0.9872922776148584
0.9902248289345064
0.9931573802541545
0.9951124144672532
0.997067448680352
0.9980449657869012
0.9980449657869012
0.9990224828934506
1.0009775171065494
1.007820136852395
1.0224828934506354
1.050830889540567
1.0879765395894427
1.1407624633431086
1.219941348973607
1.3264907135874875
1.456500488758553
1.607038123167155
1.7712609970674489
1.9403714565004888
2.1055718475073317
2.260019550342131
2.3978494623655915
2.515151515151515
2.601173020527859
2.664711632453568
2.7233626588465296
2.773216031280548
2.8132942326490715
2.84652981427175
2.870967741935484
2.8885630498533725
2.898338220918866
2.900293255131965
2.89247311827957
2.874877810361681
2.84652981427175
2.809384164222874
2.7614858260019552
2.701857282502444
2.633431085043988
2.558162267839687
2.479960899315738
2.401759530791789
2.3284457478005867
2.260997067448681
2.201368523949169
2.1495601173020527
2.1055718475073317
2.069403714565005
2.038123167155425
2.007820136852395
1.9775171065493649
1.946236559139785
1.913978494623656
1.8797653958944285
1.8435972629521016
1.8054740957966764
1.7663734115347018
1.726295210166178
1.6852394916911049
1.6490713587487782
1.616813294232649
1.5826001955034212
1.5483870967741935
1.5141739980449658
1.4819159335288368
1.452590420332356
1.4242424242424243
1.396871945259042
1.3714565004887584
1.3479960899315735
1.3264907135874875
1.305962854349951
1.2903225806451613
1.278592375366569
1.2649071358748778
1.2512218963831867
1.2375366568914956
1.2238514173998043
1.2111436950146628
1.198435972629521
1.1867057673509287
1.1749755620723363
1.163245356793744
1.1515151515151516
1.1436950146627567
1.1378299120234605
1.1300097751710656
1.121212121212121
1.1124144672531768
1.1026392961876832
1.0928641251221896
1.0840664711632453
1.075268817204301
1.067448680351906
1.0596285434995112
1.050830889540567
1.0410557184750733
1.0342130987292275
1.029325513196481
1.021505376344086
1.013685239491691
1.0068426197458455
1.0009775171065494
0.9980449657869012
0.9980449657869012
0.9990224828934506
1.0019550342130987
1.0068426197458455
1.0117302052785924
1.0175953079178883
1.024437927663734
1.0303030303030305
1.035190615835777
1.0391006842619743
1.043010752688172
1.0469208211143697
1.0518084066471165
1.0586510263929618
1.0694037145650048
1.088954056695992
1.121212121212121
1.1700879765395895
1.2287390029325511
1.3020527859237536
1.404692082111437
1.5317693059628543
1.6774193548387095
1.833822091886608
1.992179863147605
2.145650048875855
2.2873900293255134
2.412512218963832
2.5180840664711632
2.6041055718475072
2.6637341153470184
2.7038123167155423
2.739980449657869
2.771260997067449
2.7966764418377323
2.814271749755621
2.8240469208211145
2.8269794721407626
2.8211143695014664
2.8054740957966766
2.779081133919844
2.7419354838709675
2.6940371456500487
2.6422287390029324
2.5855327468230693
2.520039100684262
2.449657869012708
2.378299120234604
2.3088954056695994
2.2453567937438903
2.187683284457478
2.136852394916911
2.093841642228739
2.056695992179863
2.022482893450636
1.9931573802541545
1.9657869012707725
1.935483870967742
1.902248289345064
1.8670576735092863
1.8299120234604105
1.790811339198436
1.750733137829912
1.710654936461388
1.6705767350928642
1.6314760508308896
1.5933528836754642
1.5571847507331378
1.5268817204301075
1.499511241446725
1.4711632453567938
1.4437927663734116
1.4173998044965788
1.393939393939394
1.3734115347018572
1.3548387096774193
1.33822091886608
1.3225806451612905
1.3088954056695992
1.2961876832844574
1.2873900293255132
1.2795698924731185
1.2697947214076246
1.2580645161290325
1.2453567937438903
1.2316715542521994
1.2179863147605083
1.2043010752688172
1.1906158357771262
1.1779081133919844
1.164222873900293
1.1505376344086022
1.1378299120234605
1.1290322580645162
1.1221896383186705
1.1133919843597262
1.1036168132942326
1.093841642228739
1.0840664711632453
1.075268817204301
1.067448680351906
1.0596285434995112
1.0527859237536656
1.0469208211143697
1.0420332355816226
1.0410557184750733
1.0410557184750733
1.0391006842619743
1.0361681329423265
1.0332355816226784
1.0303030303030305
1.029325513196481
1.0283479960899315
1.0273704789833822
1.0263929618768328
1.0263929618768328
1.0263929618768328
1.0254154447702837
1.0273704789833822
1.0303030303030305
1.0312805474095796
1.032258064516129
1.0361681329423265
1.0478983382209188
1.0713587487781036
1.1124144672531768
1.1749755620723363
1.2639296187683284
1.3792766373411536
1.5180840664711632
1.6529814271749756
1.7878787878787878
1.945259042033236
2.10850439882698
2.264907135874878
2.4086021505376345
2.533724340175953
2.66177908113392
2.782013685239492
2.8699902248289346
2.936461388074292
2.9872922776148583
3.018572825024438
3.037145650048876
3.056695992179863
3.074291300097752
3.085043988269794
3.0879765395894427
3.081133919843597
3.0625610948191597
3.032258064516129
2.989247311827957
2.9345063538611926
2.8690127077223853
2.793743890518084
2.720430107526881
2.6480938416422286
2.570869990224829
2.49266862170088
2.4164222873900294
2.346041055718475
2.2825024437927666
2.2267839687194524
2.177908113391984
2.134897360703812
2.0948191593352883
2.0557184750733137
2.021505376344086
1.988269794721408
1.951124144672532
1.911045943304008
1.8699902248289344
1.8269794721407624
1.7849462365591398
1.7438905180840665
1.7038123167155426
1.6637341153470186
1.624633431085044
1.587487781036168
1.552297165200391
1.521994134897361
1.495601173020528
1.466275659824047
1.4379276637341154
1.4105571847507332
1.3841642228739004
1.3587487781036167
1.3343108504398826
1.3098729227761483
1.2864125122189638
1.2649071358748778
1.2453567937438903
1.2316715542521994
1.2209188660801564
1.2072336265884651
1.1925708699902249
1.1779081133919844
1.163245356793744
1.1485826001955035
1.1348973607038124
1.121212121212121
1.1094819159335287
1.0987292277614855
1.088954056695992
1.0791788856304985
1.0733137829912025
1.0703812316715542
1.064516129032258
1.0576735092864125
1.050830889540567
1.0439882697947214
1.0371456500488758
1.029325513196481
1.0224828934506354
1.0156402737047898
1.010752688172043
1.0068426197458455
1.0068426197458455
1.0087976539589445
1.0087976539589445
1.007820136852395
1.0048875855327468
1.0019550342130987
0.9980449657869012
0.9951124144672532
0.9921798631476052
0.9902248289345064
0.9882697947214076
0.9872922776148584
0.9872922776148584
0.989247311827957
0.9931573802541545
0.997067448680352
1.0048875855327468
1.021505376344086
1.0518084066471165
1.1016617790811338
1.1759530791788857
1.2766373411534702
1.4027370478983383
1.5503421309872922
1.715542521994135
1.866080156402737
2.005865102639296
2.158357771260997
2.3088954056695994
2.44672531769306
2.5669599217986314
2.6666666666666665
2.7468230694037143
2.8103616813294234
2.8582600195503423
2.8944281524926687
2.920821114369501
2.9393939393939394
2.945259042033236
2.941348973607038
2.9335288367546437
2.918866080156403
2.8944281524926687
2.859237536656892
2.812316715542522
2.7536656891495603
2.684261974584555
2.6080156402737047
2.527859237536657
2.447702834799609
2.377321603128055
2.315738025415445
2.2551319648093844
2.20039100684262
2.1524926686217007
2.1114369501466275
2.0762463343108504
2.0439882697947214
2.0127077223851417
1.9804496578690127
1.946236559139785
1.911045943304008
1.873900293255132
1.839687194525904
1.8064516129032255
1.7683284457478006
1.729227761485826
1.6901270772238517
1.6520039100684265
1.6148582600195502
1.5786901270772238
1.543499511241447
1.509286412512219
1.4760508308895406
1.4457478005865103
1.4222873900293256
1.401759530791789
1.380254154447703
1.3587487781036167
1.33822091886608
1.3186705767350928
1.3010752688172045
1.2854349951124144
1.270772238514174
1.2561094819159335
1.2424242424242424
1.2297165200391007
1.217008797653959
1.2082111436950147
1.2003910068426198
1.1896383186705768
1.176930596285435
1.166177908113392
1.155425219941349
1.144672531769306
1.1348973607038124
1.1251221896383188
1.115347018572825
1.1065493646138806
1.0977517106549364
1.0928641251221896
1.0899315738025417
1.0840664711632453
1.0772238514173995
1.0703812316715542
1.0635386119257086
1.0557184750733135
1.0488758553274682
1.0439882697947214
1.0410557184750733
1.0381231671554252
1.0361681329423265
1.0342130987292275
1.035190615835777
1.0381231671554252
1.0391006842619743
1.040078201368524
1.040078201368524
1.040078201368524
1.040078201368524
1.040078201368524
1.040078201368524
1.040078201368524
1.0420332355816226
1.0478983382209188
1.06158357771261
1.0840664711632453
1.1231671554252198
1.1837732160312806
1.270772238514174
1.3851417399804498
1.5249266862170088
1.6852394916911049
1.8592375366568916
2.0361681329423265
2.209188660801564
2.3714565004887587
2.5161290322580645
2.624633431085044
2.7067448680351904
2.7839687194525906
2.849462365591398
2.9012707722385143
2.9423264907135875
2.973607038123167
2.997067448680352
3.0146627565982405
3.0254154447702835
3.027370478983382
3.0195503421309877
3.0
2.970674486803519
2.9315738025415445
2.881720430107527
2.819159335288368
2.7468230694037143
2.667644183773216
2.58455522971652
2.501466275659824
2.4222873900293256
2.3499511241446727
2.2854349951124147
2.232649071358749
2.188660801564027
2.146627565982405
2.10850439882698
2.0733137829912023
2.0391006842619745
2.004887585532747
1.9696969696969695
1.932551319648094
1.8934506353861196
1.8533724340175952
1.812316715542522
1.7702834799608993
1.7341153470185728
1.696969696969697
1.6549364613880744
1.616813294232649
1.5806451612903225
1.5464320625610948
1.5131964809384164
1.4819159335288368
1.452590420332356
1.4242424242424243
1.3988269794721409
1.375366568914956
1.3577712609970674
1.343108504398827
1.3264907135874875
1.3088954056695992
1.2913000977517106
1.273704789833822
1.2561094819159335
1.2394916911045943
1.2238514173998043
1.209188660801564
1.1964809384164223
1.1837732160312806
1.1720430107526882
1.1652003910068427
1.160312805474096
1.152492668621701
1.142717497556207
1.1319648093841643
1.121212121212121
1.110459433040078
1.1006842619745845
1.0918866080156402
1.0840664711632453
1.0762463343108504
1.0684261974584557
1.0635386119257086
1.0606060606060606
1.0557184750733135
1.050830889540567
1.04594330400782
1.0420332355816226
1.0381231671554252
1.035190615835777
1.032258064516129
1.029325513196481
1.0263929618768328
1.0234604105571847
1.021505376344086
1.0234604105571847
1.0273704789833822
1.0303030303030305
1.032258064516129
1.0342130987292275
1.0361681329423265
1.0381231671554252
1.0391006842619743
1.0410557184750733
1.0439882697947214
1.0527859237536656
1.0713587487781036
1.0987292277614855
1.13880742913001
1.2023460410557183
1.2913000977517106
1.4066471163245358
1.5454545454545454
1.7018572825024438
1.8699902248289344
2.0410557184750733
2.206256109481916
2.358748778103617
2.493646138807429
2.6080156402737047
2.6901270772238512
2.7497556207233624
2.8054740957966766
2.8533724340175954
2.89345063538612
2.924731182795699
2.948191593352884
2.9657869012707723
2.975562072336266
2.9775171065493646
2.970674486803519
2.95405669599218
2.927663734115347
2.8914956011730206
2.843597262952102
2.78494623655914
2.716520039100684
2.6422287390029324
2.5640273704789838
2.4838709677419355
2.407624633431085
2.3362658846529816
2.271749755620724
2.2140762463343107
2.164222873900293
2.12316715542522
2.0879765395894427
2.0547409579667644
2.021505376344086
1.988269794721408
1.9550342130987293
1.9188660801564028
1.881720430107527
1.842619745845552
1.8025415444770283
1.7624633431085044
1.7233626588465298
1.689149560117302
1.6588465298142718
1.6256109481915937
1.590420332355816
1.5562072336265884
1.521994134897361
1.4897360703812317
1.4604105571847508
1.4320625610948192
1.4066471163245358
1.383186705767351
1.3616813294232648
1.3411534701857282
1.3255131964809383
1.3118279569892473
1.2971652003910068
1.281524926686217
1.2658846529814272
1.252199413489736
1.238514173998045
1.2258064516129032
1.2140762463343109
1.2013685239491692
1.187683284457478
1.173998044965787
1.1652003910068427
1.1593352883675463
1.1515151515151516
1.142717497556207
1.133919843597263
1.1251221896383188
1.1163245356793745
1.1085043988269794
1.1006842619745845
1.093841642228739
1.0879765395894427
1.083088954056696
1.078201368523949
1.075268817204301
1.0742913000977516
1.0703812316715542
1.064516129032258
1.0586510263929618
1.053763440860215
1.050830889540567
1.0478983382209188
1.04594330400782
1.0439882697947214
1.043010752688172
1.043010752688172
1.0449657869012707
1.0488758553274682
1.050830889540567
1.0518084066471165
1.0518084066471165
1.0518084066471165
1.0518084066471165
1.0518084066471165
1.0527859237536656
1.0557184750733135
1.0664711632453567
1.088954056695992
1.1290322580645162
1.1788856304985338
1.2453567937438903
1.3421309872922775
1.4652981427174976
1.6099706744868034
1.7702834799608993
1.9364613880742916
2.101661779081134
2.2580645161290325
2.398826979472141
2.5210166177908118
2.622678396871945
2.6940371456500487
2.744868035190616
2.789833822091887
2.8269794721407626
2.8563049853372435
2.877810361681329
2.89247311827957
2.900293255131965
2.900293255131965
2.8914956011730206
2.8729227761485827
2.843597262952102
2.8025415444770285
2.755620723362659
2.7008797653958942
2.635386119257087
2.5620723362658846
2.4858260019550342
2.410557184750733
2.3391984359726297
2.272727272727273
2.2140762463343107
2.1622678396871944
2.118279569892473
2.078201368523949
2.0449657869012707
2.01564027370479
1.9853372434017595
1.95405669599218
1.921798631476051
1.8875855327468232
1.8514173998044965
1.8132942326490715
1.7741935483870968
1.7341153470185728
1.694037145650049
1.6549364613880744
1.6217008797653958
1.5933528836754642
1.5620723362658846
1.5298142717497556
1.498533724340176
1.4682306940371457
1.439882697947214
1.4134897360703813
1.388074291300098
1.3636363636363635
1.3411534701857282
1.3206256109481915
1.3020527859237536
1.2883675464320623
1.278592375366569
1.2658846529814272
1.2531769305962854
1.2394916911045943
1.2258064516129032
1.2121212121212122
1.198435972629521
1.1857282502443791
1.173998044965787
1.163245356793744
1.1534701857282503
1.147605083088954
1.142717497556207
1.1358748778103618
1.1270772238514175
1.118279569892473
1.1085043988269794
1.099706744868035
1.0918866080156402
1.0791788856304985
1.064516129032258
1.0527859237536656
1.0439882697947214
1.0361681329423265
1.0332355816226784
1.032258064516129
1.029325513196481
1.0263929618768328
1.0234604105571847
1.021505376344086
1.0195503421309873
1.0175953079178883
1.0156402737047898
1.0156402737047898
1.0156402737047898
1.0166177908113392
1.0205278592375366
1.0254154447702837
1.0283479960899315
1.0303030303030305
1.0312805474095796
1.032258064516129
1.0342130987292275
1.0410557184750733
1.0557184750733135
1.0840664711632453
1.1300097751710656
1.198435972629521
1.2932551319648091
1.3949169110459434
1.5073313782991202
1.651026392961877
1.8142717497556209
1.9843597262952104
2.15347018572825
2.312805474095797
2.455522971652004
2.578690127077224
2.6823069403714563
2.7673509286412514
2.835777126099707
2.8797653958944283
2.909090909090909
2.9374389051808407
2.961876832844575
2.981427174975562
2.994134897360704
2.99902248289345
2.9960899315738025
2.9824046920821115
2.9579667644183774
2.921798631476051
2.8729227761485827
2.8132942326490715
2.750733137829912
2.6852394916911044
2.611925708699902
2.5347018572825024
2.4574780058651027
2.3841642228739004
2.317693059628544
2.2580645161290325
2.2052785923753664
2.1593352883675463
2.117302052785924
2.0772238514174
2.042033235581622
2.0087976539589443
1.9736070381231672
1.9364613880742916
1.8973607038123168
1.858260019550342
1.818181818181818
1.7781036168132942
1.7380254154447703
1.6979472140762464
1.6588465298142718
1.6207233626588464
1.5826001955034212
