ppg
2.4408602150537635
2.36950146627566
2.300097751710655
2.2404692082111435
2.188660801564027
2.1388074291300097
2.09188660801564
2.048875855327468
2.0097751710654936
1.9726295210166176
1.9374389051808407
1.903225806451613
1.8699902248289344
1.8377321603128052
1.8064516129032255
1.7810361681329423
1.758553274682307
1.7331378299120237
1.7086999022482894
1.683284457478006
1.6578690127077225
1.6334310850439884
1.6099706744868034
1.587487781036168
1.564027370478983
1.5395894428152492
1.5161290322580645
1.4926686217008798
1.474095796676442
1.457478005865103
1.4389051808406648
1.4193548387096775
1.3998044965786902
1.380254154447703
1.3607038123167154
1.3401759530791788
1.3206256109481915
1.303030303030303
1.2854349951124144
1.2688172043010753
1.2561094819159335
1.24633431085044
1.2365591397849462
1.2267839687194526
1.217008797653959
1.206256109481916
1.1945259042033236
1.181818181818182
1.1691104594330402
1.1564027370478984
1.144672531769306
1.133919843597263
1.1241446725317692
1.1192570869990224
1.1163245356793745
1.1124144672531768
1.110459433040078
1.104594330400782
1.096774193548387
1.0909090909090908
1.086021505376344
1.0821114369501466
1.0772238514173995
1.072336265884653
1.0684261974584557
1.0684261974584557
1.0694037145650048
1.0694037145650048
1.0694037145650048
1.0694037145650048
1.0684261974584557
1.0664711632453567
1.0635386119257086
1.0606060606060606
1.0557184750733135
1.0478983382209188
1.0391006842619743
1.0361681329423265
1.0371456500488758
1.0410557184750733
1.0557184750733135
1.086021505376344
1.1378299120234605
1.2130987292277615
1.310850439882698
1.4271749755620724
1.5581622678396871
1.6979472140762464
1.8406647116324533
1.9804496578690127
2.0948191593352883
2.1945259042033234
2.2981427174975564
2.3978494623655915
2.489736070381232
2.572825024437928
2.6480938416422286
2.7145650048875853
2.7722385141739982
2.8211143695014664
2.863147605083089
2.898338220918866
2.918866080156403
2.9315738025415445
2.9442815249266863
2.956011730205278
2.9657869012707723
2.970674486803519
2.9696969696969697
2.964809384164223
2.9530791788856305
2.935483870967742
2.9100684261974585
2.87683284457478
2.834799608993157
2.787878787878788
2.7331378299120237
2.668621700879765
2.598240469208211
2.5239491691104594
2.4486803519061584
2.375366568914956
2.3059628543499517
2.242424242424242
2.1867057673509285
2.136852394916911
2.0928641251221896
2.056695992179863
2.024437927663734
1.992179863147605
1.9608993157380252
1.9296187683284456
1.8983382209188664
1.866080156402737
1.833822091886608
1.8035190615835777
1.7732160312805474
1.7448680351906158
1.715542521994135
1.6852394916911049
1.6598240469208212
1.6383186705767352
1.6148582600195502
1.5894428152492668
1.565982404692082
1.542521994134897
1.521016617790811
1.501466275659824
1.4809384164222874
1.4594330400782014
1.4379276637341154
1.418377321603128
1.4027370478983383
1.3890518084066472
1.3724340175953078
1.3548387096774193
1.3372434017595307
1.3206256109481915
1.3049853372434017
1.29227761485826
1.2805474095796676
1.2697947214076246
1.2590420332355816
1.2482893450635386
1.2375366568914956
1.23069403714565
1.2258064516129032
1.2179863147605083
1.209188660801564
1.2013685239491692
1.1945259042033236
1.187683284457478
1.1808406647116323
1.173998044965787
1.1681329423264908
1.1622678396871946
1.155425219941349
1.1534701857282503
1.1544477028347997
1.152492668621701
1.1505376344086022
1.1485826001955035
1.147605083088954
1.1466275659824048
1.1456500488758554
1.142717497556207
1.1397849462365592
1.1368523949169111
1.1348973607038124
1.1329423264907137
1.1329423264907137
1.1358748778103618
1.1378299120234605
1.13880742913001
1.13880742913001
1.1368523949169111
1.1329423264907137
1.1270772238514175
1.1231671554252198
1.121212121212121
1.1251221896383188
1.13880742913001
1.163245356793744
1.2023460410557183
1.2658846529814272
1.3558162267839686
1.466275659824047
1.5943304007820136
1.7350928641251222
1.881720430107527
2.027370478983382
2.167155425219941
2.2991202346041058
2.420332355816227
2.530791788856305
2.6158357771261
2.6832844574780057
2.752688172043011
2.8181818181818183
2.878787878787879
2.9335288367546437
2.981427174975562
3.0205278592375366
3.053763440860215
3.083088954056696
3.1065493646138806
3.12316715542522
3.129032258064516
3.1270772238514173
3.12316715542522
3.1163245356793743
3.103616813294233
3.085043988269794
3.060606060606061
3.029325513196481
2.9902248289345064
2.940371456500489
2.881720430107527
2.8152492668621703
2.739980449657869
2.6666666666666665
2.595307917888563
2.520039100684262
2.4457478005865103
2.376344086021505
2.313782991202346
2.2580645161290325
2.207233626588465
2.161290322580645
2.120234604105572
2.081133919843597
2.042033235581622
2.007820136852395
1.975562072336266
1.9423264907135875
1.90811339198436
1.8758553274682308
1.8435972629521016
1.8113391984359728
1.7810361681329423
1.750733137829912
1.7204301075268815
1.6901270772238517
1.66177908113392
1.6334310850439884
1.608993157380254
1.587487781036168
1.564027370478983
1.5395894428152492
1.5151515151515151
1.490713587487781
1.4672531769305963
1.4437927663734116
1.4213098729227762
1.3998044965786902
1.3792766373411536
1.3577712609970674
1.3411534701857282
1.327468230694037
1.3128054740957966
1.2971652003910068
1.2825024437927663
1.267839687194526
1.2531769305962854
1.238514173998045
1.224828934506354
1.2130987292277615
1.203323558162268
1.1925708699902249
1.181818181818182
1.173998044965787
1.1691104594330402
1.1612903225806452
1.1534701857282503
1.1456500488758554
1.13880742913001
1.1319648093841643
1.1251221896383188
1.118279569892473
1.1114369501466277
1.1055718475073313
1.0987292277614855
1.0957966764418376
1.0957966764418376
1.093841642228739
1.0909090909090908
1.0879765395894427
1.0850439882697946
1.0811339198435972
1.078201368523949
1.075268817204301
1.0742913000977516
1.0733137829912025
1.0664711632453567
1.0586510263929618
1.0576735092864125
1.0586510263929618
1.0586510263929618
1.0576735092864125
1.0557184750733135
1.053763440860215
1.050830889540567
1.0478983382209188
1.0439882697947214
1.043010752688172
1.0488758553274682
1.0635386119257086
1.0879765395894427
1.1280547409579669
1.1886608015640274
1.270772238514174
1.3743890518084063
1.4946236559139785
1.6236559139784943
1.758553274682307
1.8914956011730208
2.018572825024438
2.1388074291300097
2.251221896383187
2.3411534701857284
2.41544477028348
2.4916911045943304
2.5650048875855327
2.633431085043988
2.695014662756598
2.748778103616813
2.7947214076246336
2.834799608993157
2.8670576735092865
2.89247311827957
2.9120234604105573
2.9266862170087977
2.9315738025415445
2.930596285434995
2.927663734115347
2.9227761485826003
2.913000977517106
2.8963831867057674
2.8719452590420333
2.8406647116324537
2.7996089931573804
2.748778103616813
2.689149560117302
2.621700879765396
2.5562072336265884
2.4916911045943304
2.4222873900293256
2.3528836754643208
2.2854349951124147
2.222873900293255
2.1681329423264906
2.120234604105572
2.078201368523949
2.0391006842619745
2.0019550342130987
1.967741935483871
1.9335288367546437
1.9042033235581624
1.8778103616813293
1.8504398826979471
1.822091886608016
1.793743890518084
1.7663734115347018
1.7390029325513197
1.7135874877810362
1.689149560117302
1.6637341153470186
1.6373411534701858
1.611925708699902
1.5913978494623655
1.573802541544477
1.555229716520039
1.533724340175953
1.5112414467253177
1.4887585532746823
1.4672531769305963
1.4467253176930597
1.4271749755620724
1.4076246334310851
1.3890518084066472
1.3724340175953078
1.3558162267839686
1.343108504398827
1.3313782991202343
1.316715542521994
1.3010752688172045
1.2864125122189638
1.2727272727272727
1.2590420332355816
1.2453567937438903
1.2316715542521994
1.2189638318670577
1.2072336265884651
1.1964809384164223
1.1896383186705768
1.18475073313783
1.1779081133919844
1.1700879765395895
1.1612903225806452
1.152492668621701
1.1456500488758554
1.13880742913001
1.1319648093841643
1.1251221896383188
1.118279569892473
1.1114369501466277
1.104594330400782
1.1016617790811338
1.099706744868035
1.0957966764418376
1.0909090909090908
1.0850439882697946
1.078201368523949
1.072336265884653
1.0684261974584557
1.064516129032258
1.0625610948191593
1.0635386119257086
1.064516129032258
1.067448680351906
1.0713587487781036
1.0733137829912025
1.072336265884653
1.0694037145650048
1.0664711632453567
1.0635386119257086
1.0606060606060606
1.0576735092864125
1.0557184750733135
1.0557184750733135
1.0625610948191593
1.0801564027370478
1.1094819159335287
1.1534701857282503
1.2209188660801564
1.3118279569892473
1.4222873900293256
1.547409579667644
1.6813294232649072
1.818181818181818
1.9530791788856303
2.0821114369501466
2.203323558162268
2.315738025415445
2.404692082111437
2.47702834799609
2.552297165200391
2.624633431085044
2.6901270772238512
2.748778103616813
2.7996089931573804
2.8426197458455524
2.878787878787879
2.909090909090909
2.9345063538611926
2.95405669599218
2.967741935483871
2.9716520039100685
2.967741935483871
2.960899315738025
2.9501466275659824
2.9345063538611926
2.9120234604105573
2.881720430107527
2.843597262952102
2.7966764418377323
2.739980449657869
2.674486803519061
2.6021505376344085
2.5347018572825024
2.4701857282502444
2.4027370478983383
2.3362658846529816
2.274682306940372
2.218963831867057
2.16911045943304
2.1251221896383186
2.086021505376344
2.0498533724340176
2.0146627565982405
1.9804496578690127
1.946236559139785
1.916911045943304
1.8914956011730208
1.8631476050830889
1.8347996089931573
1.8064516129032255
1.7790811339198436
1.7517106549364614
1.7243401759530792
1.6979472140762464
1.6715542521994136
1.6451612903225807
1.619745845552297
1.5972629521016617
1.5777126099706744
1.555229716520039
1.5317693059628543
1.5083088954056696
1.4858260019550342
1.4652981427174976
1.4437927663734116
1.4222873900293256
1.401759530791789
1.3822091886608017
1.3636363636363635
1.3499511241446724
1.33822091886608
1.3255131964809383
1.3128054740957966
1.2991202346041055
1.2873900293255132
1.2756598240469208
1.2639296187683284
1.252199413489736
1.2404692082111437
1.227761485826002
1.2150537634408602
1.203323558162268
1.1964809384164223
1.1915933528836755
1.1837732160312806
1.176930596285435
1.1720430107526882
1.1681329423264908
1.163245356793744
1.1593352883675463
1.155425219941349
1.1515151515151516
1.1485826001955035
1.1456500488758554
1.144672531769306
1.1456500488758554
1.144672531769306
1.141739980449658
1.1368523949169111
1.1319648093841643
1.1280547409579669
1.1241446725317692
1.121212121212121
1.1202346041055715
1.1192570869990224
1.1192570869990224
1.1192570869990224
1.121212121212121
1.1251221896383188
1.1270772238514175
1.1280547409579669
1.1300097751710656
1.1231671554252198
1.1114369501466277
1.1055718475073313
1.1026392961876832
1.1006842619745845
1.0977517106549364
1.093841642228739
1.093841642228739
1.096774193548387
1.1055718475073313
1.1251221896383188
1.1612903225806452
1.2209188660801564
1.3040078201368523
1.4105571847507332
1.5356793743890518
1.6744868035190617
1.818181818181818
1.9618768328445748
2.101661779081134
2.217986314760508
2.317693059628544
2.423264907135875
2.525904203323558
2.622678396871945
2.7096774193548385
2.7869012707722387
2.855327468230694
2.9159335288367547
2.9687194525904204
3.0146627565982405
3.0547409579667644
3.080156402737048
3.096774193548387
3.113391984359726
3.126099706744868
3.132942326490713
3.133919843597263
3.129032258064516
3.1192570869990224
3.103616813294233
3.081133919843597
3.0518084066471163
3.013685239491691
2.9667644183773216
2.9149560117302054
2.857282502443793
2.788856304985337
2.7145650048875853
2.636363636363636
2.558162267839687
2.4809384164222874
2.4086021505376345
2.343108504398827
2.2844574780058653
2.23069403714565
2.182795698924731
2.142717497556207
2.1065493646138806
2.069403714565005
2.032258064516129
1.994134897360704
1.9560117302052784
1.9188660801564028
1.8836754643206255
1.8494623655913975
1.8162267839687196
1.7849462365591398
1.7546432062561097
1.7243401759530792
1.6979472140762464
1.6735092864125125
1.6471163245356797
1.6187683284457477
1.5913978494623655
1.565982404692082
1.541544477028348
1.517106549364614
1.4926686217008798
1.4682306940371457
1.444770283479961
1.4213098729227762
1.401759530791789
1.3851417399804498
1.3655913978494625
1.3450635386119256
1.3264907135874875
1.3088954056695992
1.29227761485826
1.2756598240469208
1.260019550342131
1.24633431085044
1.2326490713587488
1.2189638318670577
1.2052785923753666
1.195503421309873
1.187683284457478
1.176930596285435
1.166177908113392
1.155425219941349
1.144672531769306
1.133919843597263
1.1251221896383188
1.1173020527859236
1.1094819159335287
1.1026392961876832
1.0957966764418376
1.0918866080156402
1.088954056695992
1.083088954056696
1.075268817204301
1.0684261974584557
1.06158357771261
1.0547409579667644
1.0478983382209188
1.040078201368524
1.032258064516129
1.0254154447702837
1.0205278592375366
1.0166177908113392
1.0166177908113392
1.0175953079178883
1.0166177908113392
1.0146627565982405
1.0127077223851415
1.010752688172043
1.0087976539589445
1.007820136852395
1.0087976539589445
1.0097751710654936
1.010752688172043
1.0117302052785924
1.0166177908113392
1.0224828934506354
1.0254154447702837
1.0263929618768328
1.0273704789833822
1.0273704789833822
1.0273704789833822
1.0263929618768328
1.024437927663734
1.021505376344086
1.018572825024438
1.0166177908113392
1.018572825024438
1.029325513196481
1.050830889540567
1.0879765395894427
1.147605083088954
1.23069403714565
1.335288367546432
1.458455522971652
1.595307917888563
1.7390029325513197
1.8836754643206255
2.024437927663734
2.157380254154448
2.2639296187683287
2.35386119257087
2.447702834799609
2.539589442815249
2.625610948191593
2.7038123167155423
2.7751710654936463
2.8377321603128056
2.8914956011730206
2.9393939393939394
2.979472140762464
3.0127077223851417
3.038123167155425
3.050830889540567
3.0547409579667644
3.059628543499511
3.06158357771261
3.059628543499511
3.0518084066471163
3.038123167155425
3.018572825024438
2.9902248289345064
2.952101661779081
2.9042033235581624
2.8475073313782997
2.788856304985337
2.7262952101661777
2.653958944281525
2.578690127077224
2.5024437927663734
2.429130009775171
2.360703812316716
2.300097751710655
2.2453567937438903
2.1974584555229715
2.15347018572825
2.1114369501466275
2.0762463343108504
2.0439882697947214
2.010752688172043
1.9765395894428155
1.943304007820137
1.9100684261974583
1.8778103616813293
1.8455522971652003
1.8142717497556209
1.7839687194525904
1.7556207233626588
1.7272727272727273
1.699902248289345
1.6774193548387095
1.6578690127077225
1.6363636363636365
1.611925708699902
1.585532746823069
1.5591397849462365
1.5347018572825024
1.5102639296187683
1.4858260019550342
1.4623655913978495
1.439882697947214
1.418377321603128
1.4007820136852396
1.3851417399804498
1.3665689149560116
1.3479960899315735
1.3304007820136852
1.313782991202346
1.2961876832844574
1.2805474095796676
1.2658846529814272
1.252199413489736
1.2404692082111437
1.2297165200391007
1.2189638318670577
1.2121212121212122
1.2072336265884651
1.1994134897360704
1.1906158357771262
1.1808406647116323
1.1710654936461389
1.1612903225806452
1.1505376344086022
1.13880742913001
1.1290322580645162
1.1202346041055715
1.1124144672531768
1.1085043988269794
1.1065493646138806
1.1026392961876832
1.096774193548387
1.0909090909090908
1.0850439882697946
1.0811339198435972
1.0772238514173995
1.072336265884653
1.067448680351906
1.0635386119257086
1.0586510263929618
1.050830889540567
1.0449657869012707
1.043010752688172
1.0410557184750733
1.040078201368524
1.0391006842619743
1.0391006842619743
1.0391006842619743
1.0391006842619743
1.0391006842619743
1.0391006842619743
1.0381231671554252
1.035190615835777
1.0342130987292275
1.0332355816226784
1.029325513196481
1.0254154447702837
1.021505376344086
1.0195503421309873
1.018572825024438
1.0234604105571847
1.0381231671554252
1.067448680351906
1.115347018572825
1.18475073313783
1.2746823069403714
1.3655913978494625
1.4594330400782014
1.5728250244379276
1.696969696969697
1.8240469208211143
1.949169110459433
2.070381231671554
2.182795698924731
2.2854349951124147
2.377321603128055
2.4594330400782014
2.532746823069404
2.587487781036168
2.631476050830889
2.67644183773216
2.719452590420332
2.758553274682307
2.792766373411535
2.8211143695014664
2.843597262952102
2.860215053763441
2.870967741935484
2.874877810361681
2.8729227761485827
2.865102639296188
2.849462365591398
2.8260019550342133
2.7996089931573804
2.7673509286412514
2.7262952101661777
2.677419354838709
2.621700879765396
2.5591397849462365
2.493646138807429
2.426197458455523
2.3597262952101663
2.297165200391007
2.242424242424242
2.1945259042033234
2.1485826001955037
2.1065493646138806
2.0664711632453567
2.029325513196481
1.994134897360704
1.9589442815249267
1.924731182795699
1.89247311827957
1.8602150537634408
1.828934506353861
1.7986314760508308
1.7732160312805474
1.7487781036168133
1.7233626588465298
1.6979472140762464
1.672531769305963
1.6471163245356797
1.6226783968719452
1.5992179863147604
1.576735092864125
1.5542521994134897
1.5327468230694037
1.5112414467253177
1.4926686217008798
1.4760508308895406
1.455522971652004
1.4330400782013686
1.4115347018572826
1.3890518084066472
1.3665689149560116
1.3450635386119256
1.3264907135874875
1.310850439882698
1.2971652003910068
1.2834799608993157
1.270772238514174
1.2609970674486803
1.2531769305962854
1.2424242424242424
1.2316715542521994
1.2218963831867058
1.2121212121212122
1.2023460410557183
1.1925708699902249
1.1827956989247312
1.173998044965787
1.166177908113392
1.1593352883675463
1.155425219941349
1.1534701857282503
1.1495601173020529
1.142717497556207
1.1348973607038124
1.1280547409579669
1.1231671554252198
1.1192570869990224
1.1163245356793745
1.1143695014662756
1.1124144672531768
1.110459433040078
1.1085043988269794
1.1094819159335287
1.1124144672531768
1.1133919843597262
1.1143695014662756
1.1143695014662756
1.1143695014662756
1.1133919843597262
1.110459433040078
1.1065493646138806
1.1006842619745845
1.096774193548387
1.0957966764418376
1.099706744868035
1.110459433040078
1.130987292277615
1.1671554252199414
1.224828934506354
1.303030303030303
1.4007820136852396
1.5151515151515151
1.640273704789834
1.7702834799608993
1.900293255131965
2.0254154447702835
2.1280547409579667
2.2160312805474094
2.30791788856305
2.3978494623655915
2.4819159335288368
2.558162267839687
2.627565982404692
2.689149560117302
2.742913000977517
2.789833822091887
2.83088954056696
2.8641251221896384
2.89247311827957
2.909090909090909
2.916911045943304
2.9257086999022484
2.932551319648094
2.935483870967742
2.932551319648094
2.9237536656891496
2.909090909090909
2.889540566959922
2.86217008797654
2.8260019550342133
2.780058651026393
2.7311827956989245
2.677419354838709
2.6129032258064515
2.541544477028348
2.4672531769305963
2.3929618768328447
2.3225806451612905
2.257086999022483
2.1974584555229715
2.144672531769306
2.0987292277614857
2.0576735092864125
2.0195503421309877
1.9872922776148585
1.9579667644183771
1.927663734115347
1.8963831867057677
1.865102639296188
1.8347996089931573
1.804496578690127
1.775171065493646
1.747800586510264
1.7204301075268815
1.6930596285434996
1.6666666666666667
1.643206256109482
1.6217008797653958
1.5972629521016617
1.5718475073313782
1.5464320625610948
1.521016617790811
1.4965786901270772
1.4721407624633431
1.447702834799609
1.4252199413489737
1.4056695992179864
1.3861192570869991
1.3655913978494625
1.348973607038123
1.335288367546432
1.3186705767350928
1.3010752688172045
1.2834799608993157
1.2668621700879763
1.2512218963831867
1.2365591397849462
1.2238514173998043
1.2121212121212122
1.1994134897360704
1.187683284457478
1.1808406647116323
1.1759530791788857
1.1681329423264908
1.1593352883675463
1.1505376344086022
1.141739980449658
1.1319648093841643
1.1231671554252198
1.115347018572825
1.1085043988269794
1.1016617790811338
1.0957966764418376
1.088954056695992
1.086021505376344
1.0850439882697946
1.0821114369501466
1.0791788856304985
1.0762463343108504
1.0713587487781036
1.0664711632453567
1.0625610948191593
1.0586510263929618
1.0547409579667644
1.0518084066471165
1.0498533724340176
1.0518084066471165
1.053763440860215
1.053763440860215
1.050830889540567
1.04594330400782
1.0410557184750733
1.0312805474095796
1.0195503421309873
1.0117302052785924
1.0097751710654936
1.0156402737047898
1.0361681329423265
1.075268817204301
1.126099706744868
1.1925708699902249
1.2854349951124144
1.3998044965786902
1.5278592375366569
1.664711632453568
1.8035190615835777
1.9403714565004888
2.069403714565005
2.189638318670577
2.300097751710655
2.40078201368524
2.4789833822091887
2.5434995112414467
2.610948191593353
2.675464320625611
2.7341153470185726
2.7859237536656893
2.831867057673509
2.8719452590420333
2.906158357771261
2.9345063538611926
2.9579667644183774
2.975562072336266
2.9872922776148583
2.988269794721408
2.981427174975562
2.973607038123167
2.962854349951124
2.948191593352884
2.927663734115347
2.8993157380254155
2.8611925708699903
2.8152492668621703
2.760508308895406
2.6959921798631474
2.6236559139784945
2.5532746823069403
2.482893450635386
2.409579667644184
2.337243401759531
2.2688172043010755
2.2082111436950145
2.155425219941349
2.10850439882698
2.067448680351906
2.0303030303030303
1.994134897360704
1.9589442815249267
1.9237536656891496
1.89247311827957
1.8621700879765395
1.83088954056696
1.7986314760508308
1.7663734115347018
1.7360703812316716
1.7057673509286413
1.675464320625611
1.6490713587487782
1.6226783968719452
1.5962854349951123
1.5698924731182795
1.5464320625610948
1.525904203323558
1.5024437927663734
1.47702834799609
1.452590420332356
1.4291300097751711
1.4066471163245358
1.3851417399804498
1.364613880742913
1.343108504398827
1.321603128054741
1.3020527859237536
1.2834799608993157
1.267839687194526
1.2561094819159335
1.2424242424242424
1.227761485826002
1.2160312805474096
1.2052785923753666
1.1945259042033236
1.18475073313783
1.1749755620723363
1.164222873900293
1.152492668621701
1.1397849462365592
1.1319648093841643
1.0234604105571847
1.0224828934506354
1.0195503421309873
1.0146627565982405
1.0097751710654936
1.0058651026392962
1.002932551319648
1.0
1.0
1.007820136852395
1.029325513196481
1.06158357771261
1.10752688172043
1.1798631476050832
1.2746823069403714
1.3900293255131966
1.520039100684262
1.656891495601173
1.7976539589442817
1.9364613880742916
2.0684261974584555
2.190615835777126
2.3010752688172045
2.39980449657869
2.4760508308895406
2.5376344086021505
2.603128054740958
2.6666666666666665
2.7253176930596283
2.779081133919844
2.8260019550342133
2.868035190615836
2.903225806451613
2.932551319648094
2.956011730205278
2.9745845552297165
2.981427174975562
2.9804496578690127
2.9804496578690127
2.9775171065493646
2.9687194525904204
2.956011730205278
2.936461388074292
2.909090909090909
2.870967741935484
2.823069403714565
2.7653958944281527
2.6989247311827955
2.625610948191593
2.5542521994134897
2.4838709677419355
2.4115347018572826
2.3391984359726297
2.269794721407625
2.207233626588465
2.150537634408602
2.1006842619745845
2.0557184750733137
2.0146627565982405
1.9775171065493649
1.9423264907135875
1.911045943304008
1.8826979472140764
1.8523949169110456
1.823069403714565
1.7927663734115349
1.7624633431085044
1.7311827956989247
1.7008797653958945
1.6715542521994136
1.6451612903225807
1.6187683284457477
1.5913978494623655
1.5650048875855327
