ppg
2.185728250244379
2.10850439882698
2.0303030303030303
1.9530791788856303
1.8797653958944285
1.812316715542522
1.750733137829912
1.6959921798631477
1.6480938416422288
1.607038123167155
1.5718475073313782
1.5454545454545454
1.52297165200391
1.498533724340176
1.4731182795698925
1.4486803519061584
1.4252199413489737
1.401759530791789
1.3792766373411536
1.356793743890518
1.335288367546432
1.3157380254154447
1.2961876832844574
1.2776148582600195
1.262952101661779
1.249266862170088
1.2346041055718475
1.2209188660801564
1.2082111436950147
1.1964809384164223
1.1837732160312806
1.1700879765395895
1.155425219941349
1.1407624633431086
1.1251221896383188
1.1094819159335287
1.0977517106549364
1.088954056695992
1.0791788856304985
1.0694037145650048
1.0606060606060606
1.053763440860215
1.0478983382209188
1.0420332355816226
1.0371456500488758
1.032258064516129
1.0283479960899315
1.024437927663734
1.0205278592375366
1.0195503421309873
1.0205278592375366
1.018572825024438
1.0156402737047898
1.0127077223851415
1.0087976539589445
1.0019550342130987
0.9931573802541545
0.9833822091886608
0.9775171065493646
0.975562072336266
0.9824046920821116
0.9990224828934506
1.0283479960899315
1.078201368523949
1.1534701857282503
1.2531769305962854
1.3724340175953078
1.5063538611925709
1.6480938416422288
1.790811339198436
1.9257086999022484
2.048875855327468
2.158357771260997
2.251221896383187
2.317693059628544
2.367546432062561
2.4144672531769307
2.452590420332356
2.4838709677419355
2.5083088954056696
2.525904203323558
2.5386119257087
2.547409579667644
2.5513196480938416
2.550342130987292
2.5434995112414467
2.529814271749756
2.509286412512219
2.4838709677419355
2.453567937438905
2.4173998044965788
2.375366568914956
2.326490713587488
2.269794721407625
2.207233626588465
2.139784946236559
2.0684261974584555
1.994134897360704
1.919843597262952
1.855327468230694
1.7976539589442817
1.739980449657869
1.6871945259042034
1.640273704789834
1.6001955034213098
1.5669599217986314
1.5376344086021505
1.512218963831867
1.487781036168133
1.4633431085043989
1.439882697947214
1.4203323558162269
1.4037145650048877
1.3841642228739004
1.3626588465298142
1.3411534701857282
1.3196480938416422
1.300097751710655
1.2805474095796676
1.2590420332355816
1.2365591397849462
1.2150537634408602
1.1945259042033236
1.1788856304985338
1.1671554252199414
1.1534701857282503
1.1368523949169111
1.118279569892473
1.099706744868035
1.083088954056696
1.0684261974584557
1.0557184750733135
1.0449657869012707
1.0361681329423265
1.0303030303030305
1.0254154447702837
1.0234604105571847
1.0224828934506354
1.018572825024438
1.013685239491691
1.0087976539589445
1.0019550342130987
0.9931573802541545
0.9833822091886608
0.9775171065493646
0.9745845552297164
0.9765395894428152
0.9912023460410556
1.018572825024438
1.06158357771261
1.1300097751710656
1.2228739002932552
1.3362658846529814
1.4643206256109482
1.5992179863147604
1.7350928641251222
1.866080156402737
1.986314760508309
2.09188660801564
2.1818181818181817
2.257086999022483
2.3098729227761488
2.345063538611926
2.377321603128055
2.403714565004888
2.4252199413489737
2.4408602150537635
2.452590420332356
2.458455522971652
2.458455522971652
2.452590420332356
2.4408602150537635
2.4222873900293256
2.3978494623655915
2.36950146627566
2.3362658846529816
2.2952101661779083
2.247311827956989
2.1915933528836757
2.1280547409579667
2.0576735092864125
1.981427174975562
1.902248289345064
1.825024437927664
1.7526881720430108
1.6871945259042034
1.6334310850439884
1.590420332355816
1.5503421309872922
1.5161290322580645
1.487781036168133
1.4643206256109482
1.444770283479961
1.4281524926686218
1.412512218963832
1.4134897360703813
1.4213098729227762
1.4134897360703813
1.401759530791789
1.3890518084066472
1.3743890518084063
1.3587487781036167
1.3411534701857282
1.3225806451612905
1.303030303030303
1.2834799608993157
1.2649071358748778
1.2482893450635386
1.2346041055718475
1.2238514173998043
1.2140762463343109
1.206256109481916
1.1974584555229717
1.1857282502443791
1.1710654936461389
1.1544477028347997
1.1358748778103618
1.1173020527859236
1.099706744868035
1.0850439882697946
1.072336265884653
1.0596285434995112
1.0478983382209188
1.0410557184750733
1.0381231671554252
1.0332355816226784
1.0283479960899315
1.0234604105571847
1.0175953079178883
1.0117302052785924
1.0068426197458455
1.0039100684261977
1.0019550342130987
1.0009775171065494
1.0009775171065494
1.0009775171065494
1.0039100684261977
1.0087976539589445
1.013685239491691
1.018572825024438
1.0224828934506354
1.0263929618768328
1.0303030303030305
1.0342130987292275
1.0381231671554252
1.0420332355816226
1.0449657869012707
1.04594330400782
1.0469208211143697
1.0488758553274682
1.06158357771261
1.0606060606060606
1.0606060606060606
1.0596285434995112
1.0586510263929618
1.056695992179863
1.0557184750733135
1.056695992179863
1.056695992179863
1.056695992179863
1.056695992179863
1.056695992179863
1.0586510263929618
1.0635386119257086
1.0684261974584557
1.0703812316715542
1.072336265884653
1.0733137829912025
1.075268817204301
1.078201368523949
1.0821114369501466
1.086021505376344
1.088954056695992
1.0899315738025417
1.0909090909090908
1.0909090909090908
1.0928641251221896
1.0957966764418376
1.0957966764418376
1.0928641251221896
1.0909090909090908
1.0918866080156402
1.1006842619745845
1.1251221896383188
1.1730205278592376
1.2482893450635386
1.3548387096774193
1.487781036168133
1.616813294232649
1.7468230694037146
1.8993157380254155
2.059628543499511
2.2160312805474094
2.3597262952101663
2.4858260019550342
2.595307917888563
2.687194525904203
2.7624633431085046
2.822091886608016
2.8670576735092865
2.8993157380254155
2.913978494623656
2.917888563049853
2.920821114369501
2.920821114369501
2.917888563049853
2.9120234604105573
2.902248289345064
2.887585532746823
2.8670576735092865
2.8406647116324537
2.8084066471163247
2.7673509286412514
2.721407624633431
2.670576735092864
2.6080156402737047
2.536656891495601
2.458455522971652
2.3734115347018574
2.2873900293255134
2.201368523949169
2.1192570869990224
2.043010752688172
1.9736070381231672
1.9100684261974583
1.8543499511241448
1.8103616813294232
1.775171065493646
1.7429130009775171
1.7145650048875856
1.689149560117302
1.664711632453568
1.640273704789834
1.616813294232649
1.5943304007820136
1.5718475073313782
1.5503421309872922
1.5288367546432062
1.5102639296187683
1.4916911045943304
1.4701857282502444
1.4486803519061584
1.4281524926686218
1.4076246334310851
1.388074291300098
1.3685239491691104
1.348973607038123
1.3304007820136852
1.3118279569892473
1.29227761485826
1.2766373411534702
1.2649071358748778
1.2512218963831867
1.2365591397849462
1.224828934506354
1.2150537634408602
1.206256109481916
1.1974584555229717
1.1896383186705768
1.181818181818182
1.173998044965787
1.166177908113392
1.1583577712609971
1.1534701857282503
1.1505376344086022
1.1466275659824048
1.142717497556207
1.1407624633431086
1.1397849462365592
1.1368523949169111
1.1329423264907137
1.1290322580645162
1.126099706744868
1.1270772238514175
1.1378299120234605
1.1573802541544478
1.1915933528836755
1.2473118279569892
1.3255131964809383
1.4271749755620724
1.5503421309872922
1.689149560117302
1.8347996089931573
1.978494623655914
2.113391984359726
2.2346041055718477
2.3382209188660803
2.4242424242424243
2.484848484848485
2.525904203323558
2.563049853372434
2.592375366568915
2.6129032258064515
2.6265884652981426
2.635386119257087
2.638318670576735
2.633431085043988
2.622678396871945
2.606060606060606
2.58455522971652
2.5591397849462365
2.527859237536657
2.4887585532746823
2.441837732160313
2.3870967741935485
2.32355816226784
2.251221896383187
2.1739980449657867
2.093841642228739
2.013685239491691
1.935483870967742
1.8621700879765395
1.7947214076246334
1.7409579667644184
1.696969696969697
1.656891495601173
1.6226783968719452
1.595307917888563
1.5728250244379276
1.552297165200391
1.5327468230694037
1.5131964809384164
1.4936461388074291
1.4750733137829912
1.456500488758553
1.4418377321603129
1.4281524926686218
1.4115347018572826
1.3949169110459434
1.3773216031280548
1.359726295210166
1.343108504398827
1.3264907135874875
1.3118279569892473
1.2961876832844574
1.278592375366569
1.260019550342131
1.241446725317693
1.2267839687194526
1.217008797653959
1.206256109481916
1.1935483870967742
1.181818181818182
1.1710654936461389
1.1593352883675463
1.1485826001955035
1.1241446725317692
1.0909090909090908
1.067448680351906
1.0498533724340176
1.0391006842619743
1.032258064516129
1.0254154447702837
1.0234604105571847
1.029325513196481
1.0498533724340176
1.0918866080156402
1.1573802541544478
1.249266862170088
1.3626588465298142
1.490713587487781
1.6275659824046922
1.7663734115347018
1.8826979472140764
1.9804496578690127
2.0762463343108504
2.161290322580645
2.232649071358749
2.2883675464320627
2.3284457478005867
2.355816226783969
2.3734115347018574
2.3822091886608017
2.3822091886608017
2.3734115347018574
2.357771260997068
2.3362658846529816
2.3088954056695994
2.274682306940372
2.233626588465298
2.185728250244379
2.1309872922776147
2.0684261974584555
2.0009775171065494
1.9286412512218964
1.8533724340175952
1.7810361681329423
1.7116324535679377
1.6529814271749756
1.6041055718475072
1.5562072336265884
1.5131964809384164
1.4760508308895406
1.4467253176930597
1.423264907135875
1.4056695992179864
1.392961876832845
1.380254154447703
1.3665689149560116
1.3519061583577712
1.3401759530791788
1.3284457478005864
1.3157380254154447
1.303030303030303
1.2883675464320623
1.270772238514174
1.2512218963831867
1.23069403714565
1.2101661779081134
1.1906158357771262
1.1720430107526882
1.1564027370478984
1.141739980449658
1.1319648093841643
1.1231671554252198
1.1124144672531768
1.099706744868035
1.0879765395894427
1.0762463343108504
1.0654936461388074
1.0557184750733135
1.0478983382209188
1.0420332355816226
1.0371456500488758
1.0312805474095796
1.0273704789833822
1.0254154447702837
1.0234604105571847
1.0263929618768328
1.0420332355816226
1.0791788856304985
1.144672531769306
1.2404692082111437
1.3616813294232648
1.504398826979472
1.6627565982404693
1.826001955034213
1.9843597262952104
2.112414467253177
2.2160312805474094
2.315738025415445
2.403714565004888
2.4780058651026398
2.5386119257087
2.58455522971652
2.616813294232649
2.638318670576735
2.650048875855328
2.6529814271749754
2.649071358748778
2.6373411534701856
2.6207233626588464
2.603128054740958
2.5835777126099706
2.5591397849462365
2.5268817204301075
2.4858260019550342
2.4359726295210167
2.377321603128055
2.3098729227761488
2.233626588465298
2.150537634408602
2.0625610948191597
1.9833822091886608
1.9090909090909087
1.83088954056696
1.7546432062561097
1.686217008797654
1.6285434995112416
1.581622678396872
1.543499511241447
1.5151515151515151
1.4946236559139785
1.478005865102639
1.4633431085043989
1.4516129032258065
1.4418377321603129
1.4291300097751711
1.414467253176931
1.3988269794721409
1.383186705767351
1.3655913978494625
1.3470185728250244
1.3264907135874875
1.3069403714565004
1.289345063538612
1.2717497556207231
1.2590420332355816
1.249266862170088
1.2375366568914956
1.2238514173998043
1.2111436950146628
1.198435972629521
1.1857282502443791
1.173998044965787
1.164222873900293
1.155425219941349
1.1466275659824048
1.13880742913001
1.1329423264907137
1.1300097751710656
1.1300097751710656
1.1300097751710656
1.1280547409579669
1.1251221896383188
1.1221896383186705
1.118279569892473
1.115347018572825
1.1133919843597262
1.110459433040078
1.1065493646138806
1.1026392961876832
1.1016617790811338
1.1006842619745845
1.0987292277614855
1.0977517106549364
1.096774193548387
1.096774193548387
1.096774193548387
1.096774193548387
1.096774193548387
1.096774193548387
1.096774193548387
1.096774193548387
1.096774193548387
1.0987292277614855
1.1016617790811338
1.1036168132942326
1.104594330400782
1.104594330400782
1.104594330400782
1.1055718475073313
1.10752688172043
1.1085043988269794
1.1085043988269794
1.1085043988269794
1.1085043988269794
1.110459433040078
1.1143695014662756
1.1163245356793745
1.1173020527859236
1.115347018572825
1.1114369501466277
1.1094819159335287
1.1143695014662756
1.130987292277615
1.1691104594330402
1.2355816226783969
1.335288367546432
1.4672531769305963
1.6011730205278591
1.7419354838709675
1.9130009775171064
2.0957966764418376
2.275659824046921
2.4408602150537635
2.5865102639296187
2.708699902248289
2.806451612903226
2.8807429130009776
2.936461388074292
2.9775171065493646
2.9980449657869013
3.004887585532747
3.0087976539589443
3.006842619745845
3.0009775171065494
2.9902248289345064
2.975562072336266
2.956011730205278
2.929618768328446
2.8963831867057674
2.8563049853372435
2.8054740957966766
2.745845552297165
2.684261974584555
2.6158357771261
2.5347018572825024
2.444770283479961
2.3489736070381237
2.249266862170088
2.1515151515151514
2.059628543499511
1.9736070381231672
1.8963831867057677
1.827956989247312
1.76930596285435
1.7233626588465298
1.6871945259042034
1.6520039100684265
1.6177908113391983
1.58455522971652
1.5542521994134897
1.5249266862170088
1.495601173020528
1.4652981427174976
1.4349951124144673
1.4066471163245358
1.3773216031280548
1.348973607038123
1.3264907135874875
1.3079178885630498
1.284457478005865
1.2580645161290325
1.2346041055718475
1.2121212121212122
1.1906158357771262
1.1700879765395895
1.1515151515151516
1.1348973607038124
1.1221896383186705
1.1114369501466277
1.104594330400782
1.1006842619745845
1.093841642228739
1.086021505376344
1.0762463343108504
1.067448680351906
1.0586510263929618
1.0127077223851415
1.0156402737047898
1.0303030303030305
1.064516129032258
1.1251221896383188
1.2150537634408602
1.3128054740957966
1.4222873900293256
1.563049853372434
1.721407624633431
1.884652981427175
2.0439882697947214
2.193548387096774
2.3255131964809386
2.4359726295210167
2.5288367546432062
2.6050830889540566
2.664711632453568
2.7008797653958942
2.7233626588465296
2.7438905180840663
2.760508308895406
2.771260997067449
2.7751710654936463
2.774193548387097
2.7673509286412514
2.7546432062561097
2.736070381231672
2.7116324535679373
2.6832844574780057
2.6480938416422286
2.6099706744868034
2.567937438905181
2.5180840664711632
2.458455522971652
2.389051808406647
2.310850439882698
2.2267839687194524
2.1388074291300097
2.050830889540567
1.9657869012707725
1.8826979472140764
1.8035190615835777
1.7390029325513197
1.686217008797654
1.635386119257087
1.590420332355816
1.552297165200391
1.5190615835777126
1.4916911045943304
1.4672531769305963
1.444770283479961
1.4242424242424243
1.4056695992179864
1.388074291300098
1.3743890518084063
1.3616813294232648
1.3470185728250244
1.3313782991202343
1.3147605083088951
1.2981427174975562
1.281524926686217
1.262952101661779
1.2434017595307918
1.2258064516129032
1.2101661779081134
1.1945259042033236
1.1798631476050832
1.1691104594330402
1.1612903225806452
1.1534701857282503
1.1456500488758554
1.1368523949169111
1.126099706744868
1.115347018572825
1.1055718475073313
1.0957966764418376
1.086021505376344
1.0762463343108504
1.067448680351906
1.0625610948191593
1.0606060606060606
1.0586510263929618
1.0557184750733135
1.0527859237536656
1.0498533724340176
1.04594330400782
1.0420332355816226
1.0381231671554252
1.0361681329423265
1.035190615835777
1.0342130987292275
1.0342130987292275
1.0361681329423265
1.0391006842619743
1.0410557184750733
1.0420332355816226
1.043010752688172
1.04594330400782
1.0488758553274682
1.053763440860215
1.0596285434995112
1.064516129032258
1.0684261974584557
1.0703812316715542
1.0733137829912025
1.0762463343108504
1.078201368523949
1.0791788856304985
1.0791788856304985
1.0791788856304985
1.078201368523949
1.0772238514173995
1.0791788856304985
1.0909090909090908
1.115347018572825
1.1593352883675463
1.2316715542521994
1.3147605083088951
1.4115347018572826
1.5405669599217986
1.6920821114369502
1.8543499511241448
2.0195503421309877
2.1788856304985336
2.326490713587488
2.4574780058651027
2.5698924731182795
2.66177908113392
2.735092864125122
2.782013685239492
2.809384164222874
2.831867057673509
2.8484848484848486
2.8582600195503423
2.86217008797654
2.8611925708699903
2.854349951124145
2.8426197458455524
2.827956989247312
2.806451612903226
2.777126099706745
2.740957966764418
2.7008797653958942
2.6559139784946235
2.6021505376344085
2.5405669599217986
2.4701857282502444
2.3919843597262958
2.3088954056695994
2.218963831867057
2.1251221896383186
2.0332355816226784
1.9472140762463344
1.868035190615836
1.8035190615835777
1.7497556207233629
1.6989247311827955
1.6549364613880744
1.6158357771260996
1.5806451612903225
1.5503421309872922
1.521994134897361
1.4926686217008798
1.4633431085043989
1.435972629521017
1.4086021505376345
1.3792766373411536
1.35386119257087
1.3313782991202343
1.3040078201368523
1.2766373411534702
1.2502443792766371
1.2228739002932552
1.1964809384164223
1.1720430107526882
1.1505376344086022
1.1319648093841643
1.1143695014662756
1.096774193548387
1.0840664711632453
0.9726295210166178
0.9706744868035192
0.967741935483871
0.9648093841642228
0.9618768328445748
0.9648093841642228
0.978494623655914
1.0097751710654936
1.0772238514173995
1.1798631476050832
1.3020527859237536
1.4457478005865103
1.5835777126099706
1.7194525904203324
1.8758553274682308
2.0361681329423265
2.189638318670577
2.3284457478005867
2.449657869012708
2.552297165200391
2.636363636363636
2.701857282502444
2.752688172043011
2.789833822091887
2.809384164222874
2.8181818181818183
2.825024437927664
2.8269794721407626
2.825024437927664
2.8181818181818183
2.807429130009776
2.790811339198436
2.768328445747801
2.739980449657869
2.705767350928641
2.665689149560117
2.6177908113391983
2.5669599217986314
2.5102639296187683
2.4408602150537635
2.363636363636364
2.2795698924731185
2.188660801564027
2.0948191593352883
2.002932551319648
1.9149560117302051
1.8347996089931573
1.7653958944281525
1.7067448680351909
1.66177908113392
1.629521016617791
1.6041055718475072
1.5835777126099706
1.5669599217986314
1.552297165200391
1.5386119257087
1.52297165200391
1.5053763440860215
1.487781036168133
1.4701857282502444
1.4516129032258065
1.4330400782013686
1.4164222873900294
1.3998044965786902
1.380254154447703
1.3616813294232648
1.3440860215053765
1.327468230694037
1.310850439882698
1.29227761485826
1.2746823069403714
1.2580645161290325
1.2434017595307918
1.2297165200391007
1.2189638318670577
1.2111436950146628
1.203323558162268
1.195503421309873
1.1867057673509287
1.1779081133919844
1.1700879765395895
1.1652003910068427
1.163245356793744
1.1622678396871946
1.1612903225806452
1.1612903225806452
1.163245356793744
1.166177908113392
1.1681329423264908
1.1691104594330402
1.1691104594330402
1.1691104594330402
1.1691104594330402
1.1691104594330402
1.1691104594330402
1.1681329423264908
1.164222873900293
1.1593352883675463
1.155425219941349
1.155425219941349
1.1612903225806452
1.1749755620723363
1.2043010752688172
1.2551319648093842
1.3343108504398826
1.4408602150537635
1.5718475073313782
1.7223851417399805
1.8856304985337244
2.0498533724340176
2.204301075268817
2.3274682306940373
2.4271749755620724
2.5249266862170088
2.611925708699902
2.6832844574780057
2.740957966764418
2.78494623655914
2.8152492668621703
2.834799608993157
2.844574780058651
2.8455522971652005
2.8396871945259043
2.8289345063538613
2.812316715542522
2.790811339198436
2.766373411534702
2.7370478983382207
2.701857282502444
2.659824046920821
2.611925708699902
2.557184750733138
2.493646138807429
2.420332355816227
2.3391984359726297
2.2531769305962857
2.1739980449657867
2.099706744868035
2.0195503421309877
1.93841642228739
1.8602150537634408
1.7898338220918866
1.7272727272727273
1.6735092864125125
1.629521016617791
1.5933528836754642
1.563049853372434
1.5356793743890518
1.509286412512219
1.487781036168133
1.4682306940371457
1.444770283479961
1.4203323558162269
1.3949169110459434
1.3695014662756595
1.3421309872922775
1.3147605083088951
1.2864125122189638
1.2580645161290325
1.2316715542521994
1.206256109481916
1.1867057673509287
1.1720430107526882
1.155425219941349
1.13880742913001
1.121212121212121
1.1055718475073313
1.0899315738025417
1.0762463343108504
1.0664711632453567
1.056695992179863
1.0488758553274682
1.043010752688172
1.0361681329423265
1.0332355816226784
1.0312805474095796
1.0263929618768328
1.0205278592375366
1.0156402737047898
1.010752688172043
1.0068426197458455
1.0019550342130987
0.9990224828934506
0.997067448680352
0.9951124144672532
0.9931573802541545
0.9941348973607038
0.997067448680352
0.9990224828934506
0.9980449657869012
0.997067448680352
0.9960899315738024
0.9960899315738024
0.9951124144672532
0.9921798631476052
0.9882697947214076
0.9843597262952102
0.978494623655914
0.9726295210166178
0.9716520039100685
0.9794721407624634
0.997067448680352
1.0332355816226784
1.0957966764418376
1.1906158357771262
1.3176930596285434
1.4711632453567938
1.6422287390029326
1.8211143695014664
1.9990224828934504
2.1652003910068425
2.294232649071359
2.396871945259042
2.498533724340176
2.592375366568915
2.6715542521994133
2.736070381231672
2.7869012707722387
2.825024437927664
2.8533724340175954
2.8719452590420333
2.8807429130009776
2.881720430107527
2.87683284457478
2.865102639296188
2.8475073313782997
2.8289345063538613
2.8084066471163247
2.782013685239492
2.7468230694037143
2.7038123167155423
2.653958944281525
2.595307917888563
2.5268817204301075
2.450635386119257
2.3685239491691106
2.29227761485826
2.2170087976539588
2.134897360703812
2.0498533724340176
1.9657869012707725
1.8866080156402736
1.8162267839687196
1.75366568914956
1.6979472140762464
1.6520039100684265
1.6138807429130009
1.5796676441837731
1.5503421309872922
1.5268817204301075
1.504398826979472
1.4809384164222874
1.455522971652004
1.4320625610948192
1.409579667644184
1.3851417399804498
1.3636363636363635
1.3440860215053765
1.3235581622678396
1.3020527859237536
1.2805474095796676
1.262952101661779
1.2482893450635386
1.2297165200391007
1.2209188660801564
1.2209188660801564
1.2160312805474096
1.206256109481916
1.195503421309873
1.1837732160312806
1.1691104594330402
1.152492668621701
1.1348973607038124
1.1202346041055715
1.1133919843597262
1.1124144672531768
1.118279569892473
1.1407624633431086
1.1857282502443791
1.2570869990224829
1.3558162267839686
1.478983382209189
1.6207233626588464
1.7732160312805474
1.927663734115347
2.074291300097752
2.1925708699902247
2.289345063538612
2.3822091886608017
2.463343108504399
2.5317693059628543
2.5855327468230693
2.622678396871945
2.6471163245356792
2.66177908113392
2.667644183773216
2.665689149560117
2.658846529814272
2.6471163245356792
2.6295210166177907
2.6070381231671558
2.579667644183773
2.544477028347996
2.501466275659824
2.450635386119257
2.3919843597262958
2.32355816226784
2.247311827956989
2.1652003910068425
2.0791788856304985
1.992179863147605
1.9159335288367547
1.8484848484848484
1.7810361681329423
1.7194525904203324
1.6656891495601174
1.6207233626588464
1.58455522971652
1.5571847507331378
1.533724340175953
1.5131964809384164
1.495601173020528
1.478005865102639
1.4652981427174976
1.4545454545454546
1.439882697947214
1.423264907135875
1.404692082111437
1.3870967741935485
1.3685239491691104
1.3509286412512218
1.335288367546432
1.3206256109481915
1.305962854349951
1.2913000977517106
1.2756598240469208
1.2649071358748778
1.2570869990224829
1.2482893450635386
1.2394916911045943
1.23069403714565
1.2218963831867058
1.2130987292277615
1.203323558162268
1.1945259042033236
1.1857282502443791
1.176930596285435
1.1671554252199414
1.1612903225806452
1.1583577712609971
