ppg
1.4965786901270772
1.4750733137829912
1.4496578690127078
1.4203323558162269
1.3870967741935485
1.3509286412512218
1.310850439882698
1.270772238514174
1.2365591397849462
1.2121212121212122
1.2072336265884651
1.2218963831867058
1.262952101661779
1.3450635386119256
1.469208211143695
1.6304985337243405
1.8162267839687196
2.0127077223851417
2.207233626588465
2.3851417399804498
2.532746823069404
2.643206256109482
2.716520039100684
2.7546432062561097
2.764418377321604
2.752688172043011
2.721407624633431
2.67644183773216
2.621700879765396
2.5610948191593352
2.495601173020528
2.4301075268817205
2.3655913978494625
2.304007820136853
2.244379276637341
2.185728250244379
2.1358748778103616
2.090909090909091
2.042033235581622
1.9902248289345064
1.9374389051808407
1.8856304985337244
1.8347996089931573
1.7849462365591398
1.7390029325513197
1.696969696969697
1.6627565982404693
1.6373411534701858
1.6236559139784943
1.6187683284457477
1.6207233626588464
1.6285434995112416
1.6383186705767352
1.6490713587487782
1.6588465298142718
1.6666666666666667
1.6705767350928642
1.6695992179863148
1.664711632453568
1.6608015640273706
1.6559139784946235
1.6480938416422288
1.6373411534701858
1.6187683284457477
1.5962854349951123
1.5718475073313782
1.5464320625610948
1.521016617790811
1.495601173020528
1.4682306940371457
1.4408602150537635
1.4134897360703813
1.3841642228739004
1.3587487781036167
1.3372434017595307
1.3147605083088951
1.303030303030303
1.3157380254154447
1.3607038123167154
1.4437927663734116
1.56891495601173
1.7282502443792769
1.9071358748778104
2.089931573802541
2.264907135874878
2.418377321603128
2.529814271749756
2.6050830889540566
2.659824046920821
2.6911045943304006
2.6989247311827955
2.6881720430107525
2.659824046920821
2.618768328445748
2.570869990224829
2.5190615835777126
2.464320625610948
2.407624633431085
2.356793743890518
2.310850439882698
2.260997067448681
2.210166177908113
2.1593352883675463
2.1094819159335287
2.06158357771261
2.0146627565982405
1.967741935483871
1.919843597262952
1.8729227761485825
1.828934506353861
1.7888563049853372
1.7565982404692082
1.7302052785923754
1.7038123167155426
1.683284457478006
1.6705767350928642
1.6627565982404693
1.6598240469208212
1.6608015640273706
1.6627565982404693
1.6666666666666667
1.6695992179863148
1.6695992179863148
1.6686217008797657
1.6666666666666667
1.6637341153470186
1.6588465298142718
1.6500488758553276
1.6373411534701858
1.6207233626588464
1.6001955034213098
1.576735092864125
1.5503421309872922
1.52297165200391
1.4965786901270772
1.4682306940371457
1.444770283479961
1.4222873900293256
1.3949169110459434
1.364613880742913
1.332355816226784
1.3020527859237536
1.2805474095796676
1.2766373411534702
1.300097751710655
1.3587487781036167
1.455522971652004
1.587487781036168
1.7233626588465298
1.8641251221896384
2.0283479960899315
2.1945259042033234
2.347018572825025
2.474095796676442
2.570869990224829
2.636363636363636
2.6725317693059627
2.6832844574780057
2.674486803519061
2.649071358748778
2.610948191593353
2.56891495601173
2.5239491691104594
2.4731182795698925
2.418377321603128
2.3626588465298144
2.30791788856305
2.254154447702835
2.2023460410557183
2.1515151515151514
2.101661779081134
2.053763440860215
2.006842619745845
1.9667644183773216
1.9315738025415443
1.8934506353861196
1.857282502443793
1.825024437927664
1.7986314760508308
1.780058651026393
1.76930596285435
1.7663734115347018
1.7702834799608993
1.7781036168132942
1.7869012707722385
1.7947214076246334
1.801564027370479
1.8093841642228736
1.81524926686217
1.8172043010752688
1.81524926686217
1.8074291300097751
1.7956989247311828
1.780058651026393
1.7605083088954057
1.7360703812316716
1.70772238514174
1.6774193548387095
1.6500488758553276
1.6256109481915937
1.5962854349951123
1.565982404692082
1.5366568914956011
1.5073313782991202
1.4760508308895406
1.4437927663734116
1.414467253176931
1.3949169110459434
1.392961876832845
1.4164222873900294
1.4604105571847508
1.530791788856305
1.643206256109482
1.790811339198436
1.9589442815249267
2.134897360703812
2.304985337243402
2.4565004887585533
2.5806451612903225
2.670576735092864
2.7282502443792764
2.755620723362659
2.757575757575758
2.740957966764418
2.710654936461388
2.668621700879765
2.616813294232649
2.5591397849462365
2.496578690127077
2.432062561094819
2.367546432062561
2.304007820136853
2.241446725317693
2.1808406647116323
2.12316715542522
2.074291300097752
2.0303030303030303
1.981427174975562
1.932551319648094
1.8826979472140764
1.836754643206256
1.7947214076246334
1.7575757575757576
1.7253176930596286
1.6979472140762464
1.6803519061583578
1.6715542521994136
1.6686217008797657
1.6695992179863148
1.672531769305963
1.6774193548387095
1.683284457478006
1.689149560117302
1.6930596285434996
1.694037145650049
1.6911045943304008
1.683284457478006
1.6715542521994136
1.6559139784946235
1.6363636363636365
1.6187683284457477
1.6011730205278591
1.5796676441837731
1.5581622678396871
1.5356793743890518
1.5112414467253177
1.4838709677419355
1.4535679374389052
1.4213098729227762
1.3861192570869991
1.3499511241446724
1.316715542521994
1.2942326490713587
1.2864125122189638
1.2981427174975562
1.3391984359726294
1.4164222873900294
1.533724340175953
1.6852394916911049
1.8592375366568916
2.043010752688172
2.222873900293255
2.3851417399804498
2.5190615835777126
2.618768328445748
2.679374389051808
2.708699902248289
2.717497556207233
2.704789833822092
2.674486803519061
2.631476050830889
2.579667644183773
2.5239491691104594
2.466275659824047
2.4086021505376345
2.350928641251222
2.2952101661779083
2.241446725317693
2.1945259042033234
2.1515151515151514
2.104594330400782
2.056695992179863
2.007820136852395
1.9589442815249267
1.9130009775171064
1.869012707722385
1.8269794721407624
1.7878787878787878
1.7517106549364614
1.7204301075268815
1.6959921798631477
1.6793743890518085
1.6695992179863148
1.6656891495601174
1.6656891495601174
1.6637341153470186
1.6598240469208212
1.6608015640273706
1.6627565982404693
1.6637341153470186
1.6627565982404693
1.6578690127077225
1.6500488758553276
1.6441837732160314
1.6373411534701858
1.624633431085044
1.607038123167155
1.58455522971652
1.5591397849462365
1.5327468230694037
1.5053763440860215
1.47702834799609
1.4467253176930597
1.414467253176931
1.380254154447703
1.3509286412512218
1.324535679374389
1.295210166177908
1.2727272727272727
1.2649071358748778
1.281524926686217
1.3313782991202343
1.418377321603128
1.541544477028348
1.6959921798631477
1.8699902248289344
2.046920821114369
2.2140762463343107
2.346041055718475
2.44672531769306
2.5317693059628543
2.590420332355816
2.621700879765396
2.6285434995112413
2.6148582600195502
2.5855327468230693
2.5454545454545454
2.498533724340176
2.447702834799609
2.3949169110459434
2.346041055718475
2.2991202346041058
2.2502443792766376
2.201368523949169
2.1524926686217007
2.102639296187683
2.0547409579667644
2.0087976539589443
1.963831867057673
1.9188660801564028
1.8729227761485825
1.828934506353861
1.7878787878787878
1.75366568914956
1.7253176930596286
1.6989247311827955
1.6764418377321604
1.6608015640273706
1.6520039100684265
1.6480938416422288
1.6480938416422288
1.6500488758553276
1.653958944281525
1.6598240469208212
1.6637341153470186
1.6656891495601174
1.6656891495601174
1.6608015640273706
1.653958944281525
1.6441837732160314
1.6314760508308896
1.616813294232649
1.5992179863147604
1.5777126099706744
1.5542521994134897
1.5278592375366569
1.498533724340176
1.4652981427174976
1.436950146627566
1.4134897360703813
1.3870967741935485
1.3577712609970674
1.321603128054741
1.2903225806451613
1.2727272727272727
1.2649071358748778
1.2766373411534702
1.3157380254154447
1.388074291300098
1.495601173020528
1.611925708699902
1.7360703812316716
1.8856304985337244
2.043010752688172
2.190615835777126
2.317693059628544
2.418377321603128
2.4887585532746823
2.5288367546432062
2.5434995112414467
2.535679374389052
2.509286412512219
2.474095796676442
2.4330400782013686
2.3841642228739004
2.3304007820136854
2.272727272727273
2.2140762463343107
2.156402737047898
2.099706744868035
2.046920821114369
1.997067448680352
1.949169110459433
1.903225806451613
1.858260019550342
1.818181818181818
1.782991202346041
1.7458455522971652
1.70772238514174
1.6705767350928642
1.6373411534701858
1.608993157380254
1.587487781036168
1.573802541544477
1.56891495601173
1.5728250244379276
1.5835777126099706
1.595307917888563
1.608993157380254
1.6217008797653958
1.632453567937439
1.640273704789834
1.6441837732160314
1.6451612903225807
1.6451612903225807
1.6422287390029326
1.635386119257087
1.624633431085044
1.6109481915933528
1.5943304007820136
1.5777126099706744
1.5610948191593352
1.5405669599217986
1.517106549364614
1.4916911045943304
1.466275659824047
1.4389051808406648
1.412512218963832
1.3851417399804498
1.3587487781036167
1.3362658846529814
1.324535679374389
1.3264907135874875
1.3479960899315735
1.3988269794721409
1.4838709677419355
1.6021505376344083
1.7458455522971652
1.9071358748778104
2.070381231671554
2.2218963831867056
2.3528836754643208
2.458455522971652
2.5347018572825024
2.579667644183773
2.5972629521016617
2.592375366568915
2.5718475073313782
2.536656891495601
2.4887585532746823
2.432062561094819
2.3714565004887587
2.3088954056695994
2.24633431085044
2.1847507331378297
2.1251221896383186
2.065493646138808
2.013685239491691
1.9687194525904204
1.9188660801564028
1.868035190615836
1.818181818181818
1.7702834799608993
1.7243401759530792
1.683284457478006
1.6480938416422288
1.619745845552297
1.5972629521016617
1.5826001955034212
1.5747800586510263
1.573802541544477
1.5786901270772238
1.5884652981427174
1.6001955034213098
1.6109481915933528
1.6207233626588464
1.6275659824046922
1.629521016617791
1.6275659824046922
1.6217008797653958
1.611925708699902
1.598240469208211
1.585532746823069
1.5708699902248289
1.5513196480938416
1.530791788856305
1.5083088954056696
1.482893450635386
1.455522971652004
1.4271749755620724
1.3900293255131966
1.3548387096774193
1.3294232649071358
1.300097751710655
1.2697947214076246
1.2482893450635386
1.2355816226783969
1.2326490713587488
1.2531769305962854
1.3049853372434017
1.392961876832845
1.5190615835777126
1.6764418377321604
1.8514173998044965
2.03128054740958
2.20039100684262
2.347018572825025
2.4545454545454546
2.527859237536657
2.581622678396872
2.610948191593353
2.616813294232649
2.601173020527859
2.5698924731182795
2.527859237536657
2.4780058651026398
2.4252199413489737
2.36950146627566
2.314760508308896
2.260997067448681
2.212121212121212
2.167155425219941
2.120234604105572
2.072336265884653
2.024437927663734
1.9765395894428155
1.9296187683284456
1.881720430107527
1.833822091886608
1.7888563049853372
1.7468230694037146
1.7204301075268815
1.7086999022482894
1.6950146627565983
1.6803519061583578
1.6686217008797657
1.6627565982404693
1.6627565982404693
1.6695992179863148
1.6793743890518085
1.6871945259042034
1.6930596285434996
1.696969696969697
1.6979472140762464
1.6950146627565983
1.6920821114369502
1.6881720430107527
1.6803519061583578
1.6695992179863148
1.6559139784946235
1.6383186705767352
1.616813294232649
1.5933528836754642
1.5679374389051808
1.5395894428152492
1.5112414467253177
1.4819159335288368
1.457478005865103
1.4349951124144673
1.4056695992179864
1.3724340175953078
1.3421309872922775
1.321603128054741
1.3186705767350928
1.343108504398827
1.4037145650048877
1.5063538611925709
1.6471163245356797
1.8162267839687196
2.0019550342130987
2.164222873900293
2.304985337243402
2.444770283479961
2.565982404692082
2.659824046920821
2.721407624633431
2.752688172043011
2.7595307917888565
2.745845552297165
2.716520039100684
2.675464320625611
2.624633431085044
2.572825024437928
2.5210166177908118
2.4652981427174976
2.409579667644184
2.35386119257087
2.300097751710655
2.249266862170088
2.198435972629521
2.1485826001955037
2.099706744868035
2.0518084066471163
2.005865102639296
1.9618768328445748
1.9237536656891496
1.8885630498533723
1.8523949169110456
1.818181818181818
1.7888563049853372
1.7644183773216031
1.7458455522971652
1.7331378299120237
1.726295210166178
1.7272727272727273
1.7341153470185728
1.7419354838709675
1.747800586510264
1.75366568914956
1.7575757575757576
1.758553274682307
1.7546432062561097
1.7458455522971652
1.7331378299120237
1.7174975562072337
1.699902248289345
1.6793743890518085
1.6559139784946235
1.6275659824046922
1.603128054740958
1.5826001955034212
1.5581622678396871
1.530791788856305
1.501466275659824
1.469208211143695
1.435972629521017
1.4027370478983383
1.3724340175953078
1.3519061583577712
1.348973607038123
1.3734115347018572
1.4349951124144673
1.5180840664711632
1.6256109481915937
1.7761485826001957
1.95405669599218
2.142717497556207
2.326490713587488
2.4916911045943304
2.6265884652981426
2.7262952101661777
2.792766373411535
2.8289345063538613
2.8367546432062563
2.823069403714565
2.7966764418377323
2.757575757575758
2.708699902248289
2.652003910068426
2.591397849462365
2.5288367546432062
2.464320625610948
2.40078201368524
2.3411534701857284
2.283479960899316
2.2267839687194524
2.1710654936461387
2.121212121212121
2.075268817204301
2.026392961876833
1.975562072336266
1.9257086999022484
1.8797653958944285
1.8377321603128052
1.8005865102639296
1.7683284457478006
1.7409579667644184
1.721407624633431
1.710654936461388
1.7067448680351909
1.7067448680351909
1.7096774193548387
1.7135874877810362
1.7194525904203324
1.7243401759530792
1.726295210166178
1.7253176930596286
1.7223851417399805
1.718475073313783
1.710654936461388
1.699902248289345
1.6842619745845553
1.6695992179863148
1.653958944281525
1.6334310850439884
1.6080156402737047
1.5786901270772238
1.5493646138807429
1.520039100684262
1.490713587487781
1.4604105571847508
1.4301075268817205
1.3978494623655917
1.3655913978494625
1.3411534701857282
1.324535679374389
1.3157380254154447
1.327468230694037
1.3685239491691104
1.444770283479961
1.5571847507331378
1.7018572825024438
1.870967741935484
2.0498533724340176
2.225806451612903
2.3870967741935485
2.5239491691104594
2.621700879765396
2.686217008797654
2.732160312805474
2.7565982404692084
2.758553274682307
2.7419354838709675
2.708699902248289
2.664711632453568
2.6129032258064515
2.5562072336265884
2.498533724340176
2.4408602150537635
2.389051808406647
2.3411534701857284
2.2883675464320627
2.232649071358749
2.175953079178885
2.120234604105572
2.064516129032258
2.0097751710654936
1.9579667644183771
1.9100684261974583
1.8670576735092863
1.8299120234604105
1.7996089931573802
1.7790811339198436
1.7663734115347018
1.761485826001955
1.7644183773216031
1.772238514173998
1.7820136852394917
1.793743890518084
1.804496578690127
1.8132942326490715
1.818181818181818
1.8172043010752688
1.8113391984359728
1.804496578690127
1.7947214076246334
1.7732160312805474
1.7517106549364614
1.7350928641251222
1.7135874877810362
1.6901270772238517
1.664711632453568
1.6363636363636365
1.606060606060606
1.5757575757575757
1.5454545454545454
1.5161290322580645
1.490713587487781
1.466275659824047
1.4379276637341154
1.4115347018572826
1.392961876832845
1.392961876832845
1.4213098729227762
1.4868035190615836
1.5943304007820136
1.7380254154447703
1.90811339198436
2.09188660801564
2.2521994134897363
2.3900293255131966
2.5249266862170088
2.6392961876832843
2.7223851417399803
2.774193548387097
2.7947214076246336
2.787878787878788
2.760508308895406
2.719452590420332
2.667644183773216
2.608993157380254
2.5454545454545454
2.486803519061584
2.4301075268817205
2.3704789833822093
2.310850439882698
2.2521994134897363
2.172043010752688
2.0821114369501466
2.010752688172043
1.9501466275659824
1.895405669599218
1.8435972629521016
1.793743890518084
1.7526881720430108
1.718475073313783
1.6842619745845553
1.653958944281525
1.6304985337243405
1.6148582600195502
1.607038123167155
1.606060606060606
1.6109481915933528
1.6177908113391983
1.6256109481915937
1.632453567937439
1.6383186705767352
1.6422287390029326
1.643206256109482
1.6392961876832846
1.632453567937439
1.6226783968719452
1.6099706744868034
1.5943304007820136
1.5747800586510263
1.5532746823069403
1.5288367546432062
1.5024437927663734
1.4750733137829912
1.4516129032258065
1.4271749755620724
1.396871945259042
1.3626588465298142
1.3255131964809383
1.289345063538612
1.2580645161290325
1.2365591397849462
1.2336265884652982
1.2570869990224829
1.3147605083088951
1.4115347018572826
1.521016617790811
1.6471163245356797
1.8064516129032255
1.9794721407624636
2.1485826001955037
2.300097751710655
2.426197458455523
2.5210166177908118
2.582600195503421
2.6129032258064515
2.616813294232649
2.5992179863147604
2.5669599217986314
2.527859237536657
2.4838709677419355
2.432062561094819
2.378299120234604
2.32355816226784
2.269794721407625
2.2170087976539588
2.167155425219941
2.1192570869990224
2.0733137829912023
2.029325513196481
1.9843597262952104
1.9442815249266865
1.906158357771261
1.865102639296188
1.823069403714565
1.7820136852394917
1.7429130009775171
1.70772238514174
1.6764418377321604
1.6520039100684265
1.635386119257087
1.6285434995112416
1.6275659824046922
1.6304985337243405
1.6363636363636365
1.6441837732160314
1.651026392961877
1.6529814271749756
1.651026392961877
1.6412512218963833
1.629521016617791
1.6187683284457477
1.603128054740958
1.5777126099706744
1.552297165200391
1.533724340175953
1.517106549364614
1.5024437927663734
1.4838709677419355
1.4613880742913
1.435972629521017
1.4105571847507332
1.383186705767351
1.35386119257087
1.3225806451612905
1.2913000977517106
1.2649071358748778
1.2502443792766371
1.2551319648093842
1.278592375366569
1.3264907135874875
1.4115347018572826
1.5796676441837731
1.7546432062561097
1.8885630498533723
2.043010752688172
2.218963831867057
2.3655913978494625
2.453567937438905
2.520039100684262
2.555229716520039
2.560117302052786
2.5562072336265884
2.544477028347996
2.506353861192571
2.4516129032258065
2.39980449657869
2.347996089931574
2.294232649071359
2.241446725317693
2.189638318670577
2.139784946236559
2.0928641251221896
2.0527859237536656
2.016617790811339
1.9765395894428155
1.9345063538611929
1.8934506353861196
1.8504398826979471
1.8054740957966764
1.7634408602150538
1.7233626588465298
1.6871945259042034
1.6627565982404693
1.6451612903225807
1.632453567937439
1.6265884652981428
1.6236559139784943
1.6256109481915937
1.6304985337243405
1.6334310850439884
1.6344086021505375
1.635386119257087
1.6334310850439884
1.6314760508308896
1.6285434995112416
1.6226783968719452
1.6138807429130009
1.6041055718475072
1.5923753665689149
1.573802541544477
1.552297165200391
1.5288367546432062
1.5024437927663734
1.4750733137829912
1.4467253176930597
1.41544477028348
1.3841642228739004
1.3519061583577712
1.3196480938416422
1.2932551319648091
1.273704789833822
1.2609970674486803
1.262952101661779
1.2883675464320623
1.3450635386119256
1.435972629521017
1.5610948191593352
1.7116324535679377
1.8778103616813293
2.0439882697947214
2.1974584555229715
2.329423264907136
2.423264907135875
2.4858260019550342
2.5288367546432062
2.547409579667644
2.5425219941348973
2.520039100684262
2.4838709677419355
2.439882697947214
2.3900293255131966
2.3382209188660803
2.2854349951124147
2.233626588465298
2.188660801564027
2.1485826001955037
2.1065493646138806
2.06158357771261
2.016617790811339
1.9716520039100685
1.9286412512218964
1.884652981427175
1.8377321603128052
1.790811339198436
1.7458455522971652
1.7028347996089932
1.6637341153470186
1.6334310850439884
1.608993157380254
1.585532746823069
1.565982404692082
1.552297165200391
1.5454545454545454
1.544477028347996
1.5483870967741935
1.5542521994134897
1.560117302052786
1.564027370478983
1.565982404692082
1.5669599217986314
1.565982404692082
1.560117302052786
1.5503421309872922
1.5356793743890518
1.5180840664711632
1.499511241446725
1.478005865102639
1.4535679374389052
1.4291300097751711
1.404692082111437
1.3812316715542523
1.3587487781036167
1.3401759530791788
1.3235581622678396
1.303030303030303
1.2795698924731185
1.2561094819159335
1.2355816226783969
1.2218963831867058
1.2238514173998043
1.2502443792766371
1.3079178885630498
1.3998044965786902
1.52297165200391
1.64613880742913
1.772238514173998
1.9178885630498532
2.06158357771261
2.1915933528836757
2.2991202346041058
2.3822091886608017
2.439882697947214
2.472140762463343
2.482893450635386
2.4750733137829912
2.450635386119257
2.4389051808406648
2.432062561094819
2.398826979472141
2.3519061583577714
2.2981427174975564
2.243401759530792
2.190615835777126
2.139784946236559
2.090909090909091
2.0439882697947214
1.9980449657869013
1.9521016617790807
1.903225806451613
1.8621700879765395
1.827956989247312
1.7917888563049853
1.7575757575757576
1.7282502443792769
1.70772238514174
1.6950146627565983
1.6911045943304008
1.694037145650049
1.7018572825024438
1.7116324535679377
1.7233626588465298
1.7331378299120237
1.7409579667644184
1.7468230694037146
1.750733137829912
1.7517106549364614
1.747800586510264
1.7380254154447703
1.7233626588465298
1.7028347996089932
1.6803519061583578
1.6549364613880744
1.6265884652981428
1.5972629521016617
1.573802541544477
1.5532746823069403
1.5288367546432062
1.5034213098729228
1.4750733137829912
1.447702834799609
1.4193548387096775
1.3890518084066472
1.3616813294232648
1.3411534701857282
1.3362658846529814
1.356793743890518
1.3978494623655917
1.4643206256109482
1.5698924731182795
1.7096774193548387
1.870967741935484
2.040078201368524
2.204301075268817
2.3519061583577714
2.4731182795698925
2.563049853372434
2.621700879765396
2.650048875855328
2.6510263929618767
2.634408602150537
2.606060606060606
2.5640273704789838
2.5141739980449658
2.4594330400782014
2.4027370478983383
2.3440860215053765
2.2854349951124147
2.2267839687194524
2.16911045943304
2.112414467253177
2.056695992179863
2.0087976539589443
1.9667644183773216
1.9227761485826005
1.878787878787879
1.836754643206256
1.796676441837732
1.7575757575757576
1.7223851417399805
1.6930596285434996
1.6695992179863148
1.6529814271749756
1.6422287390029326
1.6392961876832846
1.6412512218963833
1.6471163245356797
1.653958944281525
1.66177908113392
1.6686217008797657
1.6735092864125125
1.6744868035190617
1.6715542521994136
1.664711632453568
1.653958944281525
1.640273704789834
1.6256109481915937
1.6129032258064515
1.5992179863147604
1.5806451612903225
1.5610948191593352
1.5386119257087
1.512218963831867
1.4838709677419355
1.455522971652004
1.4252199413489737
1.392961876832845
1.3587487781036167
1.3264907135874875
1.3010752688172045
1.2903225806451613
1.2991202346041055
1.3333333333333333
1.401759530791789
1.509286412512219
1.6529814271749756
1.8240469208211143
2.0087976539589443
2.190615835777126
2.3548387096774195
2.489736070381232
2.591397849462365
2.654936461388074
2.687194525904203
2.699902248289345
2.6930596285435
2.668621700879765
2.63049853372434
2.582600195503421
2.529814271749756
2.4731182795698925
2.4164222873900294
2.3626588465298144
2.310850439882698
2.260019550342131
2.217986314760508
2.1788856304985336
2.1358748778103616
2.09188660801564
2.04594330400782
2.0
1.9530791788856303
1.906158357771261
1.8631476050830889
1.823069403714565
1.7878787878787878
1.7575757575757576
1.7360703812316716
1.7204301075268815
1.7086999022482894
1.7028347996089932
1.7018572825024438
1.7038123167155426
1.7067448680351909
1.710654936461388
1.7126099706744868
1.7116324535679377
1.7067448680351909
1.6989247311827955
1.689149560117302
1.6803519061583578
1.6705767350928642
1.656891495601173
1.640273704789834
1.6187683284457477
