ppg
2.989247311827957
3.04594330400782
3.083088954056696
3.102639296187683
3.1055718475073317
3.093841642228739
3.0684261974584555
3.027370478983382
2.970674486803519
2.8993157380254155
2.8181818181818183
2.7311827956989245
2.644183773216031
2.5610948191593352
2.482893450635386
2.410557184750733
2.3440860215053765
2.2825024437927666
2.231671554252199
2.187683284457478
2.1436950146627565
2.102639296187683
2.0664711632453567
2.034213098729228
2.007820136852395
1.986314760508309
1.9687194525904204
1.9530791788856303
1.9374389051808407
1.920821114369501
1.905180840664712
1.8885630498533723
1.8670576735092863
1.842619745845552
1.81524926686217
1.7888563049853372
1.761485826001955
1.7341153470185728
1.7067448680351909
1.6793743890518085
1.6520039100684265
1.6236559139784943
1.5943304007820136
1.5698924731182795
1.5493646138807429
1.5268817204301075
1.5053763440860215
1.4858260019550342
1.469208211143695
1.4545454545454546
1.4408602150537635
1.4271749755620724
1.412512218963832
1.396871945259042
1.3822091886608017
1.375366568914956
1.383186705767351
1.414467253176931
1.479960899315738
1.5884652981427174
1.7409579667644184
1.9315738025415443
2.146627565982405
2.3685239491691106
2.579667644183773
2.7653958944281527
2.918866080156403
3.038123167155425
3.117302052785924
3.166177908113392
3.204301075268817
3.2297165200391005
3.2404692082111435
3.2375366568914954
3.2170087976539588
3.179863147605083
3.1300097751710654
3.067448680351906
2.995112414467253
2.913000977517106
2.831867057673509
2.748778103616813
2.6559139784946235
2.560117302052786
2.466275659824047
2.378299120234604
2.2991202346041058
2.231671554252199
2.174975562072336
2.129032258064516
2.059628543499511
1.981427174975562
1.932551319648094
1.9012707722385145
1.878787878787879
1.8592375366568916
1.8416422287390029
1.823069403714565
1.8035190615835777
1.782991202346041
1.7595307917888563
1.7341153470185728
1.70772238514174
1.6793743890518085
1.6500488758553276
1.6256109481915937
1.6041055718475072
1.5786901270772238
1.5532746823069403
1.5278592375366569
1.5024437927663734
1.47702834799609
1.452590420332356
1.43108504398827
1.4105571847507332
1.391006842619746
1.3734115347018572
1.359726295210166
1.3470185728250244
1.327468230694037
1.303030303030303
1.2766373411534702
1.249266862170088
1.2258064516129032
1.2140762463343109
1.227761485826002
1.2766373411534702
1.367546432062561
1.5024437927663734
1.6735092864125125
1.8406647116324533
2.003910068426197
2.1837732160312804
2.3548387096774195
2.5024437927663734
2.618768328445748
2.704789833822092
2.764418377321604
2.801564027370479
2.820136852394917
2.8240469208211145
2.814271749755621
2.793743890518084
2.7624633431085046
2.717497556207233
2.6608015640273703
2.592375366568915
2.5161290322580645
2.4330400782013686
2.345063538611926
2.2551319648093844
2.167155425219941
2.083088954056696
2.005865102639296
1.9364613880742916
1.881720430107527
1.8377321603128052
1.796676441837732
1.7595307917888563
1.726295210166178
1.696969696969697
1.6686217008797657
1.6412512218963833
1.6148582600195502
1.5894428152492668
1.564027370478983
1.5386119257087
1.5161290322580645
1.4946236559139785
1.4682306940371457
1.4408602150537635
1.412512218963832
1.3841642228739004
1.3558162267839686
1.3284457478005864
1.3040078201368523
1.281524926686217
1.260019550342131
1.238514173998045
1.2179863147605083
1.2023460410557183
1.1896383186705768
1.173998044965787
1.1564027370478984
1.13880742913001
1.121212121212121
1.1026392961876832
1.0840664711632453
1.064516129032258
1.04594330400782
1.0312805474095796
1.0263929618768328
1.0361681329423265
1.0694037145650048
1.1378299120234605
1.24633431085044
1.3949169110459434
1.5747800586510263
1.772238514173998
1.9696969696969695
2.150537634408602
2.303030303030303
2.4222873900293256
2.509286412512219
2.567937438905181
2.60019550342131
2.6129032258064515
2.6158357771261
2.6070381231671558
2.5865102639296187
2.5542521994134897
2.5102639296187683
2.455522971652004
2.3919843597262958
2.321603128054741
2.24633431085044
2.16911045943304
2.1006842619745845
2.0391006842619745
1.9745845552297163
1.9130009775171064
1.857282502443793
1.8103616813294232
1.772238514173998
1.7409579667644184
1.7165200391006843
1.696969696969697
1.6823069403714566
1.6705767350928642
1.6598240469208212
1.651026392961877
1.643206256109482
1.632453567937439
1.619745845552297
1.607038123167155
1.5933528836754642
1.5777126099706744
1.560117302052786
1.541544477028348
1.521994134897361
1.501466275659824
1.479960899315738
1.4633431085043989
1.4486803519061584
1.4320625610948192
1.414467253176931
1.3958944281524928
1.3782991202346042
1.3616813294232648
1.3450635386119256
1.3284457478005864
1.3128054740957966
1.2961876832844574
1.2805474095796676
1.2668621700879763
1.2570869990224829
1.2482893450635386
1.238514173998045
1.2365591397849462
1.249266862170088
1.2864125122189638
1.3587487781036167
1.4701857282502444
1.6177908113391983
1.7927663734115349
1.9794721407624636
2.163245356793744
2.3118279569892475
2.429130009775171
2.535679374389052
2.619745845552297
2.681329423264907
2.721407624633431
2.742913000977517
2.750733137829912
2.7468230694037143
2.730205278592375
2.699902248289345
2.6559139784946235
2.601173020527859
2.5425219941348973
2.4789833822091887
2.404692082111437
2.32355816226784
2.239491691104594
2.156402737047898
2.0772238514174
2.003910068426197
1.9374389051808407
1.8797653958944285
1.83088954056696
1.7898338220918866
1.758553274682307
1.7341153470185728
1.710654936461388
1.6901270772238517
1.672531769305963
1.6559139784946235
1.640273704789834
1.624633431085044
1.608993157380254
1.5943304007820136
1.576735092864125
1.5562072336265884
1.5347018572825024
1.5161290322580645
1.499511241446725
1.479960899315738
1.4594330400782014
1.4389051808406648
1.4173998044965788
1.3949169110459434
1.3724340175953078
1.3509286412512218
1.3294232649071358
1.3079178885630498
1.2864125122189638
1.2697947214076246
1.2561094819159335
1.2394916911045943
1.2218963831867058
1.203323558162268
1.18475073313783
1.166177908113392
1.1495601173020529
1.1397849462365592
1.1456500488758554
1.1759530791788857
1.238514173998045
1.3391984359726294
1.452590420332356
1.5826001955034212
1.7468230694037146
1.9257086999022484
2.1006842619745845
2.2580645161290325
2.391006842619746
2.495601173020528
2.5747800586510263
2.631476050830889
2.6695992179863146
2.6901270772238512
2.695014662756598
2.686217008797654
2.6666666666666665
2.636363636363636
2.627565982404692
2.622678396871945
2.581622678396872
2.5180840664711632
2.441837732160313
2.358748778103617
2.272727272727273
2.188660801564027
2.1163245356793743
2.0518084066471163
1.986314760508309
1.9257086999022484
1.870967741935484
1.8240469208211143
1.7839687194525904
1.750733137829912
1.7223851417399805
1.6979472140762464
1.6764418377321604
1.656891495601173
1.6373411534701858
1.6217008797653958
1.607038123167155
1.5894428152492668
1.5698924731182795
1.5483870967741935
1.5249266862170088
1.501466275659824
1.47702834799609
1.452590420332356
1.4281524926686218
1.404692082111437
1.3812316715542523
1.3626588465298142
1.3470185728250244
1.327468230694037
1.305962854349951
1.2854349951124144
1.2649071358748778
1.2443792766373412
1.2238514173998043
1.203323558162268
1.1827956989247312
1.160312805474096
1.1378299120234605
1.1192570869990224
1.1085043988269794
1.1094819159335287
1.1270772238514175
1.1730205278592376
1.2551319648093842
1.3773216031280548
1.5356793743890518
1.7194525904203324
1.9130009775171064
2.099706744868035
2.2658846529814274
2.404692082111437
2.5034213098729228
2.570869990224829
2.6236559139784945
2.658846529814272
2.679374389051808
2.687194525904203
2.6803519061583576
2.6608015640273703
2.627565982404692
2.5806451612903225
2.5210166177908118
2.450635386119257
2.3714565004887587
2.2952101661779083
2.219941348973607
2.136852394916911
2.050830889540567
1.967741935483871
1.8914956011730208
1.8240469208211143
1.7644183773216031
1.7135874877810362
1.6715542521994136
1.6363636363636365
1.606060606060606
1.5835777126099706
1.565982404692082
1.5483870967741935
1.5288367546432062
1.5073313782991202
1.4858260019550342
1.4643206256109482
1.4408602150537635
1.41544477028348
1.391006842619746
1.3655913978494625
1.33822091886608
1.3118279569892473
1.29227761485826
1.2756598240469208
1.2541544477028348
1.23069403714565
1.206256109481916
1.1827956989247312
1.1593352883675463
1.1358748778103618
1.1124144672531768
1.0909090909090908
1.0694037145650048
1.0488758553274682
1.0332355816226784
1.0195503421309873
1.0009775171065494
0.9794721407624634
0.9560117302052786
0.9335288367546432
0.9188660801564028
0.9227761485826002
0.95405669599218
1.021505376344086
1.1300097751710656
1.278592375366569
1.456500488758553
1.6217008797653958
1.7771260997067448
1.9393939393939397
2.0879765395894427
2.2111436950146626
2.304007820136853
2.36950146627566
2.412512218963832
2.4359726295210167
2.443792766373412
2.4389051808406648
2.421309872922776
2.3958944281524928
2.361681329423265
2.312805474095797
2.2531769305962857
2.185728250244379
2.1114369501466275
2.0332355816226784
1.9550342130987293
1.878787878787879
1.8064516129032255
1.739980449657869
1.6813294232649072
1.6314760508308896
1.595307917888563
1.56891495601173
1.547409579667644
1.530791788856305
1.5190615835777126
1.5112414467253177
1.5073313782991202
1.504398826979472
1.501466275659824
1.495601173020528
1.4868035190615836
1.4750733137829912
1.466275659824047
1.457478005865103
1.4428152492668622
1.426197458455523
1.409579667644184
1.392961876832845
1.3773216031280548
1.3616813294232648
1.3450635386119256
1.327468230694037
1.310850439882698
1.2961876832844574
1.2834799608993157
1.2766373411534702
1.2717497556207231
1.2649071358748778
1.2580645161290325
1.2502443792766371
1.241446725317693
1.2297165200391007
1.217008797653959
1.2052785923753666
1.2013685239491692
1.2130987292277615
1.2512218963831867
1.3098729227761483
1.396871945259042
1.5298142717497556
1.6989247311827955
1.889540566959922
2.085043988269794
2.2668621700879767
2.4242424242424243
2.5513196480938416
2.64613880742913
2.7116324535679373
2.7536656891495603
2.774193548387097
2.777126099706745
2.7653958944281527
2.744868035190616
2.713587487781036
2.6725317693059627
2.622678396871945
2.5650048875855327
2.4995112414467253
2.426197458455523
2.3489736070381237
2.2688172043010755
2.189638318670577
2.121212121212121
2.0635386119257086
2.006842619745845
1.95405669599218
1.90811339198436
1.870967741935484
1.8416422287390029
1.818181818181818
1.7996089931573802
1.7849462365591398
1.7732160312805474
1.7624633431085044
1.7517106549364614
1.7419354838709675
1.7331378299120237
1.7204301075268815
1.7038123167155426
1.6842619745845553
1.6627565982404693
1.6392961876832846
1.6138807429130009
1.587487781036168
1.5620723362658846
1.5366568914956011
1.5112414467253177
1.4916911045943304
1.474095796676442
1.4535679374389052
1.43108504398827
1.4076246334310851
1.3870967741935485
1.3685239491691104
1.3528836754643203
1.3391984359726294
1.324535679374389
1.3088954056695992
1.29227761485826
1.281524926686217
1.2756598240469208
1.2746823069403714
1.289345063538612
1.332355816226784
1.4115347018572826
1.530791788856305
1.6871945259042034
1.871945259042033
2.069403714565005
2.2629521016617797
2.487781036168133
2.7126099706744866
2.8611925708699903
2.9589442815249267
3.035190615835777
3.090909090909091
3.1280547409579667
3.1485826001955037
3.1524926686217007
3.1407624633431084
3.114369501466276
3.0733137829912023
3.018572825024438
2.9530791788856305
2.886608015640274
2.817204301075269
2.7370478983382207
2.6510263929618767
2.5650048875855327
2.4809384164222874
2.401759530791789
2.3284457478005867
2.2639296187683287
2.207233626588465
2.160312805474096
2.121212121212121
2.0879765395894427
2.0625610948191597
2.042033235581622
2.022482893450636
2.003910068426197
1.986314760508309
1.9696969696969695
1.95405669599218
1.9364613880742916
1.916911045943304
1.8973607038123168
1.8778103616813293
1.8563049853372435
1.836754643206256
1.8162267839687196
1.7927663734115349
1.7663734115347018
1.739980449657869
1.7126099706744868
1.6852394916911049
1.656891495601173
1.6285434995112416
1.6011730205278591
1.5747800586510263
1.5493646138807429
1.525904203323558
1.509286412512219
1.495601173020528
1.47702834799609
1.455522971652004
1.434017595307918
1.418377321603128
1.414467253176931
1.434017595307918
1.4868035190615836
1.5826001955034212
1.7233626588465298
1.902248289345064
2.0791788856304985
2.254154447702835
2.450635386119257
2.6422287390029324
2.814271749755621
2.9550342130987293
3.064516129032258
3.144672531769306
3.20039100684262
3.236559139784946
3.254154447702835
3.2551319648093844
3.2404692082111435
3.2130987292277613
3.1730205278592374
3.1192570869990224
3.0527859237536656
2.9765395894428157
2.8914956011730206
2.80058651026393
2.708699902248289
2.616813294232649
2.527859237536657
2.443792766373412
2.367546432062561
2.3059628543499517
2.2551319648093844
2.210166177908113
2.1710654936461387
2.1378299120234603
2.1094819159335287
2.085043988269794
2.064516129032258
2.0449657869012707
2.024437927663734
2.0019550342130987
1.9794721407624636
1.95405669599218
1.9305962854349952
1.9071358748778104
1.881720430107527
1.8563049853372435
1.8299120234604105
1.8054740957966764
1.782991202346041
1.7605083088954057
1.7380254154447703
1.7165200391006843
1.694037145650049
1.6705767350928642
1.651026392961877
1.6334310850439884
1.6129032258064515
1.5913978494623655
1.56891495601173
1.5454545454545454
1.521016617790811
1.495601173020528
1.4682306940371457
1.4408602150537635
1.4193548387096775
1.412512218963832
1.4301075268817205
1.4701857282502444
1.542521994134897
1.6627565982404693
1.828934506353861
2.0303030303030303
2.247311827956989
2.4604105571847508
2.654936461388074
2.819159335288368
2.949169110459433
3.04594330400782
3.113391984359726
3.1515151515151514
3.1681329423264906
3.174975562072336
3.1700879765395893
3.15347018572825
3.12316715542522
3.0772238514174
3.0175953079178885
2.9442815249266863
2.860215053763441
2.7673509286412514
2.668621700879765
2.567937438905181
2.4780058651026398
2.3958944281524928
2.312805474095797
2.2346041055718477
2.1652003910068425
2.1065493646138806
2.059628543499511
2.021505376344086
1.9902248289345064
1.962854349951124
1.9364613880742916
1.9100684261974583
1.8885630498533723
1.868035190615836
1.842619745845552
1.8142717497556209
1.7839687194525904
1.7517106549364614
1.7194525904203324
1.686217008797654
1.6529814271749756
1.6217008797653958
1.5923753665689149
1.563049853372434
1.5356793743890518
1.5151515151515151
1.4975562072336266
1.47702834799609
1.455522971652004
1.4330400782013686
1.412512218963832
1.3919843597262953
1.3714565004887584
1.3519061583577712
1.3313782991202343
1.3118279569892473
1.2932551319648091
1.2795698924731185
1.2697947214076246
1.2609970674486803
1.2649071358748778
1.295210166177908
1.3626588465298142
1.4750733137829912
1.6334310850439884
1.828934506353861
2.046920821114369
2.269794721407625
2.4789833822091887
2.6422287390029324
2.7653958944281527
2.8729227761485827
2.956011730205278
3.013685239491691
3.047898338220919
3.0625610948191597
3.060606060606061
3.0449657869012707
3.016617790811339
2.9745845552297165
2.920821114369501
2.855327468230694
2.788856304985337
2.721407624633431
2.6451612903225805
2.565982404692082
2.486803519061584
2.4086021505376345
2.3362658846529816
2.271749755620724
2.2170087976539588
2.172043010752688
2.134897360703812
2.1065493646138806
2.0879765395894427
2.0762463343108504
2.0684261974584555
2.0625610948191597
2.0576735092864125
2.0518084066471163
2.0439882697947214
2.03128054740958
2.013685239491691
1.991202346041056
1.964809384164223
1.9345063538611929
1.9042033235581624
1.8807429130009776
1.86119257086999
1.8387096774193548
1.8162267839687196
1.793743890518084
1.7712609970674489
1.7468230694037146
1.7204301075268815
1.6930596285434996
1.6637341153470186
1.6344086021505375
1.6080156402737047
1.5884652981427174
1.5728250244379276
1.5571847507331378
1.5395894428152492
1.521994134897361
1.4428152492668622
1.3391984359726294
1.2981427174975562
1.3069403714565004
1.3665689149560116
1.4809384164222874
1.6451612903225807
1.8504398826979471
2.046920821114369
2.2355816226783967
2.4408602150537635
2.635386119257087
2.801564027370479
2.932551319648094
3.0283479960899315
3.09188660801564
3.1300097751710654
3.146627565982405
3.144672531769306
3.126099706744868
3.093841642228739
3.0498533724340176
2.992179863147605
2.920821114369501
2.8367546432062563
2.7438905180840663
2.6451612903225805
2.5425219941348973
2.4389051808406648
2.3391984359726297
2.24633431085044
2.1622678396871944
2.088954056695992
2.03128054740958
1.9833822091886608
1.9403714565004888
1.903225806451613
1.871945259042033
1.844574780058651
1.8211143695014664
1.8005865102639296
1.7810361681329423
1.761485826001955
1.7409579667644184
1.7204301075268815
1.7018572825024438
1.6823069403714566
1.6588465298142718
1.6344086021505375
1.6099706744868034
1.585532746823069
1.5610948191593352
1.5356793743890518
1.509286412512219
1.4809384164222874
1.4506353861192571
1.4213098729227762
1.393939393939394
1.3724340175953078
1.3548387096774193
1.335288367546432
1.316715542521994
1.2991202346041055
1.2805474095796676
1.2609970674486803
1.2404692082111437
1.2179863147605083
1.195503421309873
1.1779081133919844
1.176930596285435
1.195503421309873
1.2453567937438903
1.3411534701857282
1.487781036168133
1.6803519061583578
1.906158357771261
2.145650048875855
2.3792766373411536
2.590420332355816
2.768328445747801
2.90811339198436
3.0117302052785924
3.0840664711632453
3.124144672531769
3.1417399804496577
3.1495601173020527
3.145650048875855
3.1270772238514173
3.0948191593352883
3.046920821114369
2.983382209188661
2.905180840664712
2.8152492668621703
2.716520039100684
2.610948191593353
2.5141739980449658
2.4242424242424243
2.3284457478005867
2.2346041055718477
2.146627565982405
2.069403714565005
2.002932551319648
1.946236559139785
1.8983382209188664
1.858260019550342
1.823069403714565
1.7917888563049853
1.7624633431085044
1.7380254154447703
1.7174975562072337
1.6930596285434996
1.667644183773216
1.6441837732160314
1.6207233626588464
1.5972629521016617
1.5728250244379276
1.5483870967741935
1.521994134897361
1.495601173020528
1.469208211143695
1.447702834799609
1.4291300097751711
1.4056695992179864
1.380254154447703
1.3548387096774193
1.3294232649071358
1.3040078201368523
1.278592375366569
1.2541544477028348
1.23069403714565
1.2072336265884651
1.1827956989247312
1.1583577712609971
1.1378299120234605
1.1202346041055715
1.1016617790811338
1.0918866080156402
1.104594330400782
1.1534701857282503
1.2482893450635386
1.393939393939394
1.58455522971652
1.8074291300097751
2.043010752688172
2.270772238514174
2.4516129032258065
2.592375366568915
2.718475073313783
2.81622678396872
2.8856304985337244
2.9286412512218964
2.948191593352884
2.9501466275659824
2.936461388074292
2.9071358748778104
2.863147605083089
2.8054740957966766
2.735092864125122
2.662756598240469
2.5865102639296187
2.498533724340176
2.40078201368524
2.2981427174975564
2.1945259042033234
2.0948191593352883
2.0
1.9130009775171064
1.836754643206256
1.7702834799608993
1.7145650048875856
1.6715542521994136
1.6373411534701858
1.6041055718475072
1.5718475073313782
1.541544477028348
1.512218963831867
1.482893450635386
1.4545454545454546
1.4252199413489737
1.3958944281524928
1.3665689149560116
1.33822091886608
1.3157380254154447
1.2942326490713587
1.267839687194526
1.2394916911045943
1.2101661779081134
1.1808406647116323
1.1515151515151516
1.121212121212121
1.0918866080156402
1.064516129032258
1.0381231671554252
1.0127077223851415
0.989247311827957
0.9726295210166178
0.959921798631476
0.9433040078201368
0.9227761485826002
0.8993157380254154
0.8748778103616813
0.8504398826979472
0.8289345063538612
0.8142717497556208
0.8172043010752689
0.8504398826979472
0.9257086999022482
1.0263929618768328
1.160312805474096
1.3499511241446724
1.576735092864125
1.8201368523949168
2.058651026392962
2.271749755620724
2.44672531769306
2.579667644183773
2.673509286412512
2.7341153470185726
2.7673509286412514
2.7781036168132944
2.771260997067449
2.7517106549364616
2.720430107526881
2.67644183773216
2.621700879765396
2.557184750733138
2.482893450635386
2.39980449657869
2.30791788856305
2.212121212121212
2.1163245356793743
2.024437927663734
1.948191593352884
1.884652981427175
1.823069403714565
1.7712609970674489
1.7302052785923754
1.6989247311827955
1.675464320625611
1.6588465298142718
1.64613880742913
1.6363636363636365
1.6275659824046922
1.6207233626588464
1.6129032258064515
1.606060606060606
1.5972629521016617
1.5826001955034212
1.564027370478983
1.543499511241447
1.52297165200391
1.500488758553275
1.4750733137829912
1.4486803519061584
1.4213098729227762
1.3919843597262953
1.392961876832845
1.414467253176931
1.418377321603128
1.4105571847507332
1.3978494623655917
1.383186705767351
1.367546432062561
1.35386119257087
1.3411534701857282
1.3294232649071358
1.316715542521994
1.3020527859237536
1.2864125122189638
1.2727272727272727
1.267839687194526
1.2756598240469208
1.305962854349951
1.3695014662756595
1.474095796676442
1.619745845552297
1.7986314760508308
1.9980449657869013
2.20039100684262
2.3870967741935485
2.548387096774193
2.678396871945259
2.7653958944281527
2.822091886608016
2.865102639296188
2.89247311827957
2.905180840664712
2.903225806451613
2.8885630498533725
2.8611925708699903
2.8211143695014664
2.76930596285435
2.705767350928641
2.632453567937439
2.5513196480938416
2.4750733137829912
2.39980449657869
2.317693059628544
2.2355816226783967
2.157380254154448
2.086021505376344
2.022482893450636
1.9667644183773216
1.919843597262952
1.8797653958944285
1.8465298142717497
1.818181818181818
1.796676441837732
1.7790811339198436
1.761485826001955
1.7438905180840665
1.726295210166178
1.70772238514174
1.6871945259042034
1.664711632453568
1.6412512218963833
1.616813294232649
1.5913978494623655
1.565982404692082
1.541544477028348
1.52297165200391
1.5063538611925709
1.487781036168133
1.4672531769305963
1.444770283479961
1.4222873900293256
1.3998044965786902
1.3782991202346042
1.3577712609970674
1.3372434017595307
1.3186705767350928
1.303030303030303
1.29227761485826
1.2834799608993157
1.270772238514174
1.2551319648093842
1.238514173998045
1.2238514173998043
1.2189638318670577
1.2336265884652982
1.278592375366569
1.3626588465298142
1.4897360703812317
1.6549364613880744
1.847507331378299
2.0254154447702835
2.187683284457478
2.355816226783969
2.5083088954056696
2.635386119257087
2.7341153470185726
2.803519061583578
2.8484848484848486
2.874877810361681
2.884652981427175
2.8807429130009776
2.865102639296188
2.838709677419355
2.801564027370479
2.752688172043011
2.69208211143695
2.6207233626588464
2.5405669599217986
2.455522971652004
2.367546432062561
2.280547409579668
2.1955034213098727
2.115347018572825
2.0410557184750733
1.9745845552297163
1.9227761485826005
1.881720430107527
1.844574780058651
1.8132942326490715
1.7878787878787878
1.7663734115347018
1.7458455522971652
1.726295210166178
1.7057673509286413
1.6852394916911049
1.6637341153470186
1.6412512218963833
1.6217008797653958
1.6021505376344083
1.5777126099706744
1.552297165200391
1.5268817204301075
1.501466275659824
1.4760508308895406
1.4516129032258065
1.4281524926686218
1.4056695992179864
