ppg
1.6950146627565983
1.6881720430107527
1.6793743890518085
1.6715542521994136
1.664711632453568
1.6588465298142718
1.6549364613880744
1.651026392961877
1.6520039100684265
1.6578690127077225
1.6705767350928642
1.6930596285434996
1.726295210166178
1.775171065493646
1.8387096774193548
1.9178885630498532
2.0127077223851417
2.1163245356793743
2.225806451612903
2.3391984359726297
2.453567937438905
2.550342130987292
2.636363636363636
2.7331378299120237
2.833822091886608
2.9335288367546437
3.0283479960899315
3.1163245356793743
3.196480938416422
3.267839687194526
3.3284457478005867
3.380254154447703
3.4222873900293256
3.4574780058651027
3.4780058651026398
3.4887585532746823
3.4995112414467253
3.5083088954056696
3.512218963831867
3.5102639296187683
3.501466275659824
3.4858260019550342
3.463343108504399
3.4349951124144678
3.40078201368524
3.358748778103617
3.312805474095797
3.2629521016617797
3.206256109481916
3.1485826001955037
3.088954056695992
3.0254154447702835
2.960899315738025
2.898338220918866
2.8377321603128056
2.779081133919844
2.724340175953079
2.674486803519061
2.6295210166177907
2.593352883675464
2.560117302052786
2.5239491691104594
2.4858260019550342
2.4486803519061584
2.412512218963832
2.378299120234604
2.3440860215053765
2.312805474095797
2.283479960899316
2.2531769305962857
2.2238514173998043
2.1974584555229715
2.1730205278592374
2.147605083088954
2.120234604105572
2.090909090909091
2.059628543499511
2.027370478983382
1.994134897360704
1.9608993157380252
1.9286412512218964
1.8993157380254155
1.8699902248289344
1.8416422287390029
1.8172043010752688
1.7956989247311828
1.76930596285435
1.7409579667644184
1.7135874877810362
1.689149560117302
1.6656891495601174
1.6422287390029326
1.6226783968719452
1.607038123167155
1.590420332355816
1.5728250244379276
1.5581622678396871
1.5454545454545454
1.5298142717497556
1.5141739980449658
1.4975562072336266
1.4809384164222874
1.4672531769305963
1.457478005865103
1.4516129032258065
1.4506353861192571
1.458455522971652
1.479960899315738
1.5102639296187683
1.5493646138807429
1.6050830889540566
1.6793743890518085
1.7673509286412512
1.8641251221896384
1.967741935483871
2.072336265884653
2.177908113391984
2.281524926686217
2.3812316715542523
2.4780058651026398
2.570869990224829
2.6471163245356792
2.710654936461388
2.776148582600196
2.8377321603128056
2.89247311827957
2.9374389051808407
2.972629521016618
3.0
3.0205278592375366
3.0332355816226784
2.9335288367546437
2.776148582600196
2.69208211143695
2.6422287390029324
2.6080156402737047
2.578690127077224
2.549364613880743
2.5190615835777126
2.4858260019550342
2.4486803519061584
2.4086021505376345
2.3655913978494625
2.321603128054741
2.27761485826002
2.231671554252199
2.188660801564027
2.147605083088954
2.104594330400782
2.0625610948191597
2.0234604105571847
1.9872922776148585
1.9530791788856303
1.919843597262952
1.8875855327468232
1.857282502443793
1.827956989247312
1.7996089931573802
1.7761485826001957
1.7556207233626588
1.7341153470185728
1.7145650048875856
1.6950146627565983
1.6735092864125125
1.6520039100684265
1.629521016617791
1.607038123167155
1.58455522971652
1.563049853372434
1.543499511241447
1.5249266862170088
1.5102639296187683
1.4965786901270772
1.4809384164222874
1.4643206256109482
1.444770283479961
1.4252199413489737
1.4086021505376345
1.392961876832845
1.3782991202346042
1.364613880742913
1.3509286412512218
1.3372434017595307
1.3264907135874875
1.3176930596285434
1.305962854349951
1.29227761485826
1.2776148582600195
1.262952101661779
1.2502443792766371
1.238514173998045
1.227761485826002
1.2179863147605083
1.2072336265884651
1.1964809384164223
1.1837732160312806
1.173998044965787
1.1681329423264908
1.1612903225806452
1.1544477028347997
1.1495601173020529
1.1495601173020529
1.1564027370478984
1.1710654936461389
1.1935483870967742
1.2258064516129032
1.267839687194526
1.3206256109481915
1.375366568914956
1.4349951124144673
1.5083088954056696
1.5884652981427174
1.6735092864125125
1.7605083088954057
1.8455522971652003
1.9286412512218964
2.006842619745845
2.0791788856304985
2.145650048875855
2.2052785923753664
2.2551319648093844
2.290322580645161
2.315738025415445
2.3411534701857284
2.3626588465298144
2.378299120234604
2.386119257086999
2.386119257086999
2.380254154447703
2.3685239491691106
2.3499511241446727
2.326490713587488
2.297165200391007
2.267839687194526
2.2404692082111435
2.2082111436950145
2.172043010752688
2.133919843597263
2.0928641251221896
2.0498533724340176
2.005865102639296
1.9618768328445748
1.919843597262952
1.8797653958944285
1.8416422287390029
1.8054740957966764
1.775171065493646
1.747800586510264
1.7204301075268815
1.6959921798631477
1.672531769305963
1.6500488758553276
1.6304985337243405
1.6109481915933528
1.5913978494623655
1.5718475073313782
1.552297165200391
1.533724340175953
1.5190615835777126
1.5053763440860215
1.4897360703812317
1.4731182795698925
1.455522971652004
1.436950146627566
1.4164222873900294
1.3949169110459434
1.3724340175953078
1.3499511241446724
1.327468230694037
1.3049853372434017
1.2834799608993157
1.2688172043010753
1.2561094819159335
1.241446725317693
1.224828934506354
1.2072336265884651
1.1896383186705768
1.1720430107526882
1.1534701857282503
1.1368523949169111
1.121212121212121
1.10752688172043
1.0918866080156402
1.0801564027370478
1.0684261974584557
1.050830889540567
1.0312805474095796
1.010752688172043
0.9921798631476052
0.9736070381231672
0.9550342130987292
0.9364613880742912
0.919843597262952
0.906158357771261
0.8944281524926686
0.8866080156402737
0.8856304985337243
0.8905180840664711
0.8993157380254154
0.913978494623656
0.9364613880742912
0.9667644183773216
1.0058651026392962
1.053763440860215
1.110459433040078
1.1759530791788857
1.249266862170088
1.327468230694037
1.3988269794721409
1.4652981427174976
1.5366568914956011
1.608993157380254
1.6803519061583578
1.747800586510264
1.8103616813294232
1.869012707722385
1.919843597262952
1.9618768328445748
1.994134897360704
2.0146627565982405
2.0254154447702835
2.0283479960899315
2.0254154447702835
2.01564027370479
2.0019550342130987
1.9853372434017595
1.9657869012707725
1.9423264907135875
1.9149560117302051
1.8856304985337244
1.8533724340175952
1.8191593352883677
1.7839687194525904
1.7517106549364614
1.7223851417399805
1.6920821114369502
1.66177908113392
1.6304985337243405
1.5992179863147604
1.5708699902248289
1.547409579667644
1.5268817204301075
1.5073313782991202
1.4887585532746823
1.4701857282502444
1.455522971652004
1.4428152492668622
1.4281524926686218
1.414467253176931
1.4027370478983383
1.3949169110459434
1.3861192570869991
1.3773216031280548
1.3685239491691104
1.356793743890518
1.3450635386119256
1.332355816226784
1.3186705767350928
1.3069403714565004
1.2942326490713587
1.278592375366569
1.2609970674486803
1.2434017595307918
1.227761485826002
1.2140762463343109
1.2013685239491692
1.1886608015640274
1.1779081133919844
1.1681329423264908
1.1583577712609971
1.152492668621701
1.1485826001955035
1.141739980449658
1.1348973607038124
1.1300097751710656
1.1251221896383188
1.121212121212121
1.118279569892473
1.1163245356793745
1.115347018572825
1.1133919843597262
1.1133919843597262
1.1133919843597262
1.1133919843597262
1.1133919843597262
1.1133919843597262
1.1133919843597262
1.1133919843597262
1.1896383186705768
1.2179863147605083
1.2346041055718475
1.2453567937438903
1.2561094819159335
1.270772238514174
1.29227761485826
1.3196480938416422
1.35386119257087
1.3998044965786902
1.456500488758553
1.5239491691104594
1.603128054740958
1.6930596285434996
1.7898338220918866
1.89247311827957
1.9990224828934504
2.103616813294233
2.2023460410557183
2.2952101661779083
2.3704789833822093
2.434017595307918
2.498533724340176
2.5562072336265884
2.6070381231671558
2.6510263929618767
2.686217008797654
2.7116324535679373
2.7282502443792764
2.736070381231672
2.7370478983382207
2.735092864125122
2.729227761485826
2.718475073313783
2.7038123167155423
2.684261974584555
2.656891495601173
2.6236559139784945
2.587487781036168
2.550342130987292
2.512218963831867
2.4731182795698925
2.434017595307918
2.398826979472141
2.3655913978494625
2.335288367546432
2.30791788856305
2.2795698924731185
2.2521994134897363
2.225806451612903
2.19941348973607
2.1739980449657867
2.147605083088954
2.12316715542522
2.101661779081134
2.0840664711632453
2.070381231671554
2.059628543499511
2.050830889540567
2.0410557184750733
2.03128054740958
2.022482893450636
2.013685239491691
2.005865102639296
1.9980449657869013
1.9902248289345064
1.9824046920821117
1.9726295210166176
1.962854349951124
1.9501466275659824
1.9374389051808407
1.9266862170087975
1.9130009775171064
1.8983382209188664
1.8836754643206255
1.869012707722385
1.8533724340175952
1.8377321603128052
1.823069403714565
1.8113391984359728
1.7996089931573802
1.7888563049853372
1.7790811339198436
1.7702834799608993
1.7624633431085044
1.7556207233626588
1.7487781036168133
1.7429130009775171
1.739980449657869
1.7380254154447703
1.737047898338221
1.7390029325513197
1.7458455522971652
1.7517106549364614
1.7556207233626588
1.7605083088954057
1.7644183773216031
1.7663734115347018
1.7673509286412512
1.7673509286412512
1.7683284457478006
1.7732160312805474
1.782991202346041
1.8025415444770283
1.833822091886608
1.8797653958944285
1.93841642228739
1.9990224828934504
2.067448680351906
2.1544477028347995
2.2531769305962857
2.3597262952101663
2.4682306940371457
2.5747800586510263
2.6803519061583576
2.7810361681329425
2.877810361681329
2.970674486803519
3.056695992179863
3.1358748778103616
3.1955034213098727
3.242424242424242
3.29227761485826
3.340175953079179
3.380254154447703
3.4144672531769307
3.442815249266862
3.463343108504399
3.47702834799609
3.4858260019550342
3.4887585532746823
3.484848484848485
3.4711632453567938
3.452590420332356
3.4330400782013686
3.410557184750733
3.3851417399804498
3.35386119257087
3.3167155425219943
3.271749755620724
3.220918866080156
3.1652003910068425
3.10850439882698
3.053763440860215
2.9980449657869013
2.946236559139785
2.8993157380254155
2.850439882697948
2.7996089931573804
2.7517106549364616
2.704789833822092
2.6608015640273703
2.619745845552297
2.5806451612903225
2.5434995112414467
2.5083088954056696
2.4760508308895406
2.447702834799609
2.4222873900293256
2.396871945259042
2.36950146627566
2.3421309872922778
2.314760508308896
2.2883675464320627
2.26197458455523
2.2355816226783967
2.210166177908113
2.1837732160312804
2.158357771260997
2.134897360703812
2.114369501466276
2.093841642228739
2.072336265884653
2.050830889540567
2.026392961876833
2.0019550342130987
1.975562072336266
1.949169110459433
1.9257086999022484
1.902248289345064
1.8807429130009776
1.8592375366568916
1.8406647116324533
1.825024437927664
1.8064516129032255
1.7869012707722385
1.7683284457478006
1.750733137829912
1.7331378299120237
1.7165200391006843
1.7008797653958945
1.6842619745845553
1.667644183773216
1.6500488758553276
1.6363636363636365
1.6265884652981428
1.6177908113391983
1.6129032258064515
1.6109481915933528
1.6158357771260996
1.629521016617791
1.6559139784946235
1.6959921798631477
1.7497556207233629
1.81524926686217
1.8905180840664717
1.9736070381231672
2.050830889540567
2.1251221896383186
2.2130987292277613
2.30791788856305
2.403714565004888
2.498533724340176
2.5884652981427174
2.6725317693059627
2.7497556207233624
2.8181818181818183
2.87683284457478
2.9286412512218964
2.964809384164223
2.991202346041056
3.016617790811339
3.037145650048876
3.0518084066471163
3.058651026392962
3.058651026392962
3.0527859237536656
3.0439882697947214
3.0303030303030303
3.010752688172043
2.9853372434017595
2.9530791788856305
2.9159335288367547
2.875855327468231
2.827956989247312
2.774193548387097
2.716520039100684
2.6578690127077222
2.60019550342131
2.5434995112414467
2.490713587487781
2.442815249266862
2.3978494623655915
2.355816226783969
2.3196480938416424
2.2873900293255134
2.2551319648093844
2.2238514173998043
2.190615835777126
2.157380254154448
2.1270772238514173
2.099706744868035
2.075268817204301
2.0527859237536656
2.03128054740958
1.9266862170087975
1.7790811339198436
1.6959921798631477
1.64613880742913
1.6099706744868034
1.581622678396872
1.5571847507331378
1.5356793743890518
1.5161290322580645
1.495601173020528
1.47702834799609
1.4594330400782014
1.4418377321603129
1.423264907135875
1.409579667644184
1.3988269794721409
1.3841642228739004
1.3685239491691104
1.3528836754643203
1.3362658846529814
1.321603128054741
1.305962854349951
1.2903225806451613
1.2727272727272727
1.2551319648093842
1.238514173998045
1.2209188660801564
1.2072336265884651
1.1974584555229717
1.1867057673509287
1.1759530791788857
1.166177908113392
1.1564027370478984
1.1466275659824048
1.1329423264907137
1.118279569892473
1.1055718475073313
1.093841642228739
1.0850439882697946
1.0821114369501466
1.086021505376344
1.0987292277614855
1.1221896383186705
1.155425219941349
1.198435972629521
1.2512218963831867
1.3128054740957966
1.3812316715542523
1.456500488758553
1.5366568914956011
1.619745845552297
1.704789833822092
1.7781036168132942
1.842619745845552
1.9120234604105573
1.9824046920821117
2.0498533724340176
2.1114369501466275
2.166177908113392
2.2160312805474094
2.260019550342131
2.297165200391007
2.3255131964809386
2.345063538611926
2.3548387096774195
2.357771260997068
2.357771260997068
2.3528836754643208
2.3440860215053765
2.3313782991202348
2.314760508308896
2.2932551319648096
2.2668621700879767
2.2346041055718477
2.19941348973607
2.160312805474096
2.1192570869990224
2.081133919843597
2.04594330400782
2.006842619745845
1.963831867057673
1.921798631476051
1.8836754643206255
1.8484848484848484
1.8142717497556209
1.782991202346041
1.7526881720430108
1.7253176930596286
1.6989247311827955
1.6764418377321604
1.6559139784946235
1.6344086021505375
1.6138807429130009
1.5923753665689149
1.5718475073313782
1.5503421309872922
1.5288367546432062
1.5083088954056696
1.4887585532746823
1.4711632453567938
1.4545454545454546
1.436950146627566
1.4222873900293256
1.4086021505376345
1.3890518084066472
1.3655913978494625
1.3411534701857282
1.3157380254154447
1.2903225806451613
1.2658846529814272
1.2434017595307918
1.224828934506354
1.2082111436950147
1.1935483870967742
1.1857282502443791
1.1779081133919844
1.166177908113392
1.1534701857282503
1.13880742913001
1.1221896383186705
1.104594330400782
1.0869990224828934
1.0684261974584557
1.0518084066471165
1.0361681329423265
1.021505376344086
1.0117302052785924
1.0048875855327468
0.9941348973607038
0.9804496578690128
0.9638318670576737
0.946236559139785
0.9305962854349952
0.9159335288367546
0.9051808406647116
0.8993157380254154
0.8993157380254154
0.906158357771261
0.9217986314760508
0.9442815249266864
0.9745845552297164
1.013685239491691
1.0625610948191593
1.1202346041055715
1.1857282502443791
1.2561094819159335
1.3304007820136852
1.4086021505376345
1.4868035190615836
1.564027370478983
1.6363636363636365
1.6959921798631477
1.747800586510264
1.801564027370479
1.8523949169110456
1.8983382209188664
1.93841642228739
1.9716520039100685
1.9951124144672527
2.0097751710654936
2.016617790811339
2.013685239491691
2.003910068426197
1.9902248289345064
1.9745845552297163
1.9550342130987293
1.9315738025415443
1.9042033235581624
1.8729227761485825
1.835777126099707
1.7956989247311828
1.7526881720430108
1.70772238514174
1.6637341153470186
1.6226783968719452
1.5826001955034212
1.5483870967741935
1.520039100684262
1.490713587487781
1.4623655913978495
1.434017595307918
1.4086021505376345
1.3861192570869991
1.3655913978494625
1.3479960899315735
1.332355816226784
1.3176930596285434
1.303030303030303
1.2883675464320623
1.2776148582600195
1.2688172043010753
1.2580645161290325
1.24633431085044
1.2365591397849462
1.2267839687194526
1.2160312805474096
1.203323558162268
1.1915933528836755
1.1798631476050832
1.166177908113392
1.1495601173020529
1.1368523949169111
1.126099706744868
1.1124144672531768
1.099706744868035
1.088954056695992
1.0791788856304985
1.0694037145650048
1.0596285434995112
1.050830889540567
1.043010752688172
1.035190615835777
1.0254154447702837
1.013685239491691
1.0058651026392962
0.9990224828934506
0.9902248289345064
0.981427174975562
0.9736070381231672
0.9667644183773216
0.959921798631476
0.9521016617790812
0.9433040078201368
0.9345063538611924
0.9247311827956988
0.9149560117302052
0.9100684261974584
0.9081133919843596
0.9042033235581622
0.9002932551319648
0.8983382209188661
0.9022482893450636
0.9130009775171064
0.9325513196480938
0.9618768328445748
1.0009775171065494
1.0488758553274682
1.1065493646138806
1.1730205278592376
1.238514173998045
1.3040078201368523
1.3792766373411536
1.4604105571847508
1.544477028347996
1.629521016617791
1.7126099706744868
1.790811339198436
1.8631476050830889
1.9305962854349952
1.9902248289345064
2.042033235581622
2.0821114369501466
2.113391984359726
2.142717497556207
2.167155425219941
2.1847507331378297
2.340175953079179
2.558162267839687
2.6578690127077222
2.696969696969697
2.7067448680351904
2.7008797653958942
2.684261974584555
2.656891495601173
2.624633431085044
2.591397849462365
2.555229716520039
2.517106549364614
2.4780058651026398
2.439882697947214
2.403714565004888
2.36950146627566
2.337243401759531
2.304985337243402
2.2737047898338223
2.242424242424242
2.2140762463343107
2.188660801564027
2.163245356793744
2.1417399804496577
2.124144672531769
2.1094819159335287
2.0957966764418376
2.0821114369501466
2.069403714565005
2.056695992179863
2.0439882697947214
2.0332355816226784
2.0234604105571847
2.01564027370479
2.007820136852395
1.9980449657869013
1.9872922776148585
1.9775171065493649
1.9696969696969695
1.9589442815249267
1.9442815249266865
1.9305962854349952
1.9178885630498532
1.902248289345064
1.8866080156402736
1.8758553274682308
1.865102639296188
1.8504398826979471
1.833822091886608
1.8162267839687196
1.7996089931573802
1.7849462365591398
1.7712609970674489
1.7595307917888563
1.750733137829912
1.7419354838709675
1.7311827956989247
1.721407624633431
1.7165200391006843
1.7116324535679377
1.7038123167155426
1.6930596285434996
1.6813294232649072
1.6695992179863148
1.6588465298142718
1.6520039100684265
1.6471163245356797
1.643206256109482
1.6412512218963833
1.640273704789834
1.6422287390029326
1.6500488758553276
1.66177908113392
1.6803519061583578
1.70772238514174
1.7468230694037146
1.7996089931573802
1.8670576735092863
1.951124144672532
2.050830889540567
2.166177908113392
2.2932551319648096
2.4252199413489737
2.539589442815249
2.6422287390029324
2.7565982404692084
2.874877810361681
2.991202346041056
3.104594330400782
3.2111436950146626
3.30791788856305
3.3958944281524928
3.474095796676442
3.541544477028348
3.598240469208211
3.636363636363636
3.662756598240469
3.6901270772238512
3.711632453567937
3.727272727272727
3.735092864125122
3.7360703812316713
3.730205278592375
3.7174975562072334
3.698924731182796
3.6725317693059623
3.6373411534701856
3.593352883675464
3.5434995112414467
3.486803519061584
3.4242424242424243
3.3597262952101663
3.2961876832844577
3.233626588465298
3.172043010752688
3.112414467253177
3.0527859237536656
2.9960899315738025
2.9423264907135875
2.8905180840664717
2.8426197458455524
2.798631476050831
2.7546432062561097
2.710654936461388
2.6666666666666665
2.622678396871945
2.5806451612903225
2.5405669599217986
2.5024437927663734
2.466275659824047
2.434017595307918
2.404692082111437
2.3792766373411536
2.356793743890518
2.333333333333333
2.3059628543499517
2.2766373411534704
2.24633431085044
2.2140762463343107
2.182795698924731
2.1515151515151514
2.120234604105572
2.09188660801564
2.065493646138808
2.0391006842619745
2.016617790811339
1.9951124144672527
1.970674486803519
1.9442815249266865
1.9149560117302051
1.884652981427175
1.855327468230694
1.828934506353861
1.804496578690127
1.7839687194525904
1.7673509286412512
1.7517106549364614
1.7380254154447703
1.726295210166178
1.710654936461388
1.6920821114369502
1.6735092864125125
1.6529814271749756
1.6334310850439884
1.6177908113391983
1.603128054740958
1.5913978494623655
1.585532746823069
1.587487781036168
1.5962854349951123
1.6109481915933528
1.635386119257087
1.6744868035190617
1.7282502443792769
1.7996089931573802
1.8866080156402736
1.9872922776148585
2.1006842619745845
2.219941348973607
2.3421309872922778
2.464320625610948
2.582600195503421
2.681329423264907
2.766373411534702
2.857282502443793
2.9501466275659824
3.038123167155425
3.117302052785924
3.1847507331378297
3.241446725317693
3.289345063538612
3.3255131964809386
3.350928641251222
3.3685239491691106
3.377321603128055
3.3743890518084068
3.361681329423265
3.346041055718475
3.3274682306940373
3.304007820136853
3.274682306940372
3.2385141739980448
3.1955034213098727
3.146627565982405
3.0928641251221896
3.0332355816226784
2.970674486803519
2.913978494623656
2.8611925708699903
2.8044965786901277
2.747800586510264
2.69208211143695
2.635386119257087
2.582600195503421
2.532746823069404
2.4838709677419355
2.4359726295210167
2.3919843597262958
2.3548387096774195
2.320625610948192
2.290322580645161
2.2629521016617797
2.23069403714565
2.1974584555229715
2.1652003910068425
2.132942326490713
2.102639296187683
2.072336265884653
2.043010752688172
2.013685239491691
1.9853372434017595
1.9589442815249267
1.9364613880742916
1.9149560117302051
1.8885630498533723
1.8592375366568916
1.828934506353861
1.7996089931573802
1.772238514173998
1.7458455522971652
1.7204301075268815
1.6950146627565983
1.6705767350928642
1.6451612903225807
1.619745845552297
1.6011730205278591
1.587487781036168
1.5708699902248289
1.543499511241447
1.5249266862170088
1.5063538611925709
1.4750733137829912
1.455522971652004
1.435972629521017
1.4173998044965788
1.2228739002932552
1.104594330400782
1.0420332355816226
0.9912023460410556
0.9736070381231672
0.9628543499511242
0.9579667644183774
0.9579667644183774
0.9648093841642228
0.9775171065493646
0.9980449657869012
1.0312805474095796
1.0772238514173995
1.126099706744868
1.1827956989247312
1.2551319648093842
1.3391984359726294
1.4301075268817205
1.52297165200391
1.6608015640273706
1.7497556207233629
1.835777126099707
1.9980449657869013
2.0664711632453567
2.121212121212121
2.198435972629521
2.24633431085044
2.2883675464320627
2.3196480938416424
2.3421309872922778
2.356793743890518
2.364613880742913
2.364613880742913
2.357771260997068
2.3440860215053765
2.32355816226784
2.300097751710655
2.2737047898338223
2.243401759530792
2.2082111436950145
2.1710654936461387
2.1309872922776147
2.0869990224828934
2.0410557184750733
1.9951124144672527
1.951124144672532
1.90811339198436
1.8670576735092863
1.8318670576735088
1.7996089931573802
1.7644183773216031
1.7282502443792769
1.6930596285434996
1.6598240469208212
1.6285434995112416
1.6011730205278591
1.576735092864125
1.5532746823069403
1.5317693059628543
1.5112414467253177
1.4936461388074291
1.478983382209189
1.4643206256109482
1.444770283479961
1.423264907135875
1.3988269794721409
1.3734115347018572
1.348973607038123
1.3264907135874875
1.3040078201368523
1.2825024437927663
1.2609970674486803
1.2394916911045943
1.2218963831867058
1.2043010752688172
1.1808406647116323
1.155425219941349
1.1300097751710656
1.1036168132942326
1.0801564027370478
1.0606060606060606
1.043010752688172
1.0254154447702837
1.0097751710654936
0.9960899315738024
0.9863147605083088
0.9775171065493646
0.9648093841642228
0.9521016617790812
0.9393939393939394
0.927663734115347
0.9149560117302052
0.9022482893450636
0.8875855327468231
0.8699902248289345
0.8514173998044966
