ppg
1.356793743890518
1.4643206256109482
1.6187683284457477
1.8103616813294232
2.0205278592375366
2.23069403714565
2.4242424242424243
2.587487781036168
2.7126099706744866
2.7976539589442817
2.843597262952102
2.855327468230694
2.8406647116324537
2.806451612903226
2.7546432062561097
2.69208211143695
2.622678396871945
2.548387096774193
2.4731182795698925
2.39980449657869
2.3274682306940373
2.257086999022483
2.188660801564027
2.121212121212121
2.0625610948191597
2.0097751710654936
1.9530791788856303
1.895405669599218
1.8377321603128052
1.7810361681329423
1.7233626588465298
1.6637341153470186
1.6050830889540566
1.5493646138807429
1.4975562072336266
1.452590420332356
1.418377321603128
1.3978494623655917
1.3900293255131966
1.3919843597262953
1.404692082111437
1.4271749755620724
1.455522971652004
1.487781036168133
1.5190615835777126
1.547409579667644
1.5718475073313782
1.590420332355816
1.6021505376344083
1.608993157380254
1.6099706744868034
1.6050830889540566
1.5943304007820136
1.5796676441837731
1.5620723362658846
1.544477028347996
1.525904203323558
1.5073313782991202
1.4887585532746823
1.4701857282502444
1.4506353861192571
1.4320625610948192
1.4164222873900294
1.401759530791789
1.3812316715542523
1.3558162267839686
1.3294232649071358
1.3088954056695992
1.3069403714565004
1.3391984359726294
1.41544477028348
1.5376344086021505
1.7038123167155426
1.902248289345064
2.0869990224828934
2.2561094819159337
2.432062561094819
2.590420332355816
2.7155425219941347
2.801564027370479
2.84652981427175
2.8563049853372435
2.8377321603128056
2.798631476050831
2.745845552297165
2.684261974584555
2.622678396871945
2.5591397849462365
2.487781036168133
2.412512218963832
2.337243401759531
2.26197458455523
2.188660801564027
2.1192570869990224
2.0527859237536656
1.988269794721408
1.9266862170087975
1.866080156402737
1.8054740957966764
1.75366568914956
1.704789833822092
1.651026392961877
1.5962854349951123
1.542521994134897
1.4936461388074291
1.4496578690127078
1.4134897360703813
1.3870967741935485
1.3743890518084063
1.3763440860215057
1.391006842619746
1.412512218963832
1.4389051808406648
1.4711632453567938
1.5034213098729228
1.5327468230694037
1.5571847507331378
1.5571847507331378
1.5405669599217986
1.5288367546432062
1.5180840664711632
1.5063538611925709
1.4916911045943304
1.4750733137829912
1.4604105571847508
1.4467253176930597
1.4301075268817205
1.409579667644184
1.3861192570869991
1.3636363636363635
1.3421309872922775
1.321603128054741
1.300097751710655
1.2776148582600195
1.2531769305962854
1.2258064516129032
1.203323558162268
1.1867057673509287
1.173998044965787
1.1788856304985338
1.2160312805474096
1.2991202346041055
1.4320625610948192
1.608993157380254
1.818181818181818
2.0410557184750733
2.257086999022483
2.4486803519061584
2.603128054740958
2.7067448680351904
2.76930596285435
2.806451612903226
2.814271749755621
2.793743890518084
2.750733137829912
2.6901270772238512
2.618768328445748
2.541544477028348
2.462365591397849
2.3841642228739004
2.3069403714565007
2.239491691104594
2.177908113391984
2.112414467253177
2.046920821114369
1.9824046920821117
1.9178885630498532
1.855327468230694
1.793743890518084
1.7331378299120237
1.672531769305963
1.6099706744868034
1.5483870967741935
1.490713587487781
1.444770283479961
1.4056695992179864
1.3685239491691104
1.3372434017595307
1.316715542521994
1.3088954056695992
1.313782991202346
1.3294232649071358
1.3548387096774193
1.3851417399804498
1.4164222873900294
1.4467253176930597
1.4721407624633431
1.4897360703812317
1.501466275659824
1.5073313782991202
1.5083088954056696
1.5053763440860215
1.498533724340176
1.4887585532746823
1.4760508308895406
1.4594330400782014
1.4418377321603129
1.4213098729227762
1.3988269794721409
1.3792766373411536
1.3636363636363635
1.346041055718475
1.324535679374389
1.3020527859237536
1.278592375366569
1.252199413489736
1.2228739002932552
1.1945259042033236
1.1749755620723363
1.1759530791788857
1.2121212121212122
1.273704789833822
1.370478983382209
1.521016617790811
1.7135874877810362
1.9305962854349952
2.1524926686217007
2.360703812316716
2.5405669599217986
2.681329423264907
2.779081133919844
2.832844574780059
2.849462365591398
2.838709677419355
2.8084066471163247
2.763440860215054
2.702834799608993
2.632453567937439
2.555229716520039
2.47702834799609
2.398826979472141
2.3196480938416424
2.2404692082111435
2.166177908113392
2.0948191593352883
2.0254154447702835
1.9667644183773216
1.9130009775171064
1.855327468230694
1.7956989247311828
1.7350928641251222
1.6735092864125125
1.6099706744868034
1.544477028347996
1.4819159335288368
1.4242424242424243
1.3763440860215057
1.3391984359726294
1.3157380254154447
1.305962854349951
1.3088954056695992
1.3225806451612905
1.346041055718475
1.3773216031280548
1.412512218963832
1.4486803519061584
1.4809384164222874
1.5083088954056696
1.5298142717497556
1.541544477028348
1.544477028347996
1.543499511241447
1.5386119257087
1.5288367546432062
1.5161290322580645
1.5024437927663734
1.487781036168133
1.4701857282502444
1.4516129032258065
1.4330400782013686
1.4134897360703813
1.393939393939394
1.375366568914956
1.3577712609970674
1.343108504398827
1.327468230694037
1.303030303030303
1.2756598240469208
1.252199413489736
1.2453567937438903
1.2688172043010753
1.335288367546432
1.452590420332356
1.6187683284457477
1.826001955034213
2.053763440860215
2.254154447702835
2.4271749755620724
2.5972629521016617
2.739980449657869
2.844574780058651
2.909090909090909
2.9374389051808407
2.9345063538611926
2.90811339198436
2.863147605083089
2.8044965786901277
2.736070381231672
2.6637341153470184
2.595307917888563
2.5268817204301075
2.455522971652004
2.383186705767351
2.3088954056695994
2.2355816226783967
2.163245356793744
2.0928641251221896
2.0234604105571847
1.9530791788856303
1.8826979472140764
1.8132942326490715
1.7526881720430108
1.6989247311827955
1.640273704789834
1.581622678396872
1.5268817204301075
1.478005865102639
1.436950146627566
1.4086021505376345
1.392961876832845
1.391006842619746
1.4027370478983383
1.426197458455523
1.456500488758553
1.487781036168133
1.520039100684262
1.5532746823069403
1.58455522971652
1.6099706744868034
1.6275659824046922
1.6383186705767352
1.6422287390029326
1.640273704789834
1.6334310850439884
1.6217008797653958
1.6041055718475072
1.587487781036168
1.56891495601173
1.5464320625610948
1.52297165200391
1.500488758553275
1.478005865102639
1.4545454545454546
1.4291300097751711
1.4007820136852396
1.3685239491691104
1.3313782991202343
1.2932551319648091
1.2639296187683284
1.249266862170088
1.2561094819159335
1.2981427174975562
1.388074291300098
1.5298142717497556
1.718475073313783
1.93841642228739
2.1710654936461387
2.3958944281524928
2.5962854349951123
2.7595307917888565
2.878787878787879
2.948191593352884
2.9804496578690127
2.988269794721408
2.967741935483871
2.924731182795699
2.865102639296188
2.795698924731183
2.719452590420332
2.638318670576735
2.5562072336265884
2.4750733137829912
2.3949169110459434
2.300097751710655
2.20039100684262
2.117302052785924
2.0439882697947214
1.975562072336266
1.9100684261974583
1.8455522971652003
1.780058651026393
1.715542521994135
1.6529814271749756
1.5913978494623655
1.5327468230694037
1.478005865102639
1.435972629521017
1.404692082111437
1.3773216031280548
1.3577712609970674
1.3479960899315735
1.348973607038123
1.3607038123167154
1.3812316715542523
1.4076246334310851
1.436950146627566
1.4652981427174976
1.4897360703812317
1.509286412512219
1.521994134897361
1.5288367546432062
1.5298142717497556
1.525904203323558
1.5151515151515151
1.499511241446725
1.4819159335288368
1.4633431085043989
1.4457478005865103
1.4271749755620724
1.4086021505376345
1.3890518084066472
1.3714565004887584
1.3558162267839686
1.33822091886608
1.3176930596285434
1.295210166177908
1.2688172043010753
1.2394916911045943
1.2101661779081134
1.187683284457478
1.1827956989247312
1.2101661779081134
1.2805474095796676
1.375366568914956
1.500488758553275
1.6774193548387095
1.8866080156402736
2.10850439882698
2.320625610948192
2.50733137829912
2.6578690127077222
2.7673509286412514
2.834799608993157
2.863147605083089
2.86217008797654
2.8377321603128056
2.798631476050831
2.750733137829912
2.6930596285435
2.6295210166177907
2.560117302052786
2.4858260019550342
2.4115347018572826
2.3362658846529816
2.260997067448681
2.1867057673509285
2.114369501466276
2.0439882697947214
1.981427174975562
1.9227761485826005
1.8592375366568916
1.793743890518084
1.729227761485826
1.664711632453568
1.6011730205278591
1.5395894428152492
1.4819159335288368
1.43108504398827
1.388074291300098
1.356793743890518
1.33822091886608
1.3333333333333333
1.3401759530791788
1.3587487781036167
1.3861192570869991
1.4173998044965788
1.4467253176930597
1.4711632453567938
1.4916911045943304
1.5063538611925709
1.5161290322580645
1.521016617790811
1.521016617790811
1.520039100684262
1.5161290322580645
1.5073313782991202
1.4936461388074291
1.4750733137829912
1.4545454545454546
1.4330400782013686
1.4105571847507332
1.3890518084066472
1.3695014662756595
1.348973607038123
1.327468230694037
1.3040078201368523
1.2834799608993157
1.2619745845552297
1.2326490713587488
1.203323558162268
1.1837732160312806
1.1886608015640274
1.2316715542521994
1.3206256109481915
1.4594330400782014
1.643206256109482
1.857282502443793
2.083088954056696
2.274682306940372
2.4349951124144678
2.587487781036168
2.710654936461388
2.7947214076246336
2.841642228739003
2.855327468230694
2.841642228739003
2.806451612903226
2.755620723362659
2.695014662756598
2.627565982404692
2.555229716520039
2.4858260019550342
2.419354838709677
2.347996089931574
2.274682306940372
2.19941348973607
2.1251221896383186
2.0527859237536656
1.981427174975562
1.911045943304008
1.8416422287390029
1.7732160312805474
1.7067448680351909
1.6480938416422288
1.595307917888563
1.5376344086021505
1.479960899315738
1.426197458455523
1.380254154447703
1.346041055718475
1.3255131964809383
1.3157380254154447
1.3176930596285434
1.332355816226784
1.356793743890518
1.3870967741935485
1.4164222873900294
1.4437927663734116
1.4711632453567938
1.4946236559139785
1.5131964809384164
1.5249266862170088
1.5298142717497556
1.5278592375366569
1.520039100684262
1.5073313782991202
1.4887585532746823
1.469208211143695
1.4535679374389052
1.4389051808406648
1.4193548387096775
1.396871945259042
1.3743890518084063
1.3509286412512218
1.3264907135874875
1.303030303030303
1.278592375366569
1.2512218963831867
1.2218963831867058
1.1935483870967742
1.1759530791788857
1.1749755620723363
1.198435972629521
1.260019550342131
1.3685239491691104
1.5239491691104594
1.715542521994135
1.9296187683284456
2.150537634408602
2.357771260997068
2.535679374389052
2.67644183773216
2.7751710654936463
2.827956989247312
2.84652981427175
2.841642228739003
2.814271749755621
2.7702834799608995
2.713587487781036
2.6480938416422286
2.576735092864125
2.5034213098729228
2.4301075268817205
2.355816226783969
2.2825024437927666
2.2170087976539588
2.156402737047898
2.0928641251221896
2.029325513196481
1.964809384164223
1.8983382209188664
1.8318670576735088
1.7653958944281525
1.696969696969697
1.629521016617791
1.565982404692082
1.5063538611925709
1.452590420332356
1.4115347018572826
1.3822091886608017
1.3587487781036167
1.346041055718475
1.3470185728250244
1.3607038123167154
1.3851417399804498
1.414467253176931
1.444770283479961
1.4750733137829912
1.5024437927663734
1.5268817204301075
1.544477028347996
1.555229716520039
1.560117302052786
1.5571847507331378
1.5464320625610948
1.5288367546432062
1.5083088954056696
1.4838709677419355
1.4604105571847508
1.436950146627566
1.4115347018572826
1.3851417399804498
1.3587487781036167
1.3362658846529814
1.316715542521994
1.295210166177908
1.2727272727272727
1.24633431085044
1.2160312805474096
1.176930596285435
1.13880742913001
1.1231671554252198
1.1407624633431086
1.1994134897360704
1.3079178885630498
1.435972629521017
1.585532746823069
1.7790811339198436
1.991202346041056
2.198435972629521
2.383186705767351
2.533724340175953
2.643206256109482
2.7126099706744866
2.7468230694037143
2.748778103616813
2.7253176930596283
2.684261974584555
2.635386119257087
2.579667644183773
2.515151515151515
2.44672531769306
2.375366568914956
2.303030303030303
2.231671554252199
2.1622678396871944
2.0928641251221896
2.022482893450636
1.9521016617790807
1.8826979472140764
1.8211143695014664
1.7653958944281525
1.7057673509286413
1.6451612903225807
1.5835777126099706
1.520039100684262
1.4604105571847508
1.4037145650048877
1.3528836754643203
1.310850439882698
1.2825024437927663
1.267839687194526
1.2688172043010753
1.2795698924731185
1.2961876832844574
1.3206256109481915
1.3499511241446724
1.3792766373411536
1.4066471163245358
1.4301075268817205
1.4457478005865103
1.455522971652004
1.457478005865103
1.452590420332356
1.4418377321603129
1.43108504398827
1.4193548387096775
1.4007820136852396
1.3773216031280548
1.3519061583577712
1.3255131964809383
1.3020527859237536
1.281524926686217
1.260019550342131
1.2375366568914956
1.2150537634408602
1.1915933528836755
1.1681329423264908
1.147605083088954
1.1300097751710656
1.1085043988269794
1.093841642228739
1.1016617790811338
1.1436950146627567
1.2297165200391007
1.3636363636363635
1.542521994134897
1.7556207233626588
1.9824046920821117
2.201368523949169
2.376344086021505
2.5112414467253177
2.627565982404692
2.7126099706744866
2.764418377321604
2.782991202346041
2.771260997067449
2.7370478983382207
2.6852394916911044
2.622678396871945
2.5532746823069403
2.4780058651026398
2.40078201368524
2.3284457478005867
2.26197458455523
2.193548387096774
2.124144672531769
2.0547409579667644
1.9853372434017595
1.9178885630498532
1.8494623655913975
1.7820136852394917
1.7165200391006843
1.6529814271749756
1.5913978494623655
1.5376344086021505
1.4897360703812317
1.4379276637341154
1.3870967741935485
1.3411534701857282
1.3040078201368523
1.278592375366569
1.2658846529814272
1.2668621700879763
1.2776148582600195
1.295210166177908
1.3186705767350928
1.346041055718475
1.370478983382209
1.392961876832845
1.4134897360703813
1.4281524926686218
1.435972629521017
1.436950146627566
1.4330400782013686
1.4252199413489737
1.414467253176931
1.3988269794721409
1.3792766373411536
1.3558162267839686
1.3343108504398826
1.3147605083088951
1.29227761485826
1.2697947214076246
1.249266862170088
1.2297165200391007
1.2082111436950147
1.1837732160312806
1.1544477028347997
1.1231671554252198
1.093841642228739
1.0733137829912025
1.0684261974584557
1.0879765395894427
1.1436950146627567
1.2443792766373412
1.3919843597262953
1.5796676441837731
1.793743890518084
2.0127077223851417
2.217986314760508
2.3958944281524928
2.536656891495601
2.635386119257087
2.6940371456500487
2.716520039100684
2.7116324535679373
2.686217008797654
2.644183773216031
2.5884652981427174
2.5239491691104594
2.4545454545454546
2.3822091886608017
2.3088954056695994
2.2375366568914954
2.167155425219941
2.0977517106549364
2.0361681329423265
1.9794721407624636
1.9188660801564028
1.858260019550342
1.796676441837732
1.7350928641251222
1.6735092864125125
1.6129032258064515
1.5532746823069403
1.4946236559139785
1.4379276637341154
1.383186705767351
1.335288367546432
1.3020527859237536
1.281524926686217
1.2688172043010753
1.267839687194526
1.2795698924731185
1.300097751710655
1.327468230694037
1.3577712609970674
1.3870967741935485
1.4115347018572826
1.43108504398827
1.4437927663734116
1.452590420332356
1.457478005865103
1.456500488758553
1.4496578690127078
1.4389051808406648
1.4242424242424243
1.4076246334310851
1.3900293255131966
1.3714565004887584
1.3499511241446724
1.327468230694037
1.305962854349951
1.2854349951124144
1.2688172043010753
1.2531769305962854
1.2316715542521994
1.2043010752688172
1.1720430107526882
1.1397849462365592
1.1133919843597262
1.1016617790811338
1.1163245356793745
1.1691104594330402
1.2697947214076246
1.4193548387096775
1.5786901270772238
1.7497556207233629
1.95405669599218
2.1622678396871944
2.35386119257087
2.512218963831867
2.63049853372434
2.70772238514174
2.745845552297165
2.750733137829912
2.729227761485826
2.687194525904203
2.63049853372434
2.5718475073313782
2.5112414467253177
2.444770283479961
2.3743890518084068
2.303030303030303
2.231671554252199
2.1622678396871944
2.0928641251221896
2.0254154447702835
1.9589442815249267
1.895405669599218
1.8318670576735088
1.7741935483870968
1.721407624633431
1.6627565982404693
1.6011730205278591
1.5356793743890518
1.4721407624633431
1.4134897360703813
1.3587487781036167
1.3118279569892473
1.2756598240469208
1.2531769305962854
1.2443792766373412
1.24633431085044
1.2639296187683284
1.29227761485826
1.3225806451612905
1.35386119257087
1.383186705767351
1.412512218963832
1.436950146627566
1.452590420332356
1.4604105571847508
1.4613880742913
1.455522971652004
1.4437927663734116
1.4320625610948192
1.4193548387096775
1.3998044965786902
1.375366568914956
1.3479960899315735
1.3206256109481915
1.295210166177908
1.270772238514174
1.24633431085044
1.2218963831867058
1.1974584555229717
1.1720430107526882
1.141739980449658
1.1143695014662756
1.0899315738025417
1.0654936461388074
1.0557184750733135
1.0762463343108504
1.141739980449658
1.2580645161290325
1.4252199413489737
1.6363636363636365
1.8729227761485825
2.114369501466276
2.3391984359726297
2.5131964809384164
2.6402737047898337
2.7419354838709675
2.8103616813294234
2.843597262952102
2.843597262952102
2.8181818181818183
2.771260997067449
2.70772238514174
2.633431085043988
2.5542521994134897
2.474095796676442
2.393939393939394
2.321603128054741
2.2551319648093844
2.1847507331378297
2.114369501466276
2.0449657869012707
1.9775171065493649
1.9100684261974583
1.8406647116324533
1.772238514173998
1.7057673509286413
1.6383186705767352
1.5708699902248289
1.5151515151515151
1.466275659824047
1.4134897360703813
1.3607038123167154
1.316715542521994
1.2825024437927663
1.260019550342131
1.2512218963831867
1.2551319648093842
1.2717497556207231
1.2991202346041055
1.3294232649071358
1.359726295210166
1.3861192570869991
1.4105571847507332
1.43108504398827
1.4437927663734116
1.4506353861192571
1.452590420332356
1.4496578690127078
1.4418377321603129
1.4301075268817205
1.414467253176931
1.3949169110459434
1.370478983382209
1.3479960899315735
1.3304007820136852
1.3118279569892473
1.2903225806451613
1.267839687194526
1.2443792766373412
1.2209188660801564
1.195503421309873
1.1671554252199414
1.1358748778103618
1.1065493646138806
1.0899315738025417
1.099706744868035
1.1348973607038124
1.2023460410557183
1.321603128054741
1.4897360703812317
1.6979472140762464
1.9286412512218964
2.160312805474096
2.3743890518084068
2.557184750733138
2.699902248289345
2.7976539589442817
2.852394916911046
2.8699902248289346
2.859237536656892
2.8289345063538613
2.7810361681329425
2.719452590420332
2.649071358748778
2.573802541544477
2.4946236559139785
2.41544477028348
2.334310850439883
2.251221896383187
2.1700879765395893
2.0987292277614857
2.032258064516129
1.962854349951124
1.8934506353861196
1.823069403714565
1.75366568914956
1.6852394916911049
1.6158357771260996
1.544477028347996
1.474095796676442
1.4056695992179864
1.3440860215053765
1.29227761485826
1.2570869990224829
1.2346041055718475
1.219941348973607
1.2160312805474096
1.2238514173998043
1.241446725317693
1.267839687194526
1.2971652003910068
1.3264907135874875
1.3558162267839686
1.3822091886608017
1.4027370478983383
1.4164222873900294
1.4242424242424243
1.426197458455523
1.4222873900293256
1.4134897360703813
1.3988269794721409
1.3792766373411536
1.3548387096774193
1.3294232649071358
1.3040078201368523
1.2795698924731185
1.2551319648093842
1.23069403714565
1.2111436950146628
1.1945259042033236
1.1749755620723363
1.1515151515151516
1.1221896383186705
1.088954056695992
1.0596285434995112
1.0449657869012707
1.0606060606060606
1.1192570869990224
1.2297165200391007
1.393939393939394
1.5679374389051808
1.7526881720430108
1.9726295210166176
2.198435972629521
2.404692082111437
2.575757575757576
2.704789833822092
2.790811339198436
2.833822091886608
2.838709677419355
2.81622678396872
2.7722385141739982
2.7126099706744866
2.6480938416422286
2.5806451612903225
2.504398826979472
2.4252199413489737
2.3440860215053765
2.2639296187683287
2.1867057673509285
2.113391984359726
2.042033235581622
1.9736070381231672
1.905180840664712
1.835777126099707
1.7761485826001957
1.7204301075268815
1.6588465298142718
1.5933528836754642
1.5249266862170088
1.4594330400782014
1.3978494623655917
1.3411534701857282
1.2932551319648091
1.2561094819159335
1.23069403714565
1.2179863147605083
1.219941348973607
1.2326490713587488
1.2561094819159335
1.2883675464320623
1.324535679374389
1.359726295210166
1.3900293255131966
1.4164222873900294
1.4349951124144673
1.4457478005865103
1.4496578690127078
1.4486803519061584
1.4418377321603129
1.4330400782013686
1.423264907135875
1.4066471163245358
1.383186705767351
1.356793743890518
1.332355816226784
1.310850439882698
1.2873900293255132
1.2639296187683284
1.2404692082111437
1.2160312805474096
1.1906158357771262
1.1612903225806452
1.133919843597263
1.1114369501466277
1.0948191593352885
1.0957966764418376
1.1290322580645162
1.2082111436950147
1.3401759530791788
1.521994134897361
1.7429130009775171
1.9843597262952104
2.2248289345063537
2.441837732160313
2.6050830889540566
2.7223851417399803
2.81622678396872
2.875855327468231
2.900293255131965
2.8914956011730206
2.857282502443793
2.8044965786901277
2.739980449657869
2.665689149560117
2.587487781036168
2.505376344086021
2.420332355816227
2.343108504398827
2.271749755620724
2.1955034213098727
2.1192570869990224
2.0449657869012707
1.970674486803519
1.8973607038123168
1.8269794721407624
1.7556207233626588
1.683284457478006
1.6109481915933528
1.5395894428152492
1.479960899315738
1.4271749755620724
1.3714565004887584
1.3186705767350928
1.273704789833822
1.2404692082111437
1.2209188660801564
1.2140762463343109
1.2209188660801564
1.238514173998045
1.2649071358748778
1.2971652003910068
1.3294232649071358
1.3577712609970674
1.383186705767351
1.404692082111437
1.4203323558162269
1.4281524926686218
1.4291300097751711
1.4222873900293256
1.4076246334310851
1.3870967741935485
1.364613880742913
1.3411534701857282
1.3176930596285434
1.2981427174975562
1.284457478005865
1.267839687194526
1.2473118279569892
1.2267839687194526
1.206256109481916
1.1867057673509287
1.1652003910068427
1.1378299120234605
1.1055718475073313
1.075268817204301
1.0586510263929618
1.0694037145650048
1.1065493646138806
1.1808406647116323
1.3098729227761483
1.487781036168133
1.7038123167155426
1.9403714565004888
2.174975562072336
2.386119257086999
2.560117302052786
2.6901270772238512
2.773216031280548
2.8132942326490715
2.820136852394917
2.803519061583578
2.766373411534702
2.7126099706744866
2.6451612903225805
2.56891495601173
2.487781036168133
2.404692082111437
2.321603128054741
2.239491691104594
2.1593352883675463
2.081133919843597
2.013685239491691
1.9521016617790807
1.8856304985337244
1.818181818181818
1.7517106549364614
1.686217008797654
1.6226783968719452
1.560117302052786
1.4965786901270772
1.434017595307918
1.375366568914956
1.321603128054741
1.2727272727272727
1.2375366568914956
1.2179863147605083
1.2082111436950147
1.209188660801564
1.2228739002932552
1.2473118279569892
1.2795698924731185
1.3147605083088951
1.3479960899315735
1.3782991202346042
1.4027370478983383
1.4193548387096775
1.4301075268817205
1.436950146627566
1.4379276637341154
1.4320625610948192
