ppg
1.5327468230694037
1.5053763440860215
1.474095796676442
1.439882697947214
1.4037145650048877
1.367546432062561
1.3313782991202343
1.3010752688172045
1.281524926686217
1.2805474095796676
1.305962854349951
1.3655913978494625
1.4428152492668622
1.542521994134897
1.6852394916911049
1.8602150537634408
2.0547409579667644
2.2551319648093844
2.449657869012708
2.6265884652981426
2.777126099706745
2.895405669599218
2.978494623655914
3.027370478983382
3.042033235581622
3.0303030303030303
2.9960899315738025
2.940371456500489
2.8670576735092865
2.779081133919844
2.6803519061583576
2.572825024437928
2.458455522971652
2.3391984359726297
2.2170087976539588
2.09188660801564
1.9657869012707725
1.8563049853372435
1.7575757575757576
1.6520039100684265
1.5493646138807429
1.456500488758553
1.3763440860215057
1.3128054740957966
1.267839687194526
1.2424242424242424
1.2355816226783969
1.24633431085044
1.2727272727272727
1.3118279569892473
1.35386119257087
1.3988269794721409
1.4496578690127078
1.5024437927663734
1.552297165200391
1.5972629521016617
1.635386119257087
1.664711632453568
1.686217008797654
1.6979472140762464
1.7008797653958945
1.6959921798631477
1.686217008797654
1.672531769305963
1.6500488758553276
1.6217008797653958
1.587487781036168
1.5493646138807429
1.5083088954056696
1.466275659824047
1.4242424242424243
1.3822091886608017
1.3411534701857282
1.300097751710655
1.2609970674486803
1.23069403714565
1.2082111436950147
1.1906158357771262
1.187683284457478
1.209188660801564
1.262952101661779
1.3528836754643203
1.479960899315738
1.640273704789834
1.825024437927664
2.024437927663734
2.2248289345063537
2.3919843597262958
2.5317693059628543
2.6666666666666665
2.7810361681329425
2.865102639296188
2.916911045943304
2.935483870967742
2.924731182795699
2.886608015640274
2.8260019550342133
2.747800586510264
2.6559139784946235
2.5532746823069403
2.455522971652004
2.357771260997068
2.24633431085044
2.126099706744868
2.0009775171065494
1.8748778103616808
1.7487781036168133
1.6265884652981428
1.5112414467253177
1.4066471163245358
1.3147605083088951
1.238514173998045
1.1857282502443791
1.1515151515151516
1.1280547409579669
1.1192570869990224
1.1270772238514175
1.1495601173020529
1.1857282502443791
1.2316715542521994
1.2834799608993157
1.33822091886608
1.391006842619746
1.4408602150537635
1.4848484848484849
1.5190615835777126
1.5454545454545454
1.565982404692082
1.581622678396872
1.590420332355816
1.5913978494623655
1.585532746823069
1.5718475073313782
1.5513196480938416
1.5249266862170088
1.4936461388074291
1.4604105571847508
1.4301075268817205
1.401759530791789
1.3695014662756595
1.3362658846529814
1.303030303030303
1.2697947214076246
1.2375366568914956
1.2072336265884651
1.1798631476050832
1.1573802541544478
1.1456500488758554
1.1515151515151516
1.1827956989247312
1.2316715542521994
1.303030303030303
1.4134897360703813
1.5571847507331378
1.7253176930596286
1.9100684261974583
2.0987292277614857
2.2795698924731185
2.441837732160313
2.579667644183773
2.686217008797654
2.7595307917888565
2.7976539589442817
2.807429130009776
2.7947214076246336
2.760508308895406
2.705767350928641
2.634408602150537
2.548387096774193
2.450635386119257
2.343108504398827
2.2267839687194524
2.103616813294233
1.9745845552297163
1.842619745845552
1.7272727272727273
1.6226783968719452
1.509286412512219
1.3988269794721409
1.2971652003910068
1.2101661779081134
1.1407624633431086
1.0899315738025417
1.0596285434995112
1.0488758553274682
1.0557184750733135
1.0791788856304985
1.110459433040078
1.1495601173020529
1.1974584555229717
1.2502443792766371
1.3040078201368523
1.3577712609970674
1.4086021505376345
1.4545454545454546
1.4936461388074291
1.525904203323558
1.5503421309872922
1.565982404692082
1.5747800586510263
1.5777126099706744
1.5728250244379276
1.5620723362658846
1.5454545454545454
1.52297165200391
1.4965786901270772
1.4672531769305963
1.4349951124144673
1.401759530791789
1.3685239491691104
1.335288367546432
1.3020527859237536
1.2746823069403714
1.2502443792766371
1.2238514173998043
1.198435972629521
1.1788856304985338
1.1710654936461389
1.181818181818182
1.2179863147605083
1.2854349951124144
1.3861192570869991
1.5190615835777126
1.678396871945259
1.8318670576735088
1.9824046920821117
2.1524926686217007
2.32355816226784
2.4819159335288368
2.616813294232649
2.721407624633431
2.792766373411535
2.83088954056696
2.835777126099707
2.812316715542522
2.7468230694037143
2.6529814271749754
2.5669599217986314
2.479960899315738
2.380254154447703
2.269794721407625
2.150537634408602
2.0254154447702835
1.8963831867057677
1.7644183773216031
1.6334310850439884
1.5073313782991202
1.388074291300098
1.2805474095796676
1.1974584555229717
1.133919843597263
1.0772238514173995
1.035190615835777
1.0097751710654936
1.002932551319648
1.0146627565982405
1.043010752688172
1.0840664711632453
1.1348973607038124
1.1925708699902249
1.2531769305962854
1.313782991202346
1.3665689149560116
1.412512218963832
1.456500488758553
1.4946236559139785
1.525904203323558
1.5483870967741935
1.5620723362658846
1.5679374389051808
1.565982404692082
1.5571847507331378
1.541544477028348
1.521016617790811
1.499511241446725
1.478005865102639
1.4506353861192571
1.4193548387096775
1.3870967741935485
1.35386119257087
1.321603128054741
1.2883675464320623
1.2551319648093842
1.2228739002932552
1.1925708699902249
1.1681329423264908
1.1544477028347997
1.155425219941349
1.1749755620723363
1.2228739002932552
1.303030303030303
1.418377321603128
1.565982404692082
1.737047898338221
1.9227761485826005
2.1114369501466275
2.29227761485826
2.455522971652004
2.593352883675464
2.6901270772238512
2.7536656891495603
2.798631476050831
2.8181818181818183
2.811339198435973
2.779081133919844
2.724340175953079
2.650048875855328
2.560117302052786
2.4574780058651027
2.3440860215053765
2.2238514173998043
2.096774193548387
1.9824046920821117
1.873900293255132
1.7517106549364614
1.6256109481915937
1.500488758553275
1.3812316715542523
1.2727272727272727
1.1788856304985338
1.1026392961876832
1.0469208211143697
1.010752688172043
0.9960899315738024
0.9980449657869012
1.0156402737047898
1.04594330400782
1.088954056695992
1.1407624633431086
1.1974584555229717
1.2570869990224829
1.316715542521994
1.3743890518084063
1.426197458455523
1.4721407624633431
1.5102639296187683
1.5395894428152492
1.5591397849462365
1.5708699902248289
1.5757575757575757
1.5728250244379276
1.563049853372434
1.5454545454545454
1.52297165200391
1.495601173020528
1.4643206256109482
1.4301075268817205
1.393939393939394
1.356793743890518
1.3255131964809383
1.2971652003910068
1.2619745845552297
1.2238514173998043
1.1867057673509287
1.152492668621701
1.1280547409579669
1.121212121212121
1.1397849462365592
1.1896383186705768
1.2756598240469208
1.3998044965786902
1.5571847507331378
1.7126099706744868
1.8699902248289344
2.053763440860215
2.242424242424242
2.420332355816227
2.5777126099706744
2.705767350928641
2.80058651026393
2.86217008797654
2.8905180840664717
2.8885630498533725
2.860215053763441
2.814271749755621
2.7546432062561097
2.677419354838709
2.5855327468230693
2.482893450635386
2.372434017595308
2.2551319648093844
2.131964809384164
2.003910068426197
1.873900293255132
1.7438905180840665
1.616813294232649
1.495601173020528
1.396871945259042
1.3147605083088951
1.2346041055718475
1.166177908113392
1.1133919843597262
1.0791788856304985
1.0654936461388074
1.0713587487781036
1.0957966764418376
1.1348973607038124
1.1867057673509287
1.2453567937438903
1.3010752688172045
1.35386119257087
1.409579667644184
1.4623655913978495
1.5102639296187683
1.5503421309872922
1.5826001955034212
1.607038123167155
1.6236559139784943
1.6314760508308896
1.6304985337243405
1.6226783968719452
1.6080156402737047
1.5923753665689149
1.5747800586510263
1.5513196480938416
1.5239491691104594
1.4946236559139785
1.4633431085043989
1.4291300097751711
1.393939393939394
1.356793743890518
1.3186705767350928
1.2825024437927663
1.252199413489736
1.2346041055718475
1.2326490713587488
1.252199413489736
1.3020527859237536
1.388074291300098
1.512218963831867
1.6705767350928642
1.8543499511241448
2.053763440860215
2.2551319648093844
2.447702834799609
2.6207233626588464
2.7497556207233624
2.841642228739003
2.916911045943304
2.964809384164223
2.9824046920821115
2.9716520039100685
2.9345063538611926
2.874877810361681
2.7976539589442817
2.705767350928641
2.603128054740958
2.4916911045943304
2.375366568914956
2.2688172043010755
2.1652003910068425
2.0498533724340176
1.9286412512218964
1.8054740957966764
1.6852394916911049
1.5708699902248289
1.466275659824047
1.3734115347018572
1.2961876832844574
1.2365591397849462
1.195503421309873
1.173998044965787
1.1691104594330402
1.1788856304985338
1.2023460410557183
1.2375366568914956
1.2825024437927663
1.3333333333333333
1.388074291300098
1.4428152492668622
1.4946236559139785
1.5405669599217986
1.5796676441837731
1.6099706744868034
1.6304985337243405
1.6422287390029326
1.64613880742913
1.6422287390029326
1.6304985337243405
1.6109481915933528
1.58455522971652
1.5542521994134897
1.520039100684262
1.482893450635386
1.444770283479961
1.4056695992179864
1.3724340175953078
1.343108504398827
1.3098729227761483
1.2746823069403714
1.238514173998045
1.2101661779081134
1.1886608015640274
1.1730205278592376
1.1720430107526882
1.195503421309873
1.2502443792766371
1.3401759530791788
1.4672531769305963
1.6001955034213098
1.7419354838709675
1.916911045943304
2.104594330400782
2.291300097751711
2.463343108504399
2.610948191593353
2.727272727272727
2.8103616813294234
2.860215053763441
2.87683284457478
2.8641251221896384
2.83088954056696
2.7810361681329425
2.7126099706744866
2.63049853372434
2.536656891495601
2.4330400782013686
2.3225806451612905
2.206256109481916
2.0869990224828934
1.963831867057673
1.839687194525904
1.7165200391006843
1.5972629521016617
1.4975562072336266
1.412512218963832
1.3264907135874875
1.2473118279569892
1.1827956989247312
1.133919843597263
1.1036168132942326
1.0918866080156402
1.0977517106549364
1.1192570869990224
1.1534701857282503
1.1974584555229717
1.241446725317693
1.2864125122189638
1.3362658846529814
1.3861192570869991
1.4330400782013686
1.4750733137829912
1.5102639296187683
1.5366568914956011
1.555229716520039
1.565982404692082
1.5679374389051808
1.563049853372434
1.5513196480938416
1.5376344086021505
1.521016617790811
1.498533724340176
1.4701857282502444
1.4389051808406648
1.4066471163245358
1.3724340175953078
1.3372434017595307
1.303030303030303
1.2688172043010753
1.2346041055718475
1.2013685239491692
1.1749755620723363
1.1544477028347997
1.1378299120234605
1.1319648093841643
1.1466275659824048
1.187683284457478
1.2619745845552297
1.3695014662756595
1.509286412512219
1.6744868035190617
1.855327468230694
2.0410557184750733
2.219941348973607
2.3626588465298144
2.47702834799609
2.581622678396872
2.6637341153470184
2.717497556207233
2.7419354838709675
2.73802541544477
2.70772238514174
2.6559139784946235
2.5865102639296187
2.5024437927663734
2.406647116324536
2.313782991202346
2.219941348973607
2.1114369501466275
1.9931573802541545
1.8699902248289344
1.7448680351906158
1.619745845552297
1.498533724340176
1.3851417399804498
1.2825024437927663
1.1945259042033236
1.1231671554252198
1.0694037145650048
1.0381231671554252
1.024437927663734
1.024437927663734
1.0391006842619743
1.067448680351906
1.1085043988269794
1.1573802541544478
1.2121212121212122
1.2688172043010753
1.324535679374389
1.3773216031280548
1.4252199413489737
1.4643206256109482
1.495601173020528
1.521994134897361
1.541544477028348
1.5532746823069403
1.5571847507331378
1.5532746823069403
1.542521994134897
1.5268817204301075
1.5063538611925709
1.4809384164222874
1.452590420332356
1.4222873900293256
1.3958944281524928
1.3714565004887584
1.3411534701857282
1.3098729227761483
1.2776148582600195
1.2443792766373412
1.2121212121212122
1.181818181818182
1.1564027370478984
1.1407624633431086
1.142717497556207
1.1681329423264908
1.2121212121212122
1.278592375366569
1.3822091886608017
1.5190615835777126
1.6823069403714566
1.8631476050830889
2.048875855327468
2.2297165200391005
2.3949169110459434
2.536656891495601
2.6480938416422286
2.727272727272727
2.773216031280548
2.788856304985337
2.7781036168132944
2.744868035190616
2.6911045943304006
2.619745845552297
2.532746823069404
2.4330400782013686
2.32355816226784
2.206256109481916
2.0821114369501466
1.9530791788856303
1.8211143695014664
1.704789833822092
1.598240469208211
1.4838709677419355
1.370478983382209
1.2649071358748778
1.1730205278592376
1.0987292277614855
1.0439882697947214
1.010752688172043
0.9980449657869012
1.0048875855327468
1.029325513196481
1.0635386119257086
1.1055718475073313
1.1593352883675463
1.219941348973607
1.2825024437927663
1.3440860215053765
1.401759530791789
1.4545454545454546
1.498533724340176
1.5347018572825024
1.5620723362658846
1.5796676441837731
1.5884652981427174
1.5913978494623655
1.5894428152492668
1.5796676441837731
1.563049853372434
1.541544477028348
1.5161290322580645
1.487781036168133
1.456500488758553
1.423264907135875
1.3890518084066472
1.3548387096774193
1.3196480938416422
1.2913000977517106
1.2658846529814272
1.2355816226783969
1.206256109481916
1.181818181818182
1.1700879765395895
1.176930596285435
1.2111436950146628
1.2795698924731185
1.383186705767351
1.520039100684262
1.6842619745845553
1.8670576735092863
2.032258064516129
2.1837732160312804
2.345063538611926
2.4975562072336266
2.6285434995112413
2.7311827956989245
2.8025415444770285
2.841642228739003
2.849462365591398
2.8299120234604107
2.7859237536656893
2.720430107526881
2.6471163245356792
2.5669599217986314
2.4701857282502444
2.361681329423265
2.244379276637341
2.121212121212121
1.9931573802541545
1.86119257086999
1.729227761485826
1.5992179863147604
1.474095796676442
1.3587487781036167
1.2551319648093842
1.176930596285435
1.118279569892473
1.0684261974584557
1.0342130987292275
1.0175953079178883
1.0195503421309873
1.0381231671554252
1.072336265884653
1.1192570869990224
1.173998044965787
1.2336265884652982
1.3049853372434017
1.375366568914956
1.4320625610948192
1.4848484848484849
1.5317693059628543
1.5708699902248289
1.6001955034213098
1.6207233626588464
1.6314760508308896
1.6344086021505375
1.629521016617791
1.616813294232649
1.5972629521016617
1.5728250244379276
1.5493646138807429
1.525904203323558
1.4965786901270772
1.4643206256109482
1.4301075268817205
1.3949169110459434
1.3577712609970674
1.3196480938416422
1.2805474095796676
1.2443792766373412
1.2130987292277615
1.1935483870967742
1.1906158357771262
1.209188660801564
1.2590420332355816
1.3450635386119256
1.4682306940371457
1.6265884652981428
1.812316715542522
2.013685239491691
2.218963831867057
2.4164222873900294
2.595307917888563
2.747800586510264
2.8690127077223853
2.9472140762463344
2.991202346041056
3.0127077223851417
3.0097751710654936
2.981427174975562
2.929618768328446
2.857282502443793
2.76930596285435
2.668621700879765
2.558162267839687
2.4389051808406648
2.312805474095797
2.198435972629521
2.088954056695992
1.9657869012707725
1.836754643206256
1.70772238514174
1.5826001955034212
1.466275659824047
1.3616813294232648
1.2727272727272727
1.2013685239491692
1.1495601173020529
1.118279569892473
1.10752688172043
1.1133919843597262
1.133919843597263
1.1691104594330402
1.217008797653959
1.273704789833822
1.335288367546432
1.3998044965786902
1.4613880742913
1.5190615835777126
1.5698924731182795
1.6129032258064515
1.6471163245356797
1.6715542521994136
1.6871945259042034
1.6959921798631477
1.696969696969697
1.6911045943304008
1.678396871945259
1.6598240469208212
1.6363636363636365
1.6099706744868034
1.5796676441837731
1.547409579667644
1.5141739980449658
1.478983382209189
1.4486803519061584
1.4193548387096775
1.3851417399804498
1.348973607038123
1.3157380254154447
1.2913000977517106
1.2834799608993157
1.3010752688172045
1.3519061583577712
1.439882697947214
1.5669599217986314
1.729227761485826
1.889540566959922
2.0518084066471163
2.241446725317693
2.4359726295210167
2.618768328445748
2.779081133919844
2.909090909090909
3.004887585532747
3.0635386119257086
3.0869990224828934
3.0791788856304985
3.043010752688172
2.983382209188661
2.913978494623656
2.835777126099707
2.739980449657869
2.632453567937439
2.517106549364614
2.3958944281524928
2.270772238514174
2.1417399804496577
2.010752688172043
1.8807429130009776
1.7546432062561097
1.6344086021505375
1.5356793743890518
1.4545454545454546
1.375366568914956
1.305962854349951
1.2531769305962854
1.2179863147605083
1.2023460410557183
1.2052785923753666
1.2258064516129032
1.2609970674486803
1.3079178885630498
1.3616813294232648
1.4134897360703813
1.4623655913978495
1.5141739980449658
1.5650048875855327
1.6099706744868034
1.6471163245356797
1.675464320625611
1.6950146627565983
1.704789833822092
1.704789833822092
1.6959921798631477
1.6793743890518085
1.6549364613880744
1.629521016617791
1.603128054740958
1.56891495601173
1.5298142717497556
1.4887585532746823
1.447702834799609
1.4066471163245358
1.3655913978494625
1.3255131964809383
1.2854349951124144
1.2473118279569892
1.2121212121212122
1.187683284457478
1.1759530791788857
1.1798631476050832
1.2101661779081134
1.2746823069403714
1.3782991202346042
1.520039100684262
1.694037145650049
1.8914956011730208
2.0987292277614857
2.303030303030303
2.49266862170088
2.6578690127077222
2.7781036168132944
2.86217008797654
2.9266862170087977
2.962854349951124
2.9696969696969697
2.9472140762463344
2.8993157380254155
2.83088954056696
2.745845552297165
2.6471163245356792
2.5376344086021505
2.421309872922776
2.314760508308896
2.2111436950146626
2.0928641251221896
1.967741935483871
1.839687194525904
1.7116324535679377
1.587487781036168
1.469208211143695
1.3616813294232648
1.2668621700879763
1.1867057673509287
1.1251221896383188
1.083088954056696
1.06158357771261
1.0576735092864125
1.067448680351906
1.0918866080156402
1.1290322580645162
1.1759530791788857
1.2287390029325511
1.2854349951124144
1.343108504398827
1.3978494623655917
1.4486803519061584
1.4926686217008798
1.5268817204301075
1.5532746823069403
1.573802541544477
1.587487781036168
1.5933528836754642
1.5923753665689149
1.5835777126099706
1.5679374389051808
1.5464320625610948
1.520039100684262
1.4897360703812317
1.456500488758553
1.4203323558162269
1.3900293255131966
1.3626588465298142
1.3313782991202343
1.2981427174975562
1.2639296187683284
1.2287390029325511
1.1945259042033236
1.1652003910068427
1.1456500488758554
1.141739980449658
1.1622678396871946
1.2140762463343109
1.284457478005865
1.3782991202346042
1.5112414467253177
1.6764418377321604
1.86119257086999
2.0547409579667644
2.244379276637341
2.419354838709677
2.5718475073313782
2.6940371456500487
2.782991202346041
2.8367546432062563
2.8582600195503423
2.8514173998044967
2.822091886608016
2.771260997067449
2.7008797653958942
2.613880742913001
2.490713587487781
2.346041055718475
2.2111436950146626
2.078201368523949
1.9442815249266865
1.8103616813294232
1.6764418377321604
1.5610948191593352
1.457478005865103
1.3479960899315735
1.2424242424242424
1.147605083088954
1.0664711632453567
1.0039100684261977
0.959921798631476
0.9374389051808406
0.935483870967742
0.9530791788856304
0.9863147605083088
1.032258064516129
1.0821114369501466
1.133919843597263
1.1925708699902249
1.2541544477028348
1.313782991202346
1.3695014662756595
1.418377321603128
1.458455522971652
1.490713587487781
1.5151515151515151
1.530791788856305
1.5386119257087
1.5405669599217986
1.5376344086021505
1.5278592375366569
1.5112414467253177
1.4897360703812317
1.4633431085043989
1.434017595307918
1.401759530791789
1.3685239491691104
1.335288367546432
1.3020527859237536
1.2697947214076246
1.2365591397849462
1.2101661779081134
1.1867057673509287
1.1612903225806452
1.13880742913001
1.1280547409579669
1.1358748778103618
1.1710654936461389
1.2394916911045943
1.3421309872922775
1.478005865102639
1.640273704789834
1.8191593352883677
1.9804496578690127
2.1280547409579667
2.2844574780058653
2.432062561094819
2.5591397849462365
2.6578690127077222
2.7253176930596283
2.7614858260019552
2.7673509286412514
2.744868035190616
2.697947214076246
2.6295210166177907
2.5434995112414467
2.4545454545454546
2.361681329423265
2.2521994134897363
2.1309872922776147
2.0009775171065494
1.866080156402737
1.729227761485826
1.5923753665689149
1.458455522971652
1.332355816226784
1.2160312805474096
1.1133919843597262
1.0381231671554252
0.9843597262952102
0.9403714565004888
0.9130009775171064
0.9051808406647116
0.916911045943304
0.9472140762463344
0.9931573802541545
1.0498533724340176
1.1143695014662756
1.181818181818182
1.249266862170088
1.313782991202346
1.367546432062561
1.412512218963832
1.4545454545454546
1.4916911045943304
1.521016617790811
1.542521994134897
1.5562072336265884
1.5620723362658846
1.560117302052786
1.5503421309872922
1.5347018572825024
1.5141739980449658
1.4936461388074291
1.4731182795698925
1.4467253176930597
1.4173998044965788
1.3861192570869991
1.3528836754643203
1.3186705767350928
1.2834799608993157
1.2482893450635386
1.2130987292277615
1.1808406647116323
1.1573802541544478
1.1495601173020529
1.160312805474096
1.1974584555229717
1.267839687194526
1.3743890518084063
1.5151515151515151
1.6842619745845553
1.870967741935484
2.064516129032258
2.2521994134897363
2.4252199413489737
2.575757575757576
2.696969696969697
2.777126099706745
2.8240469208211145
2.850439882697948
2.8514173998044967
2.8269794721407626
2.7781036168132944
2.7096774193548385
2.624633431085044
2.5249266862170088
2.4134897360703813
2.2932551319648096
2.166177908113392
2.0498533724340176
1.93841642228739
1.812316715542522
1.6793743890518085
1.5454545454545454
1.41544477028348
1.2932551319648091
1.1827956989247312
1.0879765395894427
1.0117302052785924
0.9560117302052786
0.9217986314760508
0.9100684261974584
0.916911045943304
0.9393939393939394
0.978494623655914
1.0303030303030305
1.0918866080156402
1.1583577712609971
1.2267839687194526
1.2932551319648091
1.3558162267839686
1.412512218963832
1.4613880742913
1.5024437927663734
1.533724340175953
1.5562072336265884
1.5728250244379276
1.5826001955034212
1.585532746823069
1.581622678396872
1.5708699902248289
1.555229716520039
1.5347018572825024
1.5112414467253177
1.4848484848484849
1.456500488758553
1.426197458455523
1.3998044965786902
1.375366568914956
1.3440860215053765
1.3098729227761483
1.2746823069403714
1.2434017595307918
1.2218963831867058
1.2189638318670577
1.2443792766373412
1.3049853372434017
1.4027370478983383
1.5376344086021505
1.6764418377321604
1.8240469208211143
2.002932551319648
2.1925708699902247
2.378299120234604
2.548387096774193
2.6940371456500487
2.809384164222874
2.89247311827957
2.9423264907135875
2.959921798631476
2.9472140762463344
2.90811339198436
2.854349951124145
2.787878787878788
2.702834799608993
2.6041055718475072
2.493646138807429
2.375366568914956
2.2502443792766376
2.121212121212121
1.989247311827957
1.8563049853372435
1.7243401759530792
1.595307917888563
1.487781036168133
1.3949169110459434
1.3020527859237536
1.2179863147605083
1.1485826001955035
1.0987292277614855
1.0694037145650048
1.0606060606060606
1.0713587487781036
1.099706744868035
1.142717497556207
1.1974584555229717
1.2590420332355816
1.316715542521994
1.3714565004887584
1.4291300097751711
1.4848484848484849
1.5366568914956011
1.5806451612903225
1.616813294232649
1.6441837732160314
1.6627565982404693
1.672531769305963
1.6744868035190617
1.6686217008797657
1.6598240469208212
1.64613880742913
1.6265884652981428
