ppg
2.0117302052785924
1.9696969696969695
1.9237536656891496
1.878787878787879
1.836754643206256
1.796676441837732
1.7595307917888563
1.726295210166178
1.696969696969697
1.6705767350928642
1.6451612903225807
1.619745845552297
1.5943304007820136
1.5728250244379276
1.552297165200391
1.5268817204301075
1.499511241446725
1.4721407624633431
1.4457478005865103
1.4222873900293256
1.3988269794721409
1.3773216031280548
1.356793743890518
1.3333333333333333
1.3098729227761483
1.2903225806451613
1.273704789833822
1.2541544477028348
1.2336265884652982
1.2140762463343109
1.1945259042033236
1.1749755620723363
1.1544477028347997
1.1348973607038124
1.1163245356793745
1.099706744868035
1.083088954056696
1.072336265884653
1.064516129032258
1.053763440860215
1.0410557184750733
1.0263929618768328
1.0117302052785924
0.9960899315738024
0.9794721407624634
0.9638318670576737
0.9501466275659824
0.9403714565004888
0.93841642228739
0.9481915933528836
0.9716520039100685
1.0097751710654936
1.0654936461388074
1.1397849462365592
1.2297165200391007
1.3333333333333333
1.4457478005865103
1.563049853372434
1.678396871945259
1.7898338220918866
1.8963831867057677
1.9990224828934504
2.0840664711632453
2.156402737047898
2.23069403714565
2.2991202346041058
2.3597262952101663
2.4115347018572826
2.4516129032258065
2.4819159335288368
2.5004887585532747
2.5083088954056696
2.50733137829912
2.4975562072336266
2.4789833822091887
2.4545454545454546
2.4252199413489737
2.389051808406647
2.347018572825025
2.300097751710655
2.249266862170088
2.198435972629521
2.145650048875855
2.09188660801564
2.0391006842619745
1.9872922776148585
1.9393939393939397
1.8973607038123168
1.8602150537634408
1.825024437927664
1.7917888563049853
1.7605083088954057
1.7311827956989247
1.7057673509286413
1.6842619745845553
1.6656891495601174
1.64613880742913
1.624633431085044
1.6021505376344083
1.5777126099706744
1.5581622678396871
1.542521994134897
1.5239491691104594
1.500488758553275
1.474095796676442
1.4457478005865103
1.418377321603128
1.3919843597262953
1.3665689149560116
1.3411534701857282
1.3176930596285434
1.295210166177908
1.2776148582600195
1.2639296187683284
1.249266862170088
1.2316715542521994
1.2130987292277615
1.1935483870967742
1.173998044965787
1.1534701857282503
1.1300097751710656
1.10752688172043
1.0869990224828934
1.0694037145650048
1.053763440860215
1.043010752688172
1.035190615835777
1.0234604105571847
1.007820136852395
0.9902248289345064
0.9716520039100685
0.9521016617790812
0.9364613880742912
0.927663734115347
0.9296187683284456
0.9452590420332356
0.9775171065493646
1.0205278592375366
1.075268817204301
1.1495601173020529
1.2404692082111437
1.3440860215053765
1.456500488758553
1.573802541544477
1.6901270772238517
1.8054740957966764
1.916911045943304
2.0195503421309877
2.114369501466276
2.201368523949169
2.2688172043010755
2.321603128054741
2.375366568914956
2.4242424242424243
2.463343108504399
2.49266862170088
2.5112414467253177
2.5180840664711632
2.5141739980449658
2.498533724340176
2.472140762463343
2.4379276637341154
2.40078201368524
2.360703812316716
2.314760508308896
2.264907135874878
2.2130987292277613
2.1622678396871944
2.1114369501466275
2.059628543499511
2.0087976539589443
1.9579667644183771
1.90811339198436
1.86119257086999
1.81524926686217
1.7771260997067448
1.7438905180840665
1.7086999022482894
1.6735092864125125
1.6383186705767352
1.6041055718475072
1.5728250244379276
1.547409579667644
1.5249266862170088
1.5034213098729228
1.4819159335288368
1.4594330400782014
1.4408602150537635
1.4242424242424243
1.404692082111437
1.3841642228739004
1.3636363636363635
1.3421309872922775
1.3186705767350928
1.295210166177908
1.2717497556207231
1.2854349951124144
1.3206256109481915
1.3294232649071358
1.3235581622678396
1.3176930596285434
1.3098729227761483
1.2942326490713587
1.278592375366569
1.2619745845552297
1.2443792766373412
1.2267839687194526
1.2082111436950147
1.1896383186705768
1.1710654936461389
1.1495601173020529
1.1270772238514175
1.1114369501466277
1.0977517106549364
1.0801564027370478
1.0625610948191593
1.04594330400782
1.0332355816226784
1.0254154447702837
1.0273704789833822
1.043010752688172
1.0742913000977516
1.1241446725317692
1.195503421309873
1.2864125122189638
1.380254154447703
1.4809384164222874
1.6001955034213098
1.729227761485826
1.866080156402737
2.005865102639296
2.1407624633431084
2.269794721407625
2.3900293255131966
2.501466275659824
2.60019550342131
2.686217008797654
2.747800586510264
2.7947214076246336
2.8426197458455524
2.887585532746823
2.924731182795699
2.952101661779081
2.9687194525904204
2.973607038123167
2.967741935483871
2.948191593352884
2.917888563049853
2.8797653958944283
2.834799608993157
2.788856304985337
2.740957966764418
2.6901270772238512
2.638318670576735
2.5865102639296187
2.5347018572825024
2.4838709677419355
2.434017595307918
2.3841642228739004
2.3362658846529816
2.290322580645161
2.247311827956989
2.209188660801564
2.177908113391984
2.147605083088954
2.1192570869990224
2.0948191593352883
2.072336265884653
2.0498533724340176
2.026392961876833
2.003910068426197
1.9804496578690127
1.956989247311828
1.935483870967742
1.9188660801564028
1.9042033235581624
1.884652981427175
1.8631476050830889
1.839687194525904
1.8132942326490715
1.7859237536656891
1.758553274682307
1.7341153470185728
1.7096774193548387
1.686217008797654
1.6627565982404693
1.6412512218963833
1.624633431085044
1.608993157380254
1.5894428152492668
1.56891495601173
1.5503421309872922
1.5327468230694037
1.5151515151515151
1.4975562072336266
1.479960899315738
1.4623655913978495
1.444770283479961
1.4271749755620724
1.414467253176931
1.4037145650048877
1.3890518084066472
1.3743890518084063
1.364613880742913
1.3626588465298142
1.370478983382209
1.3919843597262953
1.43108504398827
1.4897360703812317
1.56891495601173
1.667644183773216
1.7839687194525904
1.895405669599218
2.005865102639296
2.134897360703812
2.272727272727273
2.409579667644184
2.5434995112414467
2.670576735092864
2.789833822091887
2.897360703812317
2.991202346041056
3.071358748778104
3.1378299120234603
3.182795698924731
3.2130987292277613
3.239491691104594
3.2580645161290325
3.2688172043010755
3.272727272727273
3.2688172043010755
3.2561094819159337
3.231671554252199
3.19941348973607
3.160312805474096
3.112414467253177
3.059628543499511
3.007820136852395
2.95405669599218
2.895405669599218
2.835777126099707
2.7751710654936463
2.7126099706744866
2.650048875855328
2.5865102639296187
2.5268817204301075
2.474095796676442
2.4242424242424243
2.376344086021505
2.335288367546432
2.3010752688172045
2.269794721407625
2.2385141739980448
2.2052785923753664
2.1730205278592374
2.1388074291300097
2.1065493646138806
2.078201368523949
2.0498533724340176
2.0205278592375366
1.992179863147605
1.9618768328445748
1.9364613880742916
1.916911045943304
1.895405669599218
1.8699902248289344
1.842619745845552
1.81524926686217
1.7869012707722385
1.7595307917888563
1.7341153470185728
1.7096774193548387
1.686217008797654
1.6627565982404693
1.6441837732160314
1.6256109481915937
1.603128054740958
1.5806451612903225
1.5571847507331378
1.5356793743890518
1.5131964809384164
1.487781036168133
1.4604105571847508
1.4320625610948192
1.404692082111437
1.3792766373411536
1.3558162267839686
1.33822091886608
1.324535679374389
1.310850439882698
1.2991202346041055
1.2932551319648091
1.2991202346041055
1.3206256109481915
1.3607038123167154
1.4213098729227762
1.501466275659824
1.5962854349951123
1.7057673509286413
1.8103616813294232
1.9130009775171064
2.032258064516129
2.1544477028347995
2.271749755620724
2.3841642228739004
2.489736070381232
2.5855327468230693
2.673509286412512
2.750733137829912
2.8152492668621703
2.8690127077223853
2.913978494623656
2.9423264907135875
2.956011730205278
2.964809384164223
2.9657869012707723
2.9579667644183774
2.940371456500489
2.913000977517106
2.874877810361681
2.8299120234604107
2.779081133919844
2.7253176930596283
2.667644183773216
2.6129032258064515
2.5591397849462365
2.5004887585532747
2.4379276637341154
2.3714565004887587
2.30791788856305
2.2502443792766376
2.1955034213098727
2.142717497556207
2.093841642228739
2.046920821114369
2.004887585532747
1.9667644183773216
1.9345063538611929
1.9071358748778104
1.878787878787879
1.8504398826979471
1.822091886608016
1.7956989247311828
1.7712609970674489
1.7458455522971652
1.721407624633431
1.6979472140762464
1.6715542521994136
1.6412512218963833
1.6158357771260996
1.5943304007820136
1.5698924731182795
1.5278592375366569
1.478005865102639
1.444770283479961
1.4173998044965788
1.3919843597262953
1.3665689149560116
1.3421309872922775
1.3196480938416422
1.2971652003910068
1.273704789833822
1.2541544477028348
1.2375366568914956
1.2189638318670577
1.198435972629521
1.1759530791788857
1.1544477028347997
1.1329423264907137
1.110459433040078
1.088954056695992
1.067448680351906
1.0478983382209188
1.0303030303030305
1.0195503421309873
1.0127077223851415
1.0048875855327468
1.002932551319648
1.0087976539589445
1.0273704789833822
1.0625610948191593
1.1143695014662756
1.18475073313783
1.2717497556207231
1.3724340175953078
1.479960899315738
1.5786901270772238
1.6735092864125125
1.7781036168132942
1.8866080156402736
1.9951124144672527
2.0987292277614857
2.1955034213098727
2.2825024437927666
2.356793743890518
2.418377321603128
2.4682306940371457
2.506353861192571
2.5347018572825024
2.5513196480938416
2.558162267839687
2.560117302052786
2.5562072336265884
2.5454545454545454
2.5268817204301075
2.4995112414467253
2.4652981427174976
2.426197458455523
2.3812316715542523
2.332355816226784
2.2795698924731185
2.2297165200391005
2.1818181818181817
2.1280547409579667
2.075268817204301
2.0234604105571847
1.9736070381231672
1.927663734115347
1.884652981427175
1.8435972629521016
1.8054740957966764
1.7683284457478006
1.732160312805474
1.6959921798631477
1.664711632453568
1.6392961876832846
1.6148582600195502
1.5923753665689149
1.5708699902248289
1.5483870967741935
1.5249266862170088
1.501466275659824
1.478005865102639
1.4535679374389052
1.4281524926686218
1.4037145650048877
1.3870967741935485
1.3734115347018572
1.3577712609970674
1.3421309872922775
1.3264907135874875
1.3118279569892473
1.2971652003910068
1.2795698924731185
1.260019550342131
1.2404692082111437
1.2218963831867058
1.2052785923753666
1.1886608015640274
1.1779081133919844
1.1710654936461389
1.1612903225806452
1.1515151515151516
1.141739980449658
1.1290322580645162
1.1143695014662756
1.099706744868035
1.0850439882697946
1.0694037145650048
1.053763440860215
1.040078201368524
1.0332355816226784
1.0312805474095796
1.0303030303030305
1.0361681329423265
1.0527859237536656
1.0850439882697946
1.1358748778103618
1.2043010752688172
1.2873900293255132
1.3841642228739004
1.490713587487781
1.603128054740958
1.7174975562072337
1.8162267839687196
1.9042033235581624
1.994134897360704
2.0821114369501466
2.163245356793744
2.2355816226783967
2.3010752688172045
2.358748778103617
2.406647116324536
2.444770283479961
2.474095796676442
2.496578690127077
2.50733137829912
2.509286412512219
2.505376344086021
2.49266862170088
2.4711632453567938
2.441837732160313
2.406647116324536
2.366568914956012
2.321603128054741
2.2737047898338223
2.2238514173998043
2.174975562072336
2.1270772238514173
2.086021505376344
2.046920821114369
2.005865102639296
1.964809384164223
1.9237536656891496
1.8826979472140764
1.842619745845552
1.8074291300097751
1.7771260997067448
1.7497556207233629
1.7223851417399805
1.696969696969697
1.6774193548387095
1.6588465298142718
1.6373411534701858
1.616813294232649
1.5962854349951123
1.5757575757575757
1.555229716520039
1.5327468230694037
1.509286412512219
1.4858260019550342
1.4652981427174976
1.4457478005865103
1.4271749755620724
1.414467253176931
1.4007820136852396
1.3841642228739004
1.3655913978494625
1.343108504398827
1.3206256109481915
1.2991202346041055
1.2776148582600195
1.2570869990224829
1.2365591397849462
1.217008797653959
1.1994134897360704
1.1886608015640274
1.1808406647116323
1.1700879765395895
1.1583577712609971
1.147605083088954
1.1368523949169111
1.1241446725317692
1.1124144672531768
1.1016617790811338
1.0909090909090908
1.083088954056696
1.078201368523949
1.078201368523949
1.0850439882697946
1.1016617790811338
1.1290322580645162
1.1710654936461389
1.2297165200391007
1.3049853372434017
1.396871945259042
1.500488758553275
1.6109481915933528
1.7233626588465298
1.8347996089931573
1.943304007820137
2.0332355816226784
2.1114369501466275
2.193548387096774
2.271749755620724
2.3440860215053765
2.409579667644184
2.4682306940371457
2.5161290322580645
2.5532746823069403
2.5806451612903225
2.598240469208211
2.606060606060606
2.603128054740958
2.591397849462365
2.5747800586510263
2.550342130987292
2.5190615835777126
2.4819159335288368
2.439882697947214
2.3958944281524928
2.3499511241446727
2.3010752688172045
2.251221896383187
2.20039100684262
2.150537634408602
2.10752688172043
2.069403714565005
2.0303030303030303
1.992179863147605
1.9579667644183771
1.9257086999022484
1.8963831867057677
1.870967741935484
1.8484848484848484
1.8269794721407624
1.804496578690127
1.7839687194525904
1.7634408602150538
1.7448680351906158
1.7282502443792769
1.7067448680351909
1.6842619745845553
1.66177908113392
1.640273704789834
1.6207233626588464
1.6021505376344083
1.5835777126099706
1.5972629521016617
1.6256109481915937
1.6265884652981428
1.619745845552297
1.6080156402737047
1.5913978494623655
1.5728250244379276
1.5542521994134897
1.5356793743890518
1.517106549364614
1.4975562072336266
1.478983382209189
1.4604105571847508
1.4408602150537635
1.4222873900293256
1.4076246334310851
1.396871945259042
1.3851417399804498
1.3714565004887584
1.356793743890518
1.3421309872922775
1.3264907135874875
1.3128054740957966
1.3010752688172045
1.2932551319648091
1.2942326490713587
1.3079178885630498
1.335288367546432
1.370478983382209
1.4164222873900294
1.482893450635386
1.5698924731182795
1.6744868035190617
1.793743890518084
1.9257086999022484
2.0664711632453567
2.209188660801564
2.3519061583577714
2.4916911045943304
2.6265884652981426
2.736070381231672
2.827956989247312
2.920821114369501
3.0087976539589443
3.0879765395894427
3.1544477028347995
3.2082111436950145
3.251221896383187
3.281524926686217
3.300097751710655
3.30791788856305
3.304985337243402
3.2932551319648096
3.270772238514174
3.239491691104594
3.201368523949169
3.157380254154448
3.1065493646138806
3.048875855327468
2.9872922776148583
2.924731182795699
2.86217008797654
2.80058651026393
2.740957966764418
2.6832844574780057
2.631476050830889
2.5865102639296187
2.5405669599217986
2.495601173020528
2.450635386119257
2.407624633431085
2.3704789833822093
2.3362658846529816
2.303030303030303
2.272727272727273
2.242424242424242
2.2130987292277613
2.185728250244379
2.163245356793744
2.142717497556207
2.1192570869990224
2.0948191593352883
2.070381231671554
2.0449657869012707
2.0195503421309877
1.994134897360704
1.967741935483871
1.93841642228739
1.90811339198436
1.87683284457478
1.8504398826979471
1.826001955034213
1.7996089931573802
1.7741935483870968
1.7487781036168133
1.7233626588465298
1.6979472140762464
1.672531769305963
1.6471163245356797
1.6217008797653958
1.598240469208211
1.576735092864125
1.5562072336265884
1.541544477028348
1.5288367546432062
1.5131964809384164
1.495601173020528
1.478005865102639
1.4594330400782014
1.4418377321603129
1.4291300097751711
1.4222873900293256
1.4271749755620724
1.444770283479961
1.478983382209189
1.5249266862170088
1.585532746823069
1.6695992179863148
1.775171065493646
1.8973607038123168
2.0283479960899315
2.163245356793744
2.300097751710655
2.434017595307918
2.5610948191593352
2.681329423264907
2.793743890518084
2.8963831867057674
2.9745845552297165
3.0391006842619745
3.104594330400782
3.164222873900293
3.2160312805474094
3.2580645161290325
3.2883675464320627
3.3069403714565007
3.313782991202346
3.3098729227761488
3.2932551319648096
3.264907135874878
3.2267839687194524
3.182795698924731
3.129032258064516
3.0664711632453567
2.99902248289345
2.927663734115347
2.855327468230694
2.7839687194525906
2.713587487781036
2.6451612903225805
2.579667644183773
2.5180840664711632
2.4604105571847508
2.4115347018572826
2.36950146627566
2.326490713587488
2.2854349951124147
2.249266862170088
2.2130987292277613
2.177908113391984
2.142717497556207
2.1065493646138806
2.069403714565005
2.032258064516129
1.9960899315738023
1.9667644183773216
1.9413489736070384
1.9130009775171064
1.8826979472140764
1.8523949169110456
1.823069403714565
1.7917888563049853
1.758553274682307
1.726295210166178
1.694037145650049
1.6627565982404693
1.6314760508308896
1.603128054740958
1.5826001955034212
1.5620723362658846
1.5366568914956011
1.5083088954056696
1.478005865102639
1.4467253176930597
1.4173998044965788
1.3900293255131966
1.3636363636363635
1.3391984359726294
1.3176930596285434
1.2981427174975562
1.2873900293255132
1.278592375366569
1.262952101661779
1.2424242424242424
1.2209188660801564
1.2013685239491692
1.1827956989247312
1.1691104594330402
1.164222873900293
1.1710654936461389
1.1915933528836755
1.23069403714565
1.2932551319648091
1.3655913978494625
1.447702834799609
1.552297165200391
1.672531769305963
1.801564027370479
1.935483870967742
2.071358748778104
2.204301075268817
2.3304007820136854
2.4486803519061584
2.557184750733138
2.6529814271749754
2.724340175953079
2.779081133919844
2.831867057673509
2.87683284457478
2.9120234604105573
2.9345063538611926
2.946236559139785
2.948191593352884
2.940371456500489
2.921798631476051
2.89345063538612
2.854349951124145
2.806451612903226
2.758553274682307
2.70772238514174
2.649071358748778
2.587487781036168
2.5239491691104594
2.4604105571847508
2.39980449657869
2.3411534701857284
2.283479960899316
2.2277614858260018
2.1739980449657867
2.1221896383186705
2.0772238514174
2.037145650048876
1.9990224828934504
1.963831867057673
1.9305962854349952
1.8993157380254155
1.8699902248289344
1.8406647116324533
1.8132942326490715
1.7869012707722385
1.761485826001955
1.7360703812316716
1.715542521994135
1.696969696969697
1.675464320625611
1.6520039100684265
1.5806451612903225
1.487781036168133
1.4320625610948192
1.392961876832845
1.3587487781036167
1.327468230694037
1.2971652003910068
1.2668621700879763
1.238514173998045
1.219941348973607
1.2082111436950147
1.1915933528836755
1.1720430107526882
1.1505376344086022
1.1280547409579669
1.1055718475073313
1.0811339198435972
1.056695992179863
1.0361681329423265
1.0166177908113392
0.9980449657869012
0.9863147605083088
0.9775171065493646
0.9648093841642228
0.9491691104594332
0.9325513196480938
0.916911045943304
0.9051808406647116
0.9002932551319648
0.9071358748778104
0.927663734115347
0.9657869012707724
1.0224828934506354
1.0957966764418376
1.1720430107526882
1.2551319648093842
1.3587487781036167
1.4760508308895406
1.6001955034213098
1.726295210166178
1.8514173998044965
1.9726295210166176
2.086021505376344
2.187683284457478
2.2766373411534704
2.3548387096774195
2.4144672531769307
2.458455522971652
2.498533724340176
2.530791788856305
2.5562072336265884
2.5698924731182795
2.572825024437928
2.5650048875855327
2.547409579667644
2.5190615835777126
2.482893450635386
2.439882697947214
2.389051808406647
2.3391984359726297
2.291300097751711
2.2375366568914954
2.1837732160312804
2.1300097751710654
2.0772238514174
2.024437927663734
1.9716520039100685
1.920821114369501
1.871945259042033
1.825024437927664
1.782991202346041
1.750733137829912
1.7243401759530792
1.696969696969697
1.6686217008797657
1.6392961876832846
1.611925708699902
1.587487781036168
1.5669599217986314
1.5483870967741935
1.5288367546432062
1.5073313782991202
1.4848484848484849
1.4613880742913
1.4428152492668622
1.426197458455523
1.4076246334310851
1.3890518084066472
1.3714565004887584
1.35386119257087
1.3362658846529814
1.3186705767350928
1.3010752688172045
1.2825024437927663
1.262952101661779
1.2443792766373412
1.23069403714565
1.2179863147605083
1.1994134897360704
1.1788856304985338
1.1573802541544478
1.1348973607038124
1.1114369501466277
1.0879765395894427
1.067448680351906
1.0498533724340176
1.032258064516129
1.0146627565982405
0.997067448680352
0.9853372434017597
0.978494623655914
0.9706744868035192
0.9638318670576737
0.9608993157380256
0.9648093841642228
0.9794721407624634
1.0087976539589445
1.0557184750733135
1.121212121212121
1.2043010752688172
1.3020527859237536
1.3998044965786902
1.499511241446725
1.6148582600195502
1.7360703812316716
1.8592375366568916
1.9804496578690127
2.096774193548387
2.206256109481916
2.30791788856305
2.39980449657869
2.4819159335288368
2.5532746823069403
2.6129032258064515
2.6529814271749754
2.678396871945259
2.6989247311827955
2.710654936461388
2.713587487781036
2.705767350928641
2.6901270772238512
2.667644183773216
2.6373411534701856
2.60019550342131
2.5562072336265884
2.504398826979472
2.453567937438905
2.401759530791789
2.346041055718475
2.2883675464320627
2.23069403714565
2.1730205278592374
2.1163245356793743
2.06158357771261
2.0087976539589443
1.9608993157380252
1.9178885630498532
1.8778103616813293
1.836754643206256
1.801564027370479
1.7732160312805474
1.7448680351906158
1.715542521994135
1.686217008797654
1.656891495601173
1.6275659824046922
1.6001955034213098
1.5747800586510263
1.5503421309872922
1.5278592375366569
1.5063538611925709
1.4897360703812317
1.4760508308895406
1.458455522971652
1.439882697947214
1.4203323558162269
1.401759530791789
1.3851417399804498
1.3695014662756595
1.3548387096774193
1.3411534701857282
1.3284457478005864
1.316715542521994
1.303030303030303
1.29227761485826
1.2825024437927663
1.2688172043010753
1.2531769305962854
1.2365591397849462
1.2209188660801564
1.2043010752688172
1.1867057673509287
1.1691104594330402
1.1495601173020529
1.1290322580645162
1.110459433040078
1.0977517106549364
1.0899315738025417
1.0821114369501466
1.078201368523949
1.0821114369501466
1.0987292277614855
1.1329423264907137
1.1867057673509287
1.260019550342131
1.3509286412512218
1.455522971652004
1.573802541544477
1.6823069403714566
1.7859237536656891
1.905180840664712
2.0303030303030303
2.1544477028347995
2.272727272727273
2.3851417399804498
2.4887585532746823
2.581622678396872
2.66177908113392
2.729227761485826
2.7839687194525906
2.8260019550342133
2.8514173998044967
2.865102639296188
2.87683284457478
2.8826979472140764
2.8797653958944283
2.868035190615836
2.8484848484848486
2.8211143695014664
2.7839687194525906
2.739980449657869
2.6911045943304006
2.6392961876832843
2.5884652981427174
2.539589442815249
2.4887585532746823
2.436950146627566
2.3851417399804498
2.334310850439883
2.2854349951124147
2.2375366568914954
2.1915933528836757
2.1515151515151514
2.117302052785924
2.085043988269794
2.0547409579667644
2.027370478983382
2.0019550342130987
1.9736070381231672
1.945259042033236
1.9159335288367547
1.8866080156402736
1.8602150537634408
1.835777126099707
1.8113391984359728
1.7878787878787878
1.7927663734115349
1.8113391984359728
1.8113391984359728
1.804496578690127
1.7917888563049853
1.7741935483870968
1.75366568914956
1.7341153470185728
1.715542521994135
1.6959921798631477
1.6764418377321604
1.6578690127077225
1.6383186705767352
1.619745845552297
1.6021505376344083
1.587487781036168
1.576735092864125
1.565982404692082
1.5542521994134897
1.5395894428152492
1.5239491691104594
1.5083088954056696
1.4916911045943304
1.4750733137829912
1.458455522971652
1.4408602150537635
1.423264907135875
1.4105571847507332
1.4027370478983383
1.3988269794721409
