ppg
1.7732160312805474
1.718475073313783
1.664711632453568
1.619745845552297
1.5786901270772238
1.5317693059628543
1.482893450635386
1.4349951124144673
1.3890518084066472
1.346041055718475
1.3118279569892473
1.2903225806451613
1.281524926686217
1.2864125122189638
1.3020527859237536
1.3255131964809383
1.3587487781036167
1.3998044965786902
1.4418377321603129
1.4809384164222874
1.5151515151515151
1.542521994134897
1.5610948191593352
1.5698924731182795
1.5708699902248289
1.5650048875855327
1.5532746823069403
1.5376344086021505
1.5239491691104594
1.5112414467253177
1.4946236559139785
1.4760508308895406
1.457478005865103
1.436950146627566
1.4134897360703813
1.3851417399804498
1.3558162267839686
1.3333333333333333
1.3225806451612905
1.335288367546432
1.367546432062561
1.4252199413489737
1.521994134897361
1.6529814271749756
1.8074291300097751
1.970674486803519
2.1300097751710654
2.2737047898338223
2.3929618768328447
2.4819159335288368
2.5405669599217986
2.5698924731182795
2.576735092864125
2.567937438905181
2.5464320625610948
2.5141739980449658
2.4750733137829912
2.429130009775171
2.3792766373411536
2.326490713587488
2.274682306940372
2.2238514173998043
2.1739980449657867
2.1417399804496577
2.1192570869990224
2.089931573802541
2.0547409579667644
2.0097751710654936
1.9608993157380252
1.9100684261974583
1.8563049853372435
1.8005865102639296
1.7458455522971652
1.6950146627565983
1.6490713587487782
1.606060606060606
1.5698924731182795
1.542521994134897
1.5268817204301075
1.5249266862170088
1.533724340175953
1.5542521994134897
1.5835777126099706
1.6177908113391983
1.6529814271749756
1.6871945259042034
1.7174975562072337
1.739980449657869
1.7546432062561097
1.7605083088954057
1.7605083088954057
1.7556207233626588
1.7429130009775171
1.7233626588465298
1.7008797653958945
1.6764418377321604
1.6529814271749756
1.6275659824046922
1.6021505376344083
1.576735092864125
1.5483870967741935
1.517106549364614
1.4848484848484849
1.4594330400782014
1.4408602150537635
1.4271749755620724
1.43108504398827
1.4613880742913
1.525904203323558
1.624633431085044
1.7526881720430108
1.902248289345064
2.059628543499511
2.2111436950146626
2.347018572825025
2.4486803519061584
2.5180840664711632
2.5698924731182795
2.60019550342131
2.6080156402737047
2.598240469208211
2.573802541544477
2.5386119257087
2.4946236559139785
2.4457478005865103
2.3929618768328447
2.3382209188660803
2.2825024437927666
2.23069403714565
2.1818181818181817
2.129032258064516
2.074291300097752
2.018572825024438
1.9608993157380252
1.900293255131965
1.8406647116324533
1.7810361681329423
1.721407624633431
1.6637341153470186
1.606060606060606
1.5581622678396871
1.517106549364614
1.4750733137829912
1.435972629521017
1.4027370478983383
1.3782991202346042
1.3665689149560116
1.3695014662756595
1.3851417399804498
1.4115347018572826
1.444770283479961
1.4809384164222874
1.5161290322580645
1.5464320625610948
1.5718475073313782
1.5923753665689149
1.6050830889540566
1.608993157380254
1.6050830889540566
1.5933528836754642
1.5777126099706744
1.5571847507331378
1.530791788856305
1.504398826979472
1.4809384164222874
1.4633431085043989
1.4467253176930597
1.4252199413489737
1.3988269794721409
1.367546432062561
1.3362658846529814
1.3118279569892473
1.3010752688172045
1.310850439882698
1.3499511241446724
1.4242424242424243
1.5356793743890518
1.6529814271749756
1.7790811339198436
1.9296187683284456
2.0840664711632453
2.2277614858260018
2.3499511241446727
2.442815249266862
2.505376344086021
2.5386119257087
2.547409579667644
2.536656891495601
2.509286412512219
2.4711632453567938
2.43108504398827
2.388074291300098
2.3391984359726297
2.289345063538612
2.2385141739980448
2.185728250244379
2.1309872922776147
2.075268817204301
2.018572825024438
1.962854349951124
1.9071358748778104
1.8494623655913975
1.7996089931573802
1.7546432062561097
1.7038123167155426
1.6480938416422288
1.5913978494623655
1.5386119257087
1.4897360703812317
1.4457478005865103
1.4105571847507332
1.3861192570869991
1.375366568914956
1.3792766373411536
1.3978494623655917
1.4252199413489737
1.457478005865103
1.495601173020528
1.5366568914956011
1.5757575757575757
1.6109481915933528
1.6392961876832846
1.6578690127077225
1.6656891495601174
1.6656891495601174
1.6588465298142718
1.6480938416422288
1.6373411534701858
1.6256109481915937
1.608993157380254
1.590420332355816
1.5708699902248289
1.5503421309872922
1.5288367546432062
1.5053763440860215
1.479960899315738
1.457478005865103
1.4418377321603129
1.4408602150537635
1.4652981427174976
1.509286412512219
1.5796676441837731
1.689149560117302
1.8347996089931573
2.005865102639296
2.182795698924731
2.3519061583577714
2.501466275659824
2.621700879765396
2.708699902248289
2.7624633431085046
2.7869012707722387
2.7869012707722387
2.7722385141739982
2.745845552297165
2.710654936461388
2.670576735092864
2.625610948191593
2.576735092864125
2.5268817204301075
2.4760508308895406
2.423264907135875
2.3685239491691106
2.313782991202346
2.259042033235582
2.2082111436950145
2.160312805474096
2.10752688172043
2.0518084066471163
1.992179863147605
1.9315738025415443
1.871945259042033
1.8142717497556209
1.7565982404692082
1.7028347996089932
1.656891495601173
1.6177908113391983
1.5923753665689149
1.5777126099706744
1.573802541544477
1.5835777126099706
1.6050830889540566
1.6363636363636365
1.672531769305963
1.7086999022482894
1.7438905180840665
1.772238514173998
1.7917888563049853
1.8035190615835777
1.8064516129032255
1.8025415444770283
1.7947214076246334
1.782991202346041
1.7663734115347018
1.7458455522971652
1.7223851417399805
1.6979472140762464
1.672531769305963
1.6480938416422288
1.6226783968719452
1.5943304007820136
1.5620723362658846
1.5317693059628543
1.5053763440860215
1.478983382209189
1.4604105571847508
1.4594330400782014
1.4848484848484849
1.543499511241447
1.6373411534701858
1.7644183773216031
1.9159335288367547
2.0772238514174
2.2355816226783967
2.3792766373411536
2.486803519061584
2.5610948191593352
2.618768328445748
2.653958944281525
2.662756598240469
2.6480938416422286
2.616813294232649
2.575757575757576
2.5249266862170088
2.4682306940371457
2.409579667644184
2.3499511241446727
2.2952101661779083
2.242424242424242
2.182795698924731
2.121212121212121
2.060606060606061
1.997067448680352
1.9315738025415443
1.866080156402737
1.8005865102639296
1.7350928641251222
1.6695992179863148
1.6050830889540566
1.542521994134897
1.490713587487781
1.447702834799609
1.401759530791789
1.356793743890518
1.3176930596285434
1.2913000977517106
1.2805474095796676
1.284457478005865
1.303030303030303
1.3343108504398826
1.3734115347018572
1.4134897360703813
1.4486803519061584
1.479960899315738
1.509286412512219
1.5317693059628543
1.5464320625610948
1.5532746823069403
1.5542521994134897
1.5464320625610948
1.5298142717497556
1.5063538611925709
1.478983382209189
1.4486803519061584
1.418377321603128
1.3949169110459434
1.375366568914956
1.3499511241446724
1.3196480938416422
1.2883675464320623
1.260019550342131
1.2375366568914956
1.2258064516129032
1.2365591397849462
1.281524926686217
1.3665689149560116
1.4897360703812317
1.6207233626588464
1.761485826001955
1.9286412512218964
2.0987292277614857
2.2531769305962857
2.3812316715542523
2.47702834799609
2.5386119257087
2.56891495601173
2.5747800586510263
2.560117302052786
2.5288367546432062
2.4858260019550342
2.439882697947214
2.3929618768328447
2.3391984359726297
2.281524926686217
2.222873900293255
2.163245356793744
2.103616813294233
2.0439882697947214
1.9853372434017595
1.9257086999022484
1.8631476050830889
1.8005865102639296
1.747800586510264
1.6989247311827955
1.6441837732160314
1.585532746823069
1.5268817204301075
1.4711632453567938
1.4193548387096775
1.3743890518084063
1.33822091886608
1.313782991202346
1.303030303030303
1.3069403714565004
1.3225806451612905
1.3470185728250244
1.3792766373411536
1.4203323558162269
1.4652981427174976
1.5073313782991202
1.541544477028348
1.5669599217986314
1.58455522971652
1.5933528836754642
1.5933528836754642
1.5865102639296187
1.5747800586510263
1.563049853372434
1.5503421309872922
1.533724340175953
1.5141739980449658
1.4936461388074291
1.4721407624633431
1.4496578690127078
1.4242424242424243
1.3978494623655917
1.3724340175953078
1.3528836754643203
1.348973607038123
1.3616813294232648
1.3988269794721409
1.4750733137829912
1.5913978494623655
1.7419354838709675
1.9178885630498532
2.102639296187683
2.2795698924731185
2.4359726295210167
2.560117302052786
2.6480938416422286
2.7008797653958942
2.7223851417399803
2.7223851417399803
2.705767350928641
2.67644183773216
2.638318670576735
2.5943304007820136
2.5454545454545454
2.4916911045943304
2.4349951124144678
2.376344086021505
2.318670576735093
2.26197458455523
2.2052785923753664
2.1515151515151514
2.1006842619745845
2.0449657869012707
1.9872922776148585
1.9296187683284456
1.8699902248289344
1.8093841642228736
1.747800586510264
1.6705767350928642
1.6021505376344083
1.5542521994134897
1.5053763440860215
1.4633431085043989
1.4349951124144673
1.4193548387096775
1.4134897360703813
1.4203323558162269
1.439882697947214
1.4701857282502444
1.5053763440860215
1.5493646138807429
1.587487781036168
1.611925708699902
1.632453567937439
1.64613880742913
1.6529814271749756
1.6520039100684265
1.6412512218963833
1.6236559139784943
1.6011730205278591
1.5777126099706744
1.5542521994134897
1.5298142717497556
1.504398826979472
1.4750733137829912
1.4437927663734116
1.4134897360703813
1.3841642228739004
1.3616813294232648
1.3421309872922775
1.3225806451612905
1.313782991202346
1.3264907135874875
1.3665689149560116
1.439882697947214
1.5493646138807429
1.6881720430107527
1.8455522971652003
2.005865102639296
2.157380254154448
2.27761485826002
2.367546432062561
2.442815249266862
2.493646138807429
2.5180840664711632
2.5190615835777126
2.501466275659824
2.4682306940371457
2.426197458455523
2.377321603128055
2.3225806451612905
2.2668621700879767
2.209188660801564
2.15347018572825
2.101661779081134
2.0449657869012707
1.9872922776148585
1.911045943304008
1.8416422287390029
1.7771260997067448
1.715542521994135
1.6500488758553276
1.5835777126099706
1.533724340175953
1.47702834799609
1.4173998044965788
1.3714565004887584
1.335288367546432
1.2873900293255132
1.24633431085044
1.2258064516129032
1.2189638318670577
1.219941348973607
1.2375366568914956
1.2766373411534702
1.321603128054741
1.3558162267839686
1.3870967741935485
1.423264907135875
1.4516129032258065
1.4721407624633431
1.4819159335288368
1.482893450635386
1.4809384164222874
1.4682306940371457
1.444770283479961
1.4213098729227762
1.3988269794721409
1.3743890518084063
1.35386119257087
1.335288367546432
1.3118279569892473
1.2854349951124144
1.2570869990224829
1.23069403714565
1.209188660801564
1.1994134897360704
1.2111436950146628
1.2531769305962854
1.3313782991202343
1.452590420332356
1.6099706744868034
1.7624633431085044
1.911045943304008
2.074291300097752
2.2297165200391005
2.361681329423265
2.4613880742913
2.527859237536657
2.5640273704789838
2.573802541544477
2.560117302052786
2.527859237536657
2.484848484848485
2.4408602150537635
2.3929618768328447
2.3391984359726297
2.2844574780058653
2.228739002932551
2.1730205278592374
2.115347018572825
2.056695992179863
1.9990224828934504
1.9413489736070384
1.884652981427175
1.827956989247312
1.7702834799608993
1.718475073313783
1.6695992179863148
1.6158357771260996
1.560117302052786
1.504398826979472
1.4506353861192571
1.4027370478983383
1.3626588465298142
1.3343108504398826
1.3186705767350928
1.3186705767350928
1.3343108504398826
1.359726295210166
1.392961876832845
1.4330400782013686
1.478005865102639
1.521016617790811
1.560117302052786
1.5923753665689149
1.6158357771260996
1.629521016617791
1.635386119257087
1.6314760508308896
1.6207233626588464
1.6080156402737047
1.5933528836754642
1.5747800586510263
1.5542521994134897
1.5327468230694037
1.5102639296187683
1.4858260019550342
1.458455522971652
1.4291300097751711
1.401759530791789
1.3822091886608017
1.3792766373411536
1.4027370478983383
1.4457478005865103
1.5151515151515151
1.6275659824046922
1.775171065493646
1.9472140762463344
2.1280547409579667
2.302052785923754
2.455522971652004
2.578690127077224
2.670576735092864
2.730205278592375
2.760508308895406
2.7653958944281527
2.752688172043011
2.7262952101661777
2.689149560117302
2.643206256109482
2.592375366568915
2.5386119257087
2.482893450635386
2.4281524926686218
2.372434017595308
2.314760508308896
2.2580645161290325
2.20039100684262
2.146627565982405
2.0957966764418376
2.038123167155425
1.975562072336266
1.9100684261974583
1.844574780058651
1.7810361681329423
1.718475073313783
1.6588465298142718
1.6050830889540566
1.555229716520039
1.5102639296187683
1.478005865102639
1.457478005865103
1.4457478005865103
1.4467253176930597
1.4613880742913
1.487781036168133
1.521994134897361
1.560117302052786
1.5962854349951123
1.6275659824046922
1.651026392961877
1.6656891495601174
1.6715542521994136
1.6735092864125125
1.6695992179863148
1.6578690127077225
1.6392961876832846
1.6158357771260996
1.5913978494623655
1.5679374389051808
1.543499511241447
1.517106549364614
1.4887585532746823
1.457478005865103
1.4242424242424243
1.3978494623655917
1.3763440860215057
1.3558162267839686
1.3450635386119256
1.3528836754643203
1.3861192570869991
1.452590420332356
1.555229716520039
1.6911045943304008
1.8484848484848484
2.0117302052785924
2.16911045943304
2.3069403714565007
2.406647116324536
2.474095796676442
2.52297165200391
2.549364613880743
2.552297165200391
2.535679374389052
2.5034213098729228
2.4613880742913
2.412512218963832
2.357771260997068
2.302052785923754
2.243401759530792
2.1867057673509285
2.132942326490713
2.075268817204301
2.016617790811339
1.9560117302052784
1.8914956011730208
1.8269794721407624
1.7624633431085044
1.6979472140762464
1.632453567937439
1.56891495601173
1.5083088954056696
1.4516129032258065
1.4056695992179864
1.3665689149560116
1.3235581622678396
1.2854349951124144
1.2580645161290325
1.2424242424242424
1.2394916911045943
1.249266862170088
1.270772238514174
1.3040078201368523
1.3450635386119256
1.3870967741935485
1.423264907135875
1.455522971652004
1.4848484848484849
1.5063538611925709
1.521016617790811
1.5288367546432062
1.5278592375366569
1.521016617790811
1.5073313782991202
1.4887585532746823
1.4682306940371457
1.4457478005865103
1.4203323558162269
1.3988269794721409
1.3792766373411536
1.35386119257087
1.3255131964809383
1.2991202346041055
1.2805474095796676
1.2795698924731185
1.3069403714565004
1.3724340175953078
1.474095796676442
1.6099706744868034
1.7732160312805474
1.927663734115347
2.0733137829912023
2.2277614858260018
2.3685239491691106
2.482893450635386
2.5640273704789838
2.611925708699902
2.63049853372434
2.625610948191593
2.603128054740958
2.5669599217986314
2.5219941348973607
2.472140762463343
2.423264907135875
2.3734115347018574
2.318670576735093
2.2629521016617797
2.203323558162268
2.142717497556207
2.0840664711632453
2.0254154447702835
1.967741935483871
1.9120234604105573
1.855327468230694
1.7986314760508308
1.7497556207233629
1.7028347996089932
1.651026392961877
1.6011730205278591
1.5532746823069403
1.5083088954056696
1.4672531769305963
1.4349951124144673
1.4164222873900294
1.409579667644184
1.4164222873900294
1.4349951124144673
1.4643206256109482
1.4975562072336266
1.5327468230694037
1.5708699902248289
1.608993157380254
1.643206256109482
1.6715542521994136
1.6920821114369502
1.7018572825024438
1.7038123167155426
1.6989247311827955
1.6881720430107527
1.6744868035190617
1.66177908113392
1.6500488758553276
1.632453567937439
1.6109481915933528
1.587487781036168
1.5532746823069403
1.5102639296187683
1.4682306940371457
1.4291300097751711
1.4007820136852396
1.393939393939394
1.4203323558162269
1.4848484848484849
1.5679374389051808
1.6744868035190617
1.8211143695014664
1.994134897360704
2.174975562072336
2.3440860215053765
2.4887585532746823
2.603128054740958
2.6823069403714563
2.727272727272727
2.7438905180840663
2.736070381231672
2.7116324535679373
2.67644183773216
2.63049853372434
2.5747800586510263
2.5131964809384164
2.450635386119257
2.3870967741935485
2.3225806451612905
2.257086999022483
2.190615835777126
2.126099706744868
2.064516129032258
2.010752688172043
1.959921798631476
1.905180840664712
1.8484848484848484
1.790811339198436
1.7311827956989247
1.667644183773216
1.6041055718475072
1.542521994134897
1.482893450635386
1.4291300097751711
1.388074291300098
1.3616813294232648
1.3509286412512218
1.3548387096774193
1.3695014662756595
1.3949169110459434
1.4291300097751711
1.4701857282502444
1.5112414467253177
1.547409579667644
1.5777126099706744
1.6001955034213098
1.6138807429130009
1.6177908113391983
1.6158357771260996
1.607038123167155
1.5894428152492668
1.5679374389051808
1.542521994134897
1.5151515151515151
1.487781036168133
1.4594330400782014
1.4291300097751711
1.3978494623655917
1.367546432062561
1.3362658846529814
1.3049853372434017
1.281524926686217
1.2697947214076246
1.2717497556207231
1.2991202346041055
1.3607038123167154
1.4594330400782014
1.5923753665689149
1.750733137829912
1.920821114369501
2.0879765395894427
2.239491691104594
2.363636363636364
2.447702834799609
2.498533724340176
2.527859237536657
2.536656891495601
2.5268817204301075
2.498533724340176
2.4545454545454546
2.40078201368524
2.343108504398827
2.283479960899316
2.222873900293255
2.161290322580645
2.099706744868035
2.04594330400782
1.9951124144672527
1.9403714565004888
1.8836754643206255
1.825024437927664
1.7634408602150538
1.699902248289345
1.6373411534701858
1.5757575757575757
1.5141739980449658
1.455522971652004
1.3998044965786902
1.35386119257087
1.3147605083088951
1.2766373411534702
1.2453567937438903
1.2258064516129032
1.219941348973607
1.2287390029325511
1.2512218963831867
1.2854349951124144
1.327468230694037
1.370478983382209
1.4115347018572826
1.4467253176930597
1.474095796676442
1.495601173020528
1.509286412512219
1.5141739980449658
1.512218963831867
1.5024437927663734
1.4858260019550342
1.466275659824047
1.444770283479961
1.4222873900293256
1.3988269794721409
1.3743890518084063
1.3528836754643203
1.3333333333333333
1.3088954056695992
1.2864125122189638
1.273704789833822
1.2795698924731185
1.3128054740957966
1.3822091886608017
1.4916911045943304
1.6373411534701858
1.8103616813294232
1.9960899315738023
2.1788856304985336
2.324535679374389
2.4349951124144678
2.530791788856305
2.5992179863147604
2.6392961876832843
2.6529814271749754
2.6451612903225805
2.6207233626588464
2.581622678396872
2.5347018572825024
2.482893450635386
2.4281524926686218
2.375366568914956
2.324535679374389
2.269794721407625
2.2130987292277613
2.156402737047898
2.101661779081134
2.047898338220919
1.9951124144672527
1.9403714565004888
1.8836754643206255
1.826001955034213
1.7683284457478006
1.7086999022482894
1.6549364613880744
1.608993157380254
1.563049853372434
1.5161290322580645
1.4721407624633431
1.435972629521017
1.4105571847507332
1.3988269794721409
1.401759530791789
1.4193548387096775
1.4506353861192571
1.490713587487781
1.5298142717497556
1.565982404692082
1.603128054740958
1.6373411534701858
1.6666666666666667
1.6871945259042034
1.696969696969697
1.6989247311827955
1.694037145650049
1.683284457478006
1.6656891495601174
1.6422287390029326
1.6158357771260996
1.5923753665689149
1.5718475073313782
1.547409579667644
1.517106549364614
1.4848484848484849
1.4535679374389052
1.4281524926686218
1.4134897360703813
1.4213098729227762
1.458455522971652
1.5327468230694037
1.6451612903225807
1.7644183773216031
1.8914956011730208
2.0439882697947214
2.2052785923753664
2.357771260997068
2.4838709677419355
2.576735092864125
2.636363636363636
2.6666666666666665
2.6715542521994133
2.6559139784946235
2.625610948191593
2.58455522971652
2.5386119257087
2.489736070381232
2.4330400782013686
2.372434017595308
2.310850439882698
2.251221896383187
2.190615835777126
2.129032258064516
2.067448680351906
2.005865102639296
1.946236559139785
1.8856304985337244
1.8299120234604105
1.7771260997067448
1.718475073313783
1.656891495601173
1.595307917888563
1.5386119257087
1.4868035190615836
1.4389051808406648
1.396871945259042
1.364613880742913
1.3421309872922775
1.332355816226784
1.3362658846529814
1.348973607038123
1.3685239491691104
1.3988269794721409
1.435972629521017
1.4731182795698925
1.5083088954056696
1.5376344086021505
1.5581622678396871
1.5679374389051808
1.5669599217986314
1.5591397849462365
1.5454545454545454
1.5298142717497556
1.5141739980449658
1.490713587487781
1.4613880742913
1.4281524926686218
1.3949169110459434
1.3626588465298142
1.3294232649071358
1.2932551319648091
1.2541544477028348
1.2179863147605083
1.1935483870967742
1.1857282502443791
1.1974584555229717
1.2365591397849462
1.3128054740957966
1.4252199413489737
1.5698924731182795
1.7360703812316716
1.9071358748778104
2.069403714565005
2.210166177908113
2.3196480938416424
2.396871945259042
2.443792766373412
2.464320625610948
2.4652981427174976
2.4486803519061584
2.4173998044965788
2.376344086021505
2.326490713587488
2.271749755620724
2.2130987292277613
2.155425219941349
2.0957966764418376
2.032258064516129
1.9687194525904204
1.913978494623656
1.86119257086999
1.7996089931573802
1.7360703812316716
1.6705767350928642
1.606060606060606
1.543499511241447
1.4809384164222874
1.4213098729227762
1.3655913978494625
1.3147605083088951
1.267839687194526
1.227761485826002
1.2013685239491692
1.1886608015640274
1.18475073313783
1.1935483870967742
1.2179863147605083
1.2561094819159335
1.3010752688172045
1.3479960899315735
1.393939393939394
1.4349951124144673
1.4682306940371457
1.4926686217008798
1.509286412512219
1.517106549364614
1.517106549364614
1.5102639296187683
1.499511241446725
1.4838709677419355
1.4652981427174976
1.444770283479961
1.4222873900293256
1.3988269794721409
1.3734115347018572
1.346041055718475
1.316715542521994
1.2932551319648091
1.2766373411534702
1.2717497556207231
1.29227761485826
1.3499511241446724
1.4496578690127078
1.5884652981427174
1.7546432062561097
1.93841642228739
2.12316715542522
2.291300097751711
2.4330400782013686
2.5347018572825024
2.601173020527859
2.64613880742913
2.668621700879765
2.6695992179863146
2.652003910068426
2.618768328445748
2.572825024437928
2.5210166177908118
2.464320625610948
2.4027370478983383
2.340175953079179
2.278592375366569
2.222873900293255
2.172043010752688
2.1192570869990224
2.064516129032258
2.005865102639296
1.946236559139785
1.8866080156402736
1.826001955034213
1.7644183773216031
1.7028347996089932
1.6412512218963833
1.581622678396872
1.533724340175953
1.4916911045943304
1.4467253176930597
1.4037145650048877
1.370478983382209
1.348973607038123
1.3440860215053765
1.3558162267839686
1.380254154447703
1.4164222873900294
1.4623655913978495
1.509286412512219
1.5542521994134897
1.5913978494623655
1.6207233626588464
1.6451612903225807
1.6598240469208212
1.6656891495601174
1.6637341153470186
1.6559139784946235
1.6422287390029326
1.6265884652981428
1.6099706744868034
1.590420332355816
1.56891495601173
1.5503421309872922
1.5317693059628543
1.5053763440860215
1.474095796676442
1.4418377321603129
1.4134897360703813
1.3978494623655917
1.4056695992179864
1.4457478005865103
1.5249266862170088
1.6422287390029326
1.7888563049853372
1.95405669599218
2.101661779081134
2.231671554252199
2.360703812316716
2.4711632453567938
2.5542521994134897
2.606060606060606
2.6285434995112413
2.627565982404692
2.6080156402737047
2.5718475073313782
2.5268817204301075
2.47702834799609
2.429130009775171
