ppg
2.329423264907136
2.303030303030303
2.272727272727273
2.2385141739980448
2.20039100684262
2.157380254154448
2.10752688172043
2.0518084066471163
1.9980449657869013
1.9442815249266865
1.8826979472140764
1.8162267839687196
1.7487781036168133
1.6842619745845553
1.6256109481915937
1.5747800586510263
1.5327468230694037
1.4975562072336266
1.4711632453567938
1.4506353861192571
1.4379276637341154
1.43108504398827
1.4281524926686218
1.426197458455523
1.4242424242424243
1.4203323558162269
1.414467253176931
1.4076246334310851
1.3998044965786902
1.4134897360703813
1.436950146627566
1.439882697947214
1.436950146627566
1.43108504398827
1.418377321603128
1.404692082111437
1.3900293255131966
1.3763440860215057
1.3626588465298142
1.3479960899315735
1.3343108504398826
1.3206256109481915
1.305962854349951
1.29227761485826
1.278592375366569
1.267839687194526
1.260019550342131
1.2512218963831867
1.2424242424242424
1.2336265884652982
1.2228739002932552
1.2111436950146628
1.1994134897360704
1.1915933528836755
1.198435972629521
1.2287390029325511
1.2903225806451613
1.370478983382209
1.4760508308895406
1.6236559139784943
1.8025415444770283
2.0009775171065494
2.2023460410557183
2.393939393939394
2.5650048875855327
2.70772238514174
2.8211143695014664
2.906158357771261
2.967741935483871
3.0087976539589443
3.0283479960899315
3.032258064516129
3.0303030303030303
3.024437927663734
3.0117302052785924
2.994134897360704
2.9716520039100685
2.9472140762463344
2.917888563049853
2.8836754643206257
2.843597262952102
2.7966764418377323
2.748778103616813
2.696969696969697
2.635386119257087
2.565982404692082
2.4887585532746823
2.403714565004888
2.310850439882698
2.2130987292277613
2.112414467253177
2.0127077223851417
1.919843597262952
1.836754643206256
1.7624633431085044
1.704789833822092
1.6588465298142718
1.6177908113391983
1.5806451612903225
1.5493646138807429
1.5239491691104594
1.5024437927663734
1.4819159335288368
1.4623655913978495
1.4437927663734116
1.4242424242424243
1.4027370478983383
1.3841642228739004
1.3685239491691104
1.348973607038123
1.327468230694037
1.3040078201368523
1.278592375366569
1.2512218963831867
1.2238514173998043
1.1964809384164223
1.1681329423264908
1.1397849462365592
1.1133919843597262
1.088954056695992
1.072336265884653
1.0606060606060606
1.0478983382209188
1.0342130987292275
1.0205278592375366
1.0048875855327468
0.9863147605083088
0.967741935483871
0.9491691104594332
0.9305962854349952
0.9130009775171064
0.8983382209188661
0.8914956011730205
0.8875855327468231
0.8807429130009775
0.8729227761485826
0.8651026392961877
0.8582600195503421
0.8504398826979472
0.8435972629521017
0.8387096774193549
0.833822091886608
0.83088954056696
0.8269794721407625
0.823069403714565
0.823069403714565
0.8240469208211144
0.8240469208211144
0.8240469208211144
0.8240469208211144
0.8240469208211144
0.8240469208211144
0.8240469208211144
0.8240469208211144
0.8240469208211144
0.8240469208211144
0.8240469208211144
0.8269794721407625
0.8318670576735093
0.8347996089931574
0.8357771260997068
0.8396871945259042
0.8543499511241447
0.8905180840664711
0.959921798631476
1.0684261974584557
1.219941348973607
1.4105571847507332
1.629521016617791
1.8631476050830889
2.065493646138808
2.242424242424242
2.4222873900293256
2.5865102639296187
2.727272727272727
2.838709677419355
2.9227761485826003
2.983382209188661
3.022482893450636
3.0449657869012707
3.053763440860215
3.0518084066471163
3.0391006842619745
3.0195503421309877
2.9960899315738025
2.9696969696969697
2.93841642228739
2.902248289345064
2.8611925708699903
2.814271749755621
2.7624633431085046
2.7038123167155423
2.638318670576735
2.565982404692082
2.487781036168133
2.4134897360703813
2.340175953079179
2.259042033235582
2.174975562072336
2.09188660801564
2.0146627565982405
1.9442815249266865
1.8836754643206255
1.8347996089931573
1.7947214076246334
1.7634408602150538
1.739980449657869
1.7233626588465298
1.7116324535679377
1.699902248289345
1.6881720430107527
1.6774193548387095
1.6666666666666667
1.653958944281525
1.6412512218963833
1.6275659824046922
1.611925708699902
1.5923753665689149
1.5718475073313782
1.552297165200391
1.5366568914956011
1.5239491691104594
1.5102639296187683
1.4965786901270772
1.482893450635386
1.469208211143695
1.4535679374389052
1.4379276637341154
1.4222873900293256
1.4066471163245358
1.391006842619746
1.3763440860215057
1.3655913978494625
1.356793743890518
1.3450635386119256
1.3343108504398826
1.327468230694037
1.321603128054741
1.3157380254154447
1.3098729227761483
1.3010752688172045
1.289345063538612
1.2766373411534702
1.267839687194526
1.2727272727272727
1.2932551319648091
1.335288367546432
1.4134897360703813
1.5288367546432062
1.678396871945259
1.855327468230694
2.047898338220919
2.242424242424242
2.426197458455523
2.5884652981427174
2.7253176930596283
2.832844574780059
2.9042033235581624
2.949169110459433
2.98435972629521
3.007820136852395
3.0205278592375366
3.024437927663734
3.0195503421309877
3.006842619745845
2.989247311827957
2.9667644183773216
2.9393939393939394
2.9071358748778104
2.8729227761485827
2.834799608993157
2.790811339198436
2.7419354838709675
2.6881720430107525
2.627565982404692
2.558162267839687
2.479960899315738
2.393939393939394
2.302052785923754
2.206256109481916
2.10752688172043
2.0117302052785924
1.9315738025415443
1.8631476050830889
1.796676441837732
1.7605083088954057
1.7468230694037146
1.7272727272727273
1.7086999022482894
1.6920821114369502
1.6774193548387095
1.6637341153470186
1.651026392961877
1.6383186705767352
1.6285434995112416
1.6207233626588464
1.608993157380254
1.595307917888563
1.5796676441837731
1.563049853372434
1.543499511241447
1.521994134897361
1.500488758553275
1.479960899315738
1.4594330400782014
1.4389051808406648
1.4173998044965788
1.4007820136852396
1.3870967741935485
1.3724340175953078
1.356793743890518
1.3401759530791788
1.3235581622678396
1.3069403714565004
1.2903225806451613
1.273704789833822
1.2580645161290325
1.2443792766373412
1.2336265884652982
1.2287390029325511
1.227761485826002
1.224828934506354
1.2209188660801564
1.2140762463343109
1.2072336265884651
1.198435972629521
1.187683284457478
1.1759530791788857
1.1622678396871946
1.1485826001955035
1.13880742913001
1.13880742913001
1.152492668621701
1.1857282502443791
1.2473118279569892
1.3421309872922775
1.4672531769305963
1.6187683284457477
1.7869012707722385
1.9589442815249267
2.124144672531769
2.272727272727273
2.39980449657869
2.5034213098729228
2.5747800586510263
2.621700879765396
2.6578690127077222
2.6803519061583576
2.689149560117302
2.687194525904203
2.677419354838709
2.6637341153470184
2.6451612903225805
2.621700879765396
2.592375366568915
2.5591397849462365
2.5219941348973607
2.4819159335288368
2.439882697947214
2.391006842619746
2.3362658846529816
2.2737047898338223
2.204301075268817
2.129032258064516
2.048875855327468
1.964809384164223
1.881720430107527
1.801564027370479
1.7243401759530792
1.6608015640273706
1.6080156402737047
1.5571847507331378
1.5131964809384164
1.478005865102639
1.4516129032258065
1.434017595307918
1.4213098729227762
1.4134897360703813
1.4076246334310851
1.404692082111437
1.404692082111437
1.4066471163245358
1.4115347018572826
1.414467253176931
1.414467253176931
1.4115347018572826
1.4066471163245358
1.3978494623655917
1.388074291300098
1.3792766373411536
1.370478983382209
1.3626588465298142
1.356793743890518
1.3519061583577712
1.3499511241446724
1.3470185728250244
1.3421309872922775
1.335288367546432
1.327468230694037
1.3186705767350928
1.3079178885630498
1.2961876832844574
1.2854349951124144
1.2756598240469208
1.2668621700879763
1.2580645161290325
1.252199413489736
1.2502443792766371
1.249266862170088
1.24633431085044
1.2424242424242424
1.238514173998045
1.2346041055718475
1.23069403714565
1.227761485826002
1.227761485826002
1.2355816226783969
1.2551319648093842
1.295210166177908
1.3499511241446724
1.4271749755620724
1.542521994134897
1.6911045943304008
1.86119257086999
2.0410557184750733
2.217986314760508
2.383186705767351
2.5288367546432062
2.652003910068426
2.750733137829912
2.825024437927664
2.87683284457478
2.9042033235581624
2.9149560117302054
2.918866080156403
2.913978494623656
2.903225806451613
2.887585532746823
2.8670576735092865
2.843597262952102
2.817204301075269
2.788856304985337
2.755620723362659
2.717497556207233
2.677419354838709
2.632453567937439
2.5777126099706744
2.5141739980449658
2.441837732160313
2.364613880742913
2.283479960899316
2.19941348973607
2.117302052785924
2.0391006842619745
1.9667644183773216
1.902248289345064
1.8465298142717497
1.804496578690127
1.7732160312805474
1.7448680351906158
1.7223851417399805
1.704789833822092
1.6911045943304008
1.6803519061583578
1.6695992179863148
1.6578690127077225
1.6471163245356797
1.635386119257087
1.6207233626588464
1.608993157380254
1.5972629521016617
1.5835777126099706
1.5679374389051808
1.5513196480938416
1.5317693059628543
1.512218963831867
1.4916911045943304
1.4711632453567938
1.4506353861192571
1.4320625610948192
1.41544477028348
1.4027370478983383
1.393939393939394
1.3841642228739004
1.3734115347018572
1.3626588465298142
1.3509286412512218
1.33822091886608
1.324535679374389
1.3118279569892473
1.3010752688172045
1.29227761485826
1.2834799608993157
1.2766373411534702
1.2756598240469208
1.2756598240469208
1.273704789833822
1.2697947214076246
1.2639296187683284
1.2570869990224829
1.2502443792766371
1.2443792766373412
1.2394916911045943
1.2375366568914956
1.2375366568914956
1.2375366568914956
1.2394916911045943
1.241446725317693
1.2424242424242424
1.2424242424242424
1.2424242424242424
1.2443792766373412
1.2453567937438903
1.2453567937438903
1.2453567937438903
1.2453567937438903
1.2453567937438903
1.2453567937438903
1.2453567937438903
1.2473118279569892
1.2502443792766371
1.252199413489736
1.2512218963831867
1.2482893450635386
1.2473118279569892
1.24633431085044
1.2473118279569892
1.2482893450635386
1.249266862170088
1.249266862170088
1.2482893450635386
1.2482893450635386
1.2482893450635386
1.2473118279569892
1.2502443792766371
1.267839687194526
1.3079178885630498
1.380254154447703
1.4897360703812317
1.6373411534701858
1.8172043010752688
2.01564027370479
2.225806451612903
2.4389051808406648
2.6148582600195502
2.757575757575758
2.8944281524926687
3.0127077223851417
3.1065493646138806
3.177908113391984
3.2297165200391005
3.2658846529814274
3.2873900293255134
3.2961876832844577
3.2952101661779083
3.2854349951124147
3.264907135874878
3.2385141739980448
3.209188660801564
3.175953079178885
3.136852394916911
3.09188660801564
3.0410557184750733
2.983382209188661
2.918866080156403
2.84652981427175
2.7653958944281527
2.678396871945259
2.582600195503421
2.4916911045943304
2.4027370478983383
2.302052785923754
2.1945259042033234
2.0879765395894427
1.9872922776148585
1.8934506353861196
1.8084066471163245
1.7350928641251222
1.672531769305963
1.6187683284457477
1.5747800586510263
1.542521994134897
1.517106549364614
1.490713587487781
1.4652981427174976
1.4408602150537635
1.4193548387096775
1.3998044965786902
1.3782991202346042
1.3558162267839686
1.3333333333333333
1.310850439882698
1.289345063538612
1.2688172043010753
1.2541544477028348
1.2424242424242424
1.2267839687194526
1.2101661779081134
1.1925708699902249
1.1749755620723363
1.1564027370478984
1.1397849462365592
1.1231671554252198
1.1065493646138806
1.0918866080156402
1.0772238514173995
1.067448680351906
1.0606060606060606
1.0498533724340176
1.0381231671554252
1.0254154447702837
1.0117302052785924
0.9990224828934506
0.9882697947214076
0.978494623655914
0.9687194525904204
0.959921798631476
0.9501466275659824
0.9413489736070382
0.9364613880742912
0.9364613880742912
0.935483870967742
0.9335288367546432
0.9325513196480938
0.9296187683284456
0.9266862170087976
0.9227761485826002
0.916911045943304
0.9130009775171064
0.9110459433040078
0.9100684261974584
0.9130009775171064
0.9178885630498532
0.9208211143695014
0.9217986314760508
0.9227761485826002
0.9227761485826002
0.9247311827956988
0.9305962854349952
0.93841642228739
0.946236559139785
0.9550342130987292
0.9638318670576737
0.9726295210166178
0.9833822091886608
0.9931573802541545
1.0
1.0058651026392962
1.0117302052785924
1.0166177908113392
1.021505376344086
1.029325513196481
1.0498533724340176
1.0918866080156402
1.163245356793744
1.2717497556207231
1.392961876832845
1.533724340175953
1.7174975562072337
1.9266862170087975
2.144672531769306
2.358748778103617
2.555229716520039
2.7253176930596283
2.8670576735092865
2.978494623655914
3.060606060606061
3.117302052785924
3.15347018572825
3.1681329423264906
3.167155425219941
3.160312805474096
3.146627565982405
3.1270772238514173
3.102639296187683
3.071358748778104
3.035190615835777
2.995112414467253
2.951124144672532
2.903225806451613
2.8484848484848486
2.789833822091887
2.727272727272727
2.6559139784946235
2.5777126099706744
2.493646138807429
2.4056695992179864
2.314760508308896
2.2238514173998043
2.1378299120234603
2.056695992179863
1.9833822091886608
1.921798631476051
1.8729227761485825
1.836754643206256
1.8103616813294232
1.7898338220918866
1.7732160312805474
1.761485826001955
1.7526881720430108
1.7438905180840665
1.7341153470185728
1.7253176930596286
1.715542521994135
1.7038123167155426
1.6881720430107527
1.672531769305963
1.656891495601173
1.6373411534701858
1.616813294232649
1.5943304007820136
1.5728250244379276
1.5532746823069403
1.5327468230694037
1.5102639296187683
1.487781036168133
1.4643206256109482
1.4428152492668622
1.4281524926686218
1.4173998044965788
1.4056695992179864
1.392961876832845
1.3792766373411536
1.3655913978494625
1.3519061583577712
1.33822091886608
1.324535679374389
1.310850439882698
1.2981427174975562
1.2883675464320623
1.281524926686217
1.2776148582600195
1.2756598240469208
1.273704789833822
1.2727272727272727
1.2727272727272727
1.2727272727272727
1.2727272727272727
1.2727272727272727
1.2727272727272727
1.270772238514174
1.267839687194526
1.2649071358748778
1.2649071358748778
1.2649071358748778
1.2639296187683284
1.262952101661779
1.262952101661779
1.262952101661779
1.262952101661779
1.262952101661779
1.262952101661779
1.262952101661779
1.262952101661779
1.262952101661779
1.262952101661779
1.2649071358748778
1.2688172043010753
1.270772238514174
1.2717497556207231
1.270772238514174
1.2668621700879763
1.2609970674486803
1.2580645161290325
1.262952101661779
1.2825024437927663
1.3264907135874875
1.404692082111437
1.499511241446725
1.619745845552297
1.7849462365591398
1.9794721407624636
2.188660801564027
2.39980449657869
2.598240469208211
2.777126099706745
2.9315738025415445
3.059628543499511
3.161290322580645
3.239491691104594
3.300097751710655
3.3362658846529816
3.35386119257087
3.367546432062561
3.3743890518084068
3.3743890518084068
3.366568914956012
3.3528836754643208
3.332355816226784
3.304985337243402
3.271749755620724
3.232649071358749
3.189638318670577
3.1436950146627565
3.093841642228739
3.0361681329423265
2.9716520039100685
2.832844574780059
2.656891495601173
2.529814271749756
2.4242424242424243
2.3304007820136854
2.2404692082111435
2.15347018572825
2.072336265884653
1.9960899315738023
1.9345063538611929
1.8826979472140764
1.8328445747800584
1.7878787878787878
1.7487781036168133
1.7174975562072337
1.6911045943304008
1.6695992179863148
1.6529814271749756
1.6373411534701858
1.6207233626588464
1.603128054740958
1.5865102639296187
1.56891495601173
1.5483870967741935
1.5268817204301075
1.5053763440860215
1.482893450635386
1.4604105571847508
1.4389051808406648
1.4193548387096775
1.3988269794721409
1.3773216031280548
1.35386119257087
1.3304007820136852
1.310850439882698
1.295210166177908
1.2776148582600195
1.2580645161290325
1.2365591397849462
1.2160312805474096
1.198435972629521
1.1827956989247312
1.1671554252199414
1.1534701857282503
1.1407624633431086
1.1270772238514175
1.1163245356793745
1.1094819159335287
1.1006842619745845
1.0899315738025417
1.0791788856304985
1.0694037145650048
1.0606060606060606
1.0527859237536656
1.0449657869012707
1.0371456500488758
1.0303030303030305
1.0224828934506354
1.0156402737047898
1.0146627565982405
1.0166177908113392
1.0175953079178883
1.018572825024438
1.018572825024438
1.0175953079178883
1.0166177908113392
1.013685239491691
1.010752688172043
1.0087976539589445
1.0068426197458455
1.0058651026392962
1.007820136852395
1.0117302052785924
1.013685239491691
1.0175953079178883
1.0224828934506354
1.0254154447702837
1.0283479960899315
1.0312805474095796
1.032258064516129
1.032258064516129
1.0303030303030305
1.0283479960899315
1.0283479960899315
1.0332355816226784
1.0469208211143697
1.0762463343108504
1.130987292277615
1.2160312805474096
1.332355816226784
1.4760508308895406
1.6412512218963833
1.818181818181818
1.994134897360704
2.160312805474096
2.3088954056695994
2.421309872922776
2.50733137829912
2.58455522971652
2.64613880742913
2.6930596285435
2.7262952101661777
2.7468230694037143
2.755620723362659
2.7536656891495603
2.7438905180840663
2.7262952101661777
2.701857282502444
2.674486803519061
2.644183773216031
2.610948191593353
2.5747800586510263
2.535679374389052
2.49266862170088
2.444770283479961
2.3919843597262958
2.333333333333333
2.267839687194526
2.198435972629521
2.1251221896383186
2.0518084066471163
1.988269794721408
1.9305962854349952
1.871945259042033
1.8191593352883677
1.7732160312805474
1.7341153470185728
1.704789833822092
1.6842619745845553
1.6705767350928642
1.66177908113392
1.6578690127077225
1.6559139784946235
1.6549364613880744
1.653958944281525
1.6520039100684265
1.6471163245356797
1.6422287390029326
1.6363636363636365
1.6275659824046922
1.616813294232649
1.603128054740958
1.5865102639296187
1.56891495601173
1.5513196480938416
1.533724340175953
1.521016617790811
1.509286412512219
1.4965786901270772
1.4819159335288368
1.466275659824047
1.4496578690127078
1.4330400782013686
1.418377321603128
1.4056695992179864
1.392961876832845
1.3822091886608017
1.3724340175953078
1.3655913978494625
1.3626588465298142
1.3587487781036167
1.3548387096774193
1.3509286412512218
1.3470185728250244
1.3440860215053765
1.3401759530791788
1.3362658846529814
1.332355816226784
1.3294232649071358
1.327468230694037
1.324535679374389
1.3235581622678396
1.3235581622678396
1.3235581622678396
1.324535679374389
1.3264907135874875
1.327468230694037
1.3264907135874875
1.324535679374389
1.321603128054741
1.316715542521994
1.3128054740957966
1.3157380254154447
1.3294232649071358
1.3587487781036167
1.414467253176931
1.500488758553275
1.6187683284457477
1.7644183773216031
1.927663734115347
2.099706744868035
2.2688172043010755
2.4281524926686218
2.56891495601173
2.686217008797654
2.780058651026393
2.8426197458455524
2.8807429130009776
2.9120234604105573
2.9345063538611926
2.948191593352884
2.9550342130987293
2.9530791788856305
2.9472140762463344
2.9393939393939394
2.9266862170087977
2.9100684261974585
2.889540566959922
2.865102639296188
2.834799608993157
2.80058651026393
2.7595307917888565
2.713587487781036
2.66177908113392
2.6021505376344085
2.536656891495601
2.464320625610948
2.3870967741935485
2.3069403714565007
2.2238514173998043
2.1407624633431084
2.0684261974584555
2.003910068426197
1.9374389051808407
1.873900293255132
1.8162267839687196
1.7673509286412512
1.7272727272727273
1.694037145650049
1.6686217008797657
1.6490713587487782
1.632453567937439
1.6158357771260996
1.6011730205278591
1.587487781036168
1.5718475073313782
1.5542521994134897
1.5376344086021505
1.520039100684262
1.501466275659824
1.4809384164222874
1.4594330400782014
1.4389051808406648
1.4193548387096775
1.3998044965786902
1.3792766373411536
1.3607038123167154
1.3440860215053765
1.324535679374389
1.303030303030303
1.2825024437927663
1.2619745845552297
1.2404692082111437
1.2209188660801564
1.2023460410557183
1.1857282502443791
1.1720430107526882
1.1593352883675463
1.1515151515151516
1.1456500488758554
1.1348973607038124
1.1221896383186705
1.10752688172043
1.0928641251221896
1.0791788856304985
1.0664711632453567
1.0547409579667644
1.043010752688172
1.0332355816226784
1.024437927663734
1.0166177908113392
1.0127077223851415
1.010752688172043
1.0068426197458455
1.002932551319648
0.9990224828934506
0.9951124144672532
0.9912023460410556
0.9872922776148584
0.9833822091886608
0.9794721407624634
0.975562072336266
0.9726295210166178
0.9736070381231672
0.975562072336266
0.9765395894428152
0.9775171065493646
0.9775171065493646
0.9775171065493646
0.9775171065493646
0.9775171065493646
0.9775171065493646
0.9794721407624634
0.9843597262952102
0.9902248289345064
0.997067448680352
1.0068426197458455
1.0156402737047898
1.0205278592375366
1.024437927663734
1.0273704789833822
1.0303030303030305
1.0332355816226784
1.0361681329423265
1.0371456500488758
1.0381231671554252
1.0381231671554252
1.040078201368524
1.0478983382209188
1.064516129032258
1.0987292277614855
1.160312805474096
1.2561094819159335
1.3870967741935485
1.5513196480938416
1.7390029325513197
1.93841642228739
2.1358748778103616
2.321603128054741
2.486803519061584
2.6285434995112413
2.7311827956989245
2.8044965786901277
2.8690127077223853
2.917888563049853
2.9501466275659824
2.9687194525904204
2.9745845552297165
2.9696969696969697
2.9579667644183774
2.935483870967742
2.9120234604105573
2.89247311827957
2.866080156402737
2.835777126099707
2.8025415444770285
2.7653958944281527
2.7223851417399803
2.6715542521994133
2.611925708699902
2.5454545454545454
2.472140762463343
2.393939393939394
2.312805474095797
2.231671554252199
2.15347018572825
2.086021505376344
2.0283479960899315
1.970674486803519
1.9188660801564028
1.8758553274682308
1.8416422287390029
1.81524926686217
1.7947214076246334
1.780058651026393
1.7712609970674489
1.7644183773216031
1.7575757575757576
1.750733137829912
1.7448680351906158
1.737047898338221
1.726295210166178
1.7135874877810362
1.6989247311827955
1.6813294232649072
1.66177908113392
1.643206256109482
1.624633431085044
1.6050830889540566
1.5865102639296187
1.56891495601173
1.5542521994134897
1.5376344086021505
1.521016617790811
1.5053763440860215
1.4897360703812317
1.474095796676442
1.4594330400782014
1.4437927663734116
1.4301075268817205
1.4173998044965788
1.4056695992179864
1.3949169110459434
1.3870967741935485
1.3812316715542523
1.375366568914956
1.370478983382209
1.3665689149560116
1.3636363636363635
1.3616813294232648
1.3587487781036167
1.3548387096774193
1.3509286412512218
1.3470185728250244
1.343108504398827
1.3401759530791788
1.33822091886608
1.335288367546432
1.332355816226784
1.3284457478005864
1.324535679374389
1.3235581622678396
1.3313782991202343
1.356793743890518
1.404692082111437
1.4809384164222874
1.5884652981427174
1.7253176930596286
1.86119257086999
2.0
2.164222873900293
2.333333333333333
2.4916911045943304
2.63049853372434
2.747800586510264
2.8406647116324537
2.9100684261974585
2.959921798631476
2.9960899315738025
3.018572825024438
3.0254154447702835
3.022482893450636
3.016617790811339
3.005865102639296
2.991202346041056
2.972629521016618
2.951124144672532
2.9266862170087977
2.897360703812317
2.863147605083089
2.8240469208211145
2.779081133919844
2.727272727272727
2.673509286412512
2.6177908113391983
2.5532746823069403
2.4819159335288368
2.4027370478983383
2.318670576735093
2.232649071358749
2.145650048875855
2.059628543499511
1.9775171065493649
1.9042033235581624
1.8406647116324533
1.7927663734115349
1.7565982404692082
1.7253176930596286
1.6979472140762464
1.675464320625611
1.6588465298142718
1.6451612903225807
1.6304985337243405
