ppg
1.1173020527859236
1.1192570869990224
1.1192570869990224
1.118279569892473
1.1163245356793745
1.1124144672531768
1.1065493646138806
1.075268817204301
1.0303030303030305
1.0019550342130987
0.9833822091886608
0.9706744868035192
0.959921798631476
0.95405669599218
0.9521016617790812
0.9491691104594332
0.946236559139785
0.9433040078201368
0.9403714565004888
0.9374389051808406
0.9345063538611924
0.9335288367546432
0.935483870967742
0.9423264907135877
0.956989247311828
0.9775171065493646
1.0068426197458455
1.050830889540567
1.1094819159335287
1.1808406647116323
1.2619745845552297
1.348973607038123
1.436950146627566
1.520039100684262
1.5962854349951123
1.6627565982404693
1.718475073313783
1.7653958944281525
1.7986314760508308
1.823069403714565
1.847507331378299
1.8699902248289344
1.8914956011730208
1.9120234604105573
1.9315738025415443
1.948191593352884
1.962854349951124
1.9745845552297163
1.9833822091886608
1.9872922776148585
1.9853372434017595
1.9775171065493649
1.963831867057673
1.9413489736070384
1.911045943304008
1.871945259042033
1.8240469208211143
1.76930596285435
1.7096774193548387
1.6471163245356797
1.58455522971652
1.5249266862170088
1.4682306940371457
1.423264907135875
1.3861192570869991
1.3499511241446724
1.3176930596285434
1.289345063538612
1.2658846529814272
1.2443792766373412
1.224828934506354
1.2052785923753666
1.1857282502443791
1.164222873900293
1.141739980449658
1.1231671554252198
1.1055718475073313
1.0840664711632453
1.0596285434995112
1.0342130987292275
1.007820136852395
0.981427174975562
0.95405669599218
0.9266862170087976
0.9002932551319648
0.8748778103616813
0.8514173998044966
0.8299120234604106
0.8152492668621701
0.8054740957966764
0.7947214076246334
0.7839687194525904
0.7741935483870968
0.7663734115347018
0.7605083088954057
0.7556207233626588
0.7536656891495601
0.7526881720430108
0.7536656891495601
0.7546432062561095
0.7585532746823069
0.7634408602150538
0.7653958944281525
0.7663734115347018
0.7663734115347018
0.7644183773216031
0.7624633431085044
0.761485826001955
0.7605083088954057
0.7605083088954057
0.761485826001955
0.7634408602150538
0.7673509286412512
0.7741935483870968
0.7820136852394917
0.7878787878787878
0.7927663734115347
0.7956989247311828
0.7986314760508308
0.7996089931573802
0.7996089931573802
0.7996089931573802
0.7996089931573802
0.7986314760508308
0.7966764418377321
0.7976539589442815
0.7996089931573802
0.7976539589442815
0.7956989247311828
0.793743890518084
0.7927663734115347
0.7956989247311828
0.804496578690127
0.823069403714565
0.855327468230694
0.9022482893450636
0.9657869012707724
1.0449657869012707
1.1251221896383188
1.2082111436950147
1.305962854349951
1.4086021505376345
1.5102639296187683
1.6050830889540566
1.6920821114369502
1.7683284457478006
1.8347996089931573
1.89247311827957
1.9423264907135875
1.986314760508309
2.0195503421309877
2.04594330400782
2.075268817204301
2.1055718475073317
2.132942326490713
2.157380254154448
2.176930596285435
2.190615835777126
2.1974584555229715
2.1955034213098727
2.185728250244379
2.166177908113392
2.1388074291300097
2.1065493646138806
2.069403714565005
2.0234604105571847
1.9716520039100685
1.916911045943304
1.8602150537634408
1.8054740957966764
1.7526881720430108
1.704789833822092
1.66177908113392
1.6256109481915937
1.5943304007820136
1.5708699902248289
1.5513196480938416
1.5327468230694037
1.5151515151515151
1.4975562072336266
1.478005865102639
1.457478005865103
1.435972629521017
1.4134897360703813
1.3919843597262953
1.370478983382209
1.348973607038123
1.3284457478005864
1.310850439882698
1.295210166177908
1.2766373411534702
1.2580645161290325
1.2394916911045943
1.2218963831867058
1.2052785923753666
1.1886608015640274
1.1730205278592376
1.1583577712609971
1.144672531769306
1.1319648093841643
1.1221896383186705
1.1143695014662756
1.1055718475073313
1.0957966764418376
1.0850439882697946
1.0742913000977516
1.0654936461388074
1.056695992179863
1.0478983382209188
1.040078201368524
1.0342130987292275
1.0283479960899315
1.0234604105571847
1.0205278592375366
1.0195503421309873
1.0166177908113392
1.0127077223851415
1.0087976539589445
1.0048875855327468
1.0009775171065494
0.9960899315738024
0.9902248289345064
0.9843597262952102
0.978494623655914
0.9726295210166178
0.9696969696969696
0.9687194525904204
0.9657869012707724
0.9618768328445748
0.9579667644183774
0.95405669599218
0.9501466275659824
0.946236559139785
0.9413489736070382
0.9364613880742912
0.9315738025415444
0.9266862170087976
0.9247311827956988
0.9257086999022482
0.927663734115347
0.9345063538611924
0.9511241446725318
0.981427174975562
1.029325513196481
1.0957966764418376
1.1798631476050832
1.278592375366569
1.3870967741935485
1.500488758553275
1.611925708699902
1.704789833822092
1.7839687194525904
1.865102639296188
1.9413489736070384
2.0087976539589443
2.067448680351906
2.118279569892473
2.1622678396871944
2.2023460410557183
2.2375366568914954
2.2688172043010755
2.2961876832844577
2.313782991202346
2.493646138807429
2.757575757575758
2.89247311827957
2.9579667644183774
2.983382209188661
2.9824046920821115
2.962854349951124
2.9286412512218964
2.8797653958944283
2.819159335288368
2.7497556207233624
2.6725317693059627
2.60019550342131
2.530791788856305
2.4574780058651027
2.3851417399804498
2.317693059628544
2.257086999022483
2.204301075268817
2.158357771260997
2.1192570869990224
2.085043988269794
2.0527859237536656
2.021505376344086
1.994134897360704
1.9687194525904204
1.9403714565004888
1.9090909090909087
1.8758553274682308
1.8416422287390029
1.8064516129032255
1.772238514173998
1.7380254154447703
1.704789833822092
1.6715542521994136
1.6392961876832846
1.6080156402737047
1.5826001955034212
1.5620723362658846
1.5386119257087
1.5141739980449658
1.4897360703812317
1.466275659824047
1.4428152492668622
1.4193548387096775
1.396871945259042
1.3763440860215057
1.3577712609970674
1.3401759530791788
1.327468230694037
1.3176930596285434
1.3049853372434017
1.29227761485826
1.2795698924731185
1.2668621700879763
1.2551319648093842
1.2443792766373412
1.2346041055718475
1.224828934506354
1.2160312805474096
1.2072336265884651
1.198435972629521
1.1935483870967742
1.1896383186705768
1.1837732160312806
1.176930596285435
1.1700879765395895
1.163245356793744
1.1564027370478984
1.1505376344086022
1.1436950146627567
1.1368523949169111
1.1300097751710656
1.1221896383186705
1.118279569892473
1.115347018572825
1.110459433040078
1.1055718475073313
1.104594330400782
1.1124144672531768
1.133919843597263
1.1730205278592376
1.2336265884652982
1.3186705767350928
1.4271749755620724
1.555229716520039
1.6959921798631477
1.825024437927664
1.946236559139785
2.0791788856304985
2.2111436950146626
2.335288367546432
2.4486803519061584
2.549364613880743
2.6373411534701856
2.7145650048875853
2.782013685239492
2.8396871945259043
2.889540566959922
2.924731182795699
2.9501466275659824
2.9765395894428157
2.99902248289345
3.01564027370479
3.0254154447702835
3.026392961876833
3.0195503421309877
3.0019550342130987
2.972629521016618
2.9315738025415445
2.8797653958944283
2.8181818181818183
2.7546432062561097
2.689149560117302
2.613880742913001
2.535679374389052
2.458455522971652
2.386119257086999
2.320625610948192
2.2629521016617797
2.2111436950146626
2.166177908113392
2.126099706744868
2.089931573802541
2.059628543499511
2.032258064516129
2.002932551319648
1.9726295210166176
1.9403714565004888
1.906158357771261
1.870967741935484
1.835777126099707
1.7996089931573802
1.7624633431085044
1.726295210166178
1.6911045943304008
1.6559139784946235
1.6275659824046922
1.603128054740958
1.5757575757575757
1.5483870967741935
1.521994134897361
1.495601173020528
1.4701857282502444
1.4467253176930597
1.4242424242424243
1.4027370478983383
1.3822091886608017
1.3616813294232648
1.3470185728250244
1.335288367546432
1.3206256109481915
1.3049853372434017
1.289345063538612
1.2746823069403714
1.260019550342131
1.24633431085044
1.2326490713587488
1.219941348973607
1.209188660801564
1.1994134897360704
1.1896383186705768
1.18475073313783
1.181818181818182
1.176930596285435
1.1720430107526882
1.1065493646138806
1.110459433040078
1.1231671554252198
1.1515151515151516
1.2003910068426198
1.2727272727272727
1.370478983382209
1.4916911045943304
1.6129032258064515
1.7380254154447703
1.8856304985337244
2.040078201368524
2.1925708699902247
2.335288367546432
2.464320625610948
2.576735092864125
2.6725317693059627
2.7517106549364616
2.8181818181818183
2.874877810361681
2.9149560117302054
2.946236559139785
2.981427174975562
3.0175953079178885
3.0527859237536656
3.085043988269794
3.113391984359726
3.134897360703812
3.1485826001955037
3.1515151515151514
3.144672531769306
3.1251221896383186
3.090909090909091
3.048875855327468
2.9980449657869013
2.9345063538611926
2.8611925708699903
2.7810361681329425
2.696969696969697
2.6129032258064515
2.530791788856305
2.4545454545454546
2.386119257086999
2.324535679374389
2.269794721407625
2.225806451612903
2.188660801564027
2.1524926686217007
2.117302052785924
2.083088954056696
2.048875855327468
2.013685239491691
1.9775171065493649
1.9403714565004888
1.9012707722385145
1.8621700879765395
1.822091886608016
1.782991202346041
1.750733137829912
1.721407624633431
1.689149560117302
1.6559139784946235
1.6236559139784943
1.5943304007820136
1.565982404692082
1.5112414467253177
1.4428152492668622
1.3978494623655917
1.3636363636363635
1.335288367546432
1.3147605083088951
1.2981427174975562
1.2776148582600195
1.2570869990224829
1.2355816226783969
1.2140762463343109
1.1935483870967742
1.173998044965787
1.155425219941349
1.1378299120234605
1.121212121212121
1.1055718475073313
1.0918866080156402
1.083088954056696
1.078201368523949
1.072336265884653
1.0654936461388074
1.0586510263929618
1.0518084066471165
1.0449657869012707
1.0381231671554252
1.0312805474095796
1.024437927663734
1.018572825024438
1.013685239491691
1.0117302052785924
1.0127077223851415
1.010752688172043
1.0068426197458455
1.0019550342130987
0.997067448680352
0.9921798631476052
0.9882697947214076
0.9853372434017597
0.9824046920821116
0.9804496578690128
0.978494623655914
0.9775171065493646
0.9804496578690128
0.9872922776148584
1.0
1.0234604105571847
1.0635386119257086
1.1241446725317692
1.2082111436950147
1.3157380254154447
1.444770283479961
1.590420332355816
1.7458455522971652
1.903225806451613
2.037145650048876
2.155425219941349
2.2795698924731185
2.398826979472141
2.50733137829912
2.6050830889540566
2.69208211143695
2.768328445747801
2.8367546432062563
2.897360703812317
2.952101661779081
3.0009775171065494
3.0439882697947214
3.071358748778104
3.0879765395894427
3.103616813294233
3.114369501466276
3.115347018572825
3.1055718475073317
3.083088954056696
3.048875855327468
3.0019550342130987
2.9423264907135875
2.8719452590420333
2.793743890518084
2.717497556207233
2.6422287390029324
2.5620723362658846
2.4809384164222874
2.403714565004888
2.332355816226784
2.2688172043010755
2.2111436950146626
2.160312805474096
2.114369501466276
2.071358748778104
2.03128054740958
1.9931573802541545
1.959921798631476
1.9286412512218964
1.8934506353861196
1.857282502443793
1.8191593352883677
1.7810361681329423
1.7419354838709675
1.7018572825024438
1.66177908113392
1.6226783968719452
1.58455522971652
1.5483870967741935
1.5190615835777126
1.4946236559139785
1.4672531769305963
1.4408602150537635
1.414467253176931
1.3890518084066472
1.364613880742913
1.3411534701857282
1.3186705767350928
1.2971652003910068
1.2766373411534702
1.2580645161290325
1.2404692082111437
1.227761485826002
1.217008797653959
1.203323558162268
1.1886608015640274
1.173998044965787
1.1593352883675463
1.144672531769306
1.1319648093841643
1.1192570869990224
1.1065493646138806
1.093841642228739
1.0821114369501466
1.075268817204301
1.0703812316715542
1.06158357771261
1.0518084066471165
1.0420332355816226
1.032258064516129
1.0234604105571847
1.0175953079178883
1.013685239491691
1.010752688172043
1.0087976539589445
1.007820136852395
1.0058651026392962
1.007820136852395
1.0117302052785924
1.0127077223851415
1.0127077223851415
1.0117302052785924
1.0097751710654936
1.0087976539589445
1.010752688172043
1.0175953079178883
1.0342130987292275
1.064516129032258
1.115347018572825
1.1759530791788857
1.2531769305962854
1.3577712609970674
1.4858260019550342
1.629521016617791
1.782991202346041
1.93841642228739
2.089931573802541
2.231671554252199
2.361681329423265
2.4789833822091887
2.5835777126099706
2.662756598240469
2.727272727272727
2.793743890518084
2.857282502443793
2.916911045943304
2.9716520039100685
3.0205278592375366
3.064516129032258
3.1006842619745845
3.129032258064516
3.1485826001955037
3.158357771260997
3.155425219941349
3.1388074291300097
3.1114369501466275
3.0733137829912023
3.0234604105571847
2.961876832844575
2.8905180840664717
2.811339198435973
2.727272727272727
2.641251221896383
2.5562072336265884
2.474095796676442
2.3978494623655915
2.334310850439883
2.2795698924731185
2.2277614858260018
2.177908113391984
2.131964809384164
2.088954056695992
2.048875855327468
2.0097751710654936
1.9716520039100685
1.9335288367546437
1.8963831867057677
1.8592375366568916
1.8240469208211143
1.7947214076246334
1.7673509286412512
1.737047898338221
1.7057673509286413
1.6744868035190617
1.643206256109482
1.6129032258064515
1.5835777126099706
1.555229716520039
1.5268817204301075
1.499511241446725
1.4721407624633431
1.4506353861192571
1.4320625610948192
1.412512218963832
1.3919843597262953
1.3724340175953078
1.35386119257087
1.3372434017595307
1.3235581622678396
1.3098729227761483
1.2981427174975562
1.2873900293255132
1.2766373411534702
1.2658846529814272
1.2590420332355816
1.2541544477028348
1.24633431085044
1.238514173998045
1.23069403714565
1.2238514173998043
1.217008797653959
1.2101661779081134
1.203323558162268
1.195503421309873
1.187683284457478
1.1808406647116323
1.1788856304985338
1.1779081133919844
1.173998044965787
1.1700879765395895
1.166177908113392
1.163245356793744
1.160312805474096
1.1583577712609971
1.1573802541544478
1.1564027370478984
1.1564027370478984
1.155425219941349
1.1534701857282503
1.1534701857282503
1.1573802541544478
1.160312805474096
1.164222873900293
1.1730205278592376
1.1925708699902249
1.227761485826002
1.2834799608993157
1.3607038123167154
1.4604105571847508
1.5786901270772238
1.710654936461388
1.83088954056696
1.9442815249266865
2.069403714565005
2.1945259042033234
2.3118279569892475
2.418377321603128
2.5131964809384164
2.5943304007820136
2.6637341153470184
2.724340175953079
2.777126099706745
2.823069403714565
2.8641251221896384
2.89247311827957
2.9120234604105573
2.9335288367546437
2.9530791788856305
2.9667644183773216
2.972629521016618
2.9687194525904204
2.95405669599218
2.9266862170087977
2.887585532746823
2.8367546432062563
2.776148582600196
2.713587487781036
2.6480938416422286
2.575757575757576
2.5004887585532747
2.4252199413489737
2.3528836754643208
2.2854349951124147
2.2238514173998043
2.1681329423264906
2.118279569892473
2.0733137829912023
2.03128054740958
1.991202346041056
1.9560117302052784
1.924731182795699
1.8905180840664717
1.855327468230694
1.8191593352883677
1.7839687194525904
1.7497556207233629
1.7165200391006843
1.683284457478006
1.651026392961877
1.6207233626588464
1.590420332355816
1.565982404692082
1.543499511241447
1.5190615835777126
1.4936461388074291
1.4682306940371457
1.4437927663734116
1.4203323558162269
1.396871945259042
1.3743890518084063
1.35386119257087
1.335288367546432
1.316715542521994
1.2991202346041055
1.2864125122189638
1.2756598240469208
1.262952101661779
1.249266862170088
1.2375366568914956
1.2258064516129032
1.2140762463343109
1.203323558162268
1.1935483870967742
1.1857282502443791
1.1788856304985338
1.173998044965787
1.1720430107526882
1.1720430107526882
1.1691104594330402
1.1652003910068427
1.1593352883675463
1.1515151515151516
1.1436950146627567
1.1368523949169111
1.130987292277615
1.126099706744868
1.1231671554252198
1.1202346041055715
1.1192570869990224
1.121212121212121
1.1251221896383188
1.1270772238514175
1.1280547409579669
1.1280547409579669
1.1270772238514175
1.126099706744868
1.1241446725317692
1.1231671554252198
1.1221896383186705
1.126099706744868
1.1368523949169111
1.155425219941349
1.18475073313783
1.2326490713587488
1.3020527859237536
1.393939393939394
1.504398826979472
1.6304985337243405
1.7673509286412512
1.90811339198436
2.046920821114369
2.177908113391984
2.2981427174975564
2.4056695992179864
2.487781036168133
2.552297165200391
2.616813294232649
2.677419354838709
2.732160312805474
2.782013685239492
2.8269794721407626
2.866080156402737
2.8993157380254155
2.927663734115347
2.949169110459433
2.961876832844575
2.962854349951124
2.95405669599218
2.940371456500489
2.917888563049853
2.8836754643206257
2.8396871945259043
2.78494623655914
2.721407624633431
2.650048875855328
2.573802541544477
2.495601173020528
2.418377321603128
2.350928641251222
2.290322580645161
2.2297165200391005
2.1730205278592374
2.121212121212121
2.075268817204301
2.034213098729228
1.9960899315738023
1.959921798631476
1.924731182795699
1.8905180840664717
1.8563049853372435
1.822091886608016
1.7917888563049853
1.7624633431085044
1.7302052785923754
1.696969696969697
1.6627565982404693
1.6285434995112416
1.5943304007820136
1.5610948191593352
1.5298142717497556
1.499511241446725
1.4711632453567938
1.4428152492668622
1.4203323558162269
1.4007820136852396
1.3792766373411536
1.3577712609970674
1.3372434017595307
1.316715542521994
1.2981427174975562
1.281524926686217
1.2668621700879763
1.2541544477028348
1.2424242424242424
1.23069403714565
1.219941348973607
1.2130987292277615
1.209188660801564
1.203323558162268
1.1964809384164223
1.1896383186705768
1.1827956989247312
1.1759530791788857
1.1700879765395895
1.163245356793744
1.1573802541544478
1.1505376344086022
1.144672531769306
1.142717497556207
1.142717497556207
1.1407624633431086
1.13880742913001
1.1368523949169111
1.1358748778103618
1.1348973607038124
1.133919843597263
1.1329423264907137
1.1319648093841643
1.1319648093841643
1.1329423264907137
1.133919843597263
1.1378299120234605
1.141739980449658
1.142717497556207
1.141739980449658
1.1407624633431086
1.1407624633431086
1.142717497556207
1.1515151515151516
1.1700879765395895
1.2043010752688172
1.2570869990224829
1.3313782991202343
1.4105571847507332
1.499511241446725
1.6129032258064515
1.7419354838709675
1.8778103616813293
2.0146627565982405
2.146627565982405
2.2688172043010755
2.378299120234604
2.474095796676442
2.5562072336265884
2.627565982404692
2.6901270772238512
2.736070381231672
2.771260997067449
2.809384164222874
2.8475073313782997
2.881720430107527
2.911045943304008
2.9335288367546437
2.949169110459433
2.9550342130987293
2.9501466275659824
2.9345063538611926
2.9071358748778104
2.870967741935484
2.8260019550342133
2.7702834799608995
2.705767350928641
2.634408602150537
2.558162267839687
2.4819159335288368
2.4086021505376345
2.329423264907136
2.251221896383187
2.1847507331378297
2.1280547409579667
2.0791788856304985
2.038123167155425
2.002932551319648
1.967741935483871
1.9315738025415443
1.8944281524926687
1.857282502443793
1.8191593352883677
1.780058651026393
1.739980449657869
1.699902248289345
1.6608015640273706
1.6226783968719452
1.590420332355816
1.5610948191593352
1.5288367546432062
1.4965786901270772
1.4633431085043989
1.4320625610948192
1.4027370478983383
1.3743890518084063
1.3470185728250244
1.321603128054741
1.2981427174975562
1.2766373411534702
1.2570869990224829
1.2424242424242424
1.23069403714565
1.217008797653959
1.2023460410557183
1.187683284457478
1.173998044965787
1.160312805474096
1.1466275659824048
1.1348973607038124
1.1241446725317692
1.1143695014662756
1.1055718475073313
1.0987292277614855
1.0948191593352885
1.0879765395894427
1.0791788856304985
1.0703812316715542
1.06158357771261
1.0527859237536656
1.0439882697947214
1.0361681329423265
1.029325513196481
1.0224828934506354
1.0166177908113392
1.0117302052785924
1.0097751710654936
1.0097751710654936
1.007820136852395
1.0058651026392962
1.0048875855327468
1.002932551319648
1.0009775171065494
0.9990224828934506
0.9980449657869012
0.9960899315738024
0.9921798631476052
0.9882697947214076
0.9872922776148584
0.989247311827957
0.9921798631476052
1.0019550342130987
1.0224828934506354
1.0576735092864125
1.1133919843597262
1.1925708699902249
1.295210166177908
1.418377321603128
1.5571847507331378
1.7057673509286413
1.857282502443793
1.986314760508309
2.099706744868035
2.218963831867057
2.334310850439883
2.4389051808406648
2.5317693059628543
2.6129032258064515
2.6832844574780057
2.7438905180840663
2.798631476050831
2.8475073313782997
2.889540566959922
2.917888563049853
2.9374389051808407
2.956989247311828
2.9716520039100685
2.979472140762464
2.978494623655914
2.9657869012707723
2.940371456500489
2.902248289345064
2.8533724340175954
2.792766373411535
2.7233626588465296
2.64613880742913
2.572825024437928
2.5004887585532747
2.423264907135875
2.347018572825025
2.274682306940372
2.207233626588465
2.145650048875855
2.090909090909091
2.043010752688172
1.9990224828934504
1.956989247311828
1.9178885630498532
1.8836754643206255
1.8523949169110456
1.8191593352883677
1.782991202346041
1.7448680351906158
1.7067448680351909
1.6686217008797657
1.6314760508308896
1.595307917888563
1.560117302052786
1.525904203323558
1.4926686217008798
1.4652981427174976
1.4418377321603129
1.414467253176931
1.3851417399804498
1.356793743890518
1.3294232649071358
1.3040078201368523
1.278592375366569
1.2541544477028348
1.2316715542521994
1.2111436950146628
1.1925708699902249
1.1759530791788857
1.1652003910068427
1.1564027370478984
1.1466275659824048
1.1358748778103618
1.1251221896383188
1.1143695014662756
1.1036168132942326
1.0918866080156402
1.0811339198435972
1.0703812316715542
1.0606060606060606
1.0498533724340176
1.043010752688172
1.0391006842619743
1.0342130987292275
1.0273704789833822
1.021505376344086
1.0156402737047898
1.0097751710654936
1.0048875855327468
1.0
0.9941348973607038
0.989247311827957
0.9853372434017597
0.9824046920821116
0.9824046920821116
0.9853372434017597
0.9853372434017597
0.9843597262952102
0.9833822091886608
0.9824046920821116
0.9794721407624634
0.975562072336266
0.9726295210166178
0.9706744868035192
0.9716520039100685
0.978494623655914
0.9941348973607038
1.0205278592375366
1.0635386119257086
1.1270772238514175
1.2140762463343109
1.324535679374389
1.4535679374389052
1.5962854349951123
1.7468230694037146
1.8993157380254155
2.046920821114369
2.185728250244379
2.3118279569892475
2.409579667644184
2.4887585532746823
2.567937438905181
2.641251221896383
2.70772238514174
2.7673509286412514
2.820136852394917
2.8670576735092865
2.9071358748778104
2.941348973607038
2.9687194525904204
2.988269794721408
2.994134897360704
2.9902248289345064
2.981427174975562
2.963831867057673
2.9345063538611926
2.8944281524926687
2.843597262952102
2.7810361681329425
2.70772238514174
2.627565982404692
2.544477028347996
2.4613880742913
2.3812316715542523
2.3118279569892475
2.2502443792766376
2.1915933528836757
2.136852394916911
2.0869990224828934
2.0410557184750733
2.0
1.9618768328445748
1.9257086999022484
1.889540566959922
1.8533724340175952
1.818181818181818
1.7859237536656891
1.7556207233626588
1.721407624633431
1.6852394916911049
1.6490713587487782
1.611925708699902
1.5757575757575757
1.5395894428152492
1.504398826979472
1.4711632453567938
1.439882697947214
1.4105571847507332
1.3822091886608017
1.3607038123167154
1.343108504398827
