ppg
1.7419354838709675
1.721407624633431
1.7038123167155426
1.6842619745845553
1.664711632453568
1.6451612903225807
1.6256109481915937
1.607038123167155
1.5894428152492668
1.5728250244379276
1.5562072336265884
1.5405669599217986
1.5268817204301075
1.5180840664711632
1.5112414467253177
1.5034213098729228
1.495601173020528
1.4868035190615836
1.47702834799609
1.466275659824047
1.455522971652004
1.4457478005865103
1.4349951124144673
1.423264907135875
1.412512218963832
1.401759530791789
1.393939393939394
1.3890518084066472
1.3812316715542523
1.370478983382209
1.359726295210166
1.3509286412512218
1.343108504398827
1.33822091886608
1.33822091886608
1.3470185728250244
1.3685239491691104
1.404692082111437
1.4496578690127078
1.5053763440860215
1.5806451612903225
1.6705767350928642
1.772238514173998
1.881720430107527
1.9931573802541545
2.104594330400782
2.212121212121212
2.313782991202346
2.406647116324536
2.490713587487781
2.5650048875855327
2.619745845552297
2.6608015640273703
2.702834799608993
2.740957966764418
2.7751710654936463
2.803519061583578
2.8269794721407626
2.8455522971652005
2.859237536656892
2.868035190615836
2.8729227761485827
2.8719452590420333
2.8641251221896384
2.850439882697948
2.834799608993157
2.814271749755621
2.788856304985337
2.758553274682307
2.7233626588465296
2.6832844574780057
2.638318670576735
2.590420332355816
2.539589442815249
2.487781036168133
2.4359726295210167
2.389051808406647
2.345063538611926
2.300097751710655
2.257086999022483
2.2170087976539588
2.179863147605083
2.145650048875855
2.114369501466276
2.085043988269794
2.0576735092864125
2.03128054740958
2.003910068426197
1.9794721407624636
1.9560117302052784
1.9296187683284456
1.902248289345064
1.8748778103616808
1.847507331378299
1.822091886608016
1.7976539589442817
1.772238514173998
1.7468230694037146
1.7223851417399805
1.6989247311827955
1.6764418377321604
1.6578690127077225
1.6412512218963833
1.6236559139784943
1.6050830889540566
1.585532746823069
1.5669599217986314
1.5493646138807429
1.5327468230694037
1.5180840664711632
1.504398826979472
1.490713587487781
1.47702834799609
1.4682306940371457
1.4604105571847508
1.4516129032258065
1.4428152492668622
1.434017595307918
1.426197458455523
1.418377321603128
1.4115347018572826
1.4037145650048877
1.3949169110459434
1.3861192570869991
1.3763440860215057
1.3655913978494625
1.3577712609970674
1.3528836754643203
1.346041055718475
1.3362658846529814
1.3264907135874875
1.316715542521994
1.3069403714565004
1.2991202346041055
1.2942326490713587
1.2961876832844574
1.3069403714565004
1.3284457478005864
1.356793743890518
1.3958944281524928
1.4516129032258065
1.52297165200391
1.607038123167155
1.7018572825024438
1.804496578690127
1.9100684261974583
2.0146627565982405
2.115347018572825
2.2111436950146626
2.2991202346041058
2.376344086021505
2.4349951124144678
2.4809384164222874
2.525904203323558
2.565982404692082
2.5992179863147604
2.624633431085044
2.643206256109482
2.654936461388074
2.6608015640273703
2.66177908113392
2.658846529814272
2.652003910068426
2.6402737047898337
2.624633431085044
2.606060606060606
2.5835777126099706
2.5562072336265884
2.5249266862170088
2.489736070381232
2.4516129032258065
2.410557184750733
2.3685239491691106
2.3255131964809386
2.2825024437927666
2.241446725317693
2.204301075268817
2.1710654936461387
2.1358748778103616
2.101661779081134
2.069403714565005
2.040078201368524
2.013685239491691
1.988269794721408
1.963831867057673
1.93841642228739
1.913978494623656
1.889540566959922
1.869012707722385
1.8504398826979471
1.828934506353861
1.8064516129032255
1.782991202346041
1.758553274682307
1.7350928641251222
1.7135874877810362
1.6930596285434996
1.672531769305963
1.6529814271749756
1.6334310850439884
1.6138807429130009
1.5972629521016617
1.5826001955034212
1.565982404692082
1.5483870967741935
1.530791788856305
1.5141739980449658
1.498533724340176
1.4858260019550342
1.4731182795698925
1.4613880742913
1.4506353861192571
1.4408602150537635
1.4349951124144673
1.43108504398827
1.4271749755620724
1.423264907135875
1.418377321603128
1.4134897360703813
1.4086021505376345
1.401759530791789
1.393939393939394
1.3861192570869991
1.3782991202346042
1.3695014662756595
1.359726295210166
1.3528836754643203
1.3470185728250244
1.33822091886608
1.3284457478005864
1.316715542521994
1.3020527859237536
1.2873900293255132
1.2727272727272727
1.260019550342131
1.2502443792766371
1.2443792766373412
1.2443792766373412
1.2531769305962854
1.2697947214076246
1.2981427174975562
1.3401759530791788
1.3958944281524928
1.4643206256109482
1.5454545454545454
1.6363636363636365
1.732160312805474
1.827956989247312
1.920821114369501
1.997067448680352
2.0527859237536656
2.10752688172043
2.166177908113392
2.220918866080156
2.267839687194526
2.304007820136853
2.3304007820136854
2.347018572825025
2.35386119257087
2.3528836754643208
2.343108504398827
2.3274682306940373
2.3069403714565007
2.283479960899316
2.257086999022483
2.2238514173998043
2.1847507331378297
2.1407624633431084
2.0928641251221896
2.0410557184750733
1.988269794721408
1.935483870967742
1.8836754643206255
1.8328445747800584
1.7849462365591398
1.7438905180840665
1.7096774193548387
1.6744868035190617
1.6392961876832846
1.607038123167155
1.5777126099706744
1.5503421309872922
1.5249266862170088
1.5024437927663734
1.4809384164222874
1.4604105571847508
1.4389051808406648
1.4164222873900294
1.396871945259042
1.380254154447703
1.3616813294232648
1.3421309872922775
1.3225806451612905
1.303030303030303
1.2825024437927663
1.262952101661779
1.2434017595307918
1.224828934506354
1.2072336265884651
1.1896383186705768
1.176930596285435
1.166177908113392
1.1544477028347997
1.1436950146627567
1.1319648093841643
1.121212121212121
1.110459433040078
1.099706744868035
1.0909090909090908
1.083088954056696
1.075268817204301
1.0694037145650048
1.0654936461388074
1.0664711632453567
1.0694037145650048
1.0703812316715542
1.0713587487781036
1.072336265884653
1.0742913000977516
1.075268817204301
1.0772238514173995
1.078201368523949
1.078201368523949
1.078201368523949
1.078201368523949
1.0811339198435972
1.0850439882697946
1.0879765395894427
1.0899315738025417
1.0909090909090908
1.0918866080156402
1.0909090909090908
1.0879765395894427
1.0840664711632453
1.0811339198435972
1.0811339198435972
1.0869990224828934
1.1036168132942326
1.1290322580645162
1.163245356793744
1.2121212121212122
1.2766373411534702
1.3548387096774193
1.4467253176930597
1.5483870967741935
1.6578690127077225
1.7712609970674489
1.8836754643206255
1.9931573802541545
2.0957966764418376
2.175953079178885
2.241446725317693
2.304985337243402
2.360703812316716
2.4056695992179864
2.4379276637341154
2.4574780058651027
2.464320625610948
2.4604105571847508
2.4457478005865103
2.4222873900293256
2.3919843597262958
2.3548387096774195
2.317693059628544
2.278592375366569
2.2346041055718477
2.187683284457478
2.1378299120234603
2.0869990224828934
2.0361681329423265
1.9853372434017595
1.9374389051808407
1.8914956011730208
1.847507331378299
1.8084066471163245
1.7781036168132942
1.7526881720430108
1.726295210166178
1.7008797653958945
1.6764418377321604
1.6520039100684265
1.6285434995112416
1.6050830889540566
1.5826001955034212
1.5620723362658846
1.541544477028348
1.521016617790811
1.498533724340176
1.478983382209189
1.4613880742913
1.4408602150537635
1.418377321603128
1.3958944281524928
1.3724340175953078
1.348973607038123
1.324535679374389
1.2981427174975562
1.2727272727272727
1.2482893450635386
1.2238514173998043
1.2043010752688172
1.1886608015640274
1.1691104594330402
1.1495601173020529
1.1290322580645162
1.1085043988269794
1.0879765395894427
1.0684261974584557
1.050830889540567
1.0332355816226784
1.0175953079178883
1.002932551319648
0.989247311827957
0.981427174975562
0.9765395894428152
0.9687194525904204
0.959921798631476
0.9501466275659824
0.9423264907135877
0.9374389051808406
0.9345063538611924
0.9335288367546432
0.9325513196480938
0.9325513196480938
0.9335288367546432
0.93841642228739
0.9442815249266864
0.946236559139785
0.9452590420332356
0.9433040078201368
0.9413489736070382
0.9413489736070382
0.9452590420332356
0.956989247311828
0.981427174975562
1.021505376344086
1.078201368523949
1.1534701857282503
1.2326490713587488
1.3196480938416422
1.4291300097751711
1.5532746823069403
1.6871945259042034
1.8269794721407624
1.9657869012707725
2.1006842619745845
2.2277614858260018
2.3440860215053765
2.4486803519061584
2.539589442815249
2.606060606060606
2.6559139784946235
2.7038123167155423
2.7468230694037143
2.7839687194525906
2.8132942326490715
2.834799608993157
2.849462365591398
2.857282502443793
2.8582600195503423
2.8533724340175954
2.8426197458455524
2.8269794721407626
2.8054740957966766
2.7810361681329425
2.752688172043011
2.717497556207233
2.678396871945259
2.635386119257087
2.589442815249267
2.5405669599217986
2.490713587487781
2.439882697947214
2.388074291300098
2.3391984359726297
2.2961876832844577
2.257086999022483
2.217986314760508
2.1808406647116323
2.145650048875855
2.112414467253177
2.081133919843597
2.0498533724340176
2.0195503421309877
1.991202346041056
1.963831867057673
1.9364613880742916
1.9120234604105573
1.889540566959922
1.8641251221896384
1.835777126099707
1.8064516129032255
1.7761485826001957
1.7458455522971652
1.715542521994135
1.6871945259042034
1.6608015640273706
1.6344086021505375
1.6080156402737047
1.5826001955034212
1.5610948191593352
1.542521994134897
1.521994134897361
1.499511241446725
1.478983382209189
1.4819159335288368
1.495601173020528
1.4936461388074291
1.4838709677419355
1.4701857282502444
1.455522971652004
1.4418377321603129
1.43108504398827
1.4222873900293256
1.4105571847507332
1.3978494623655917
1.3841642228739004
1.3714565004887584
1.3587487781036167
1.346041055718475
1.3343108504398826
1.3235581622678396
1.3128054740957966
1.3020527859237536
1.2913000977517106
1.284457478005865
1.2795698924731185
1.270772238514174
1.2590420332355816
1.24633431085044
1.2346041055718475
1.2258064516129032
1.2228739002932552
1.227761485826002
1.2453567937438903
1.278592375366569
1.3304007820136852
1.391006842619746
1.4643206256109482
1.564027370478983
1.683284457478006
1.8162267839687196
1.9589442815249267
2.104594330400782
2.2482893450635384
2.388074291300098
2.5190615835777126
2.6402737047898337
2.750733137829912
2.8475073313782997
2.918866080156403
2.9745845552297165
3.0303030303030303
3.081133919843597
3.126099706744868
3.163245356793744
3.193548387096774
3.2170087976539588
3.2355816226783967
3.2482893450635384
3.2531769305962857
3.251221896383187
3.2404692082111435
3.220918866080156
3.1974584555229715
3.1710654936461387
3.1388074291300097
3.1006842619745845
3.056695992179863
3.005865102639296
2.9501466275659824
2.8885630498533725
2.8240469208211145
2.755620723362659
2.687194525904203
2.624633431085044
2.565982404692082
2.50733137829912
2.450635386119257
2.3978494623655915
2.3489736070381237
2.303030303030303
2.260997067448681
2.222873900293255
2.185728250244379
2.150537634408602
2.1163245356793743
2.085043988269794
2.0557184750733137
2.0234604105571847
1.991202346041056
1.956989247311828
1.9237536656891496
1.8905180840664717
1.857282502443793
1.823069403714565
1.7898338220918866
1.7575757575757576
1.7253176930596286
1.694037145650049
1.6686217008797657
1.64613880742913
1.6207233626588464
1.5943304007820136
1.5679374389051808
1.542521994134897
1.5190615835777126
1.498533724340176
1.479960899315738
1.4623655913978495
1.4467253176930597
1.4320625610948192
1.4213098729227762
1.4115347018572826
1.3998044965786902
1.3870967741935485
1.3734115347018572
1.359726295210166
1.3470185728250244
1.335288367546432
1.3235581622678396
1.3128054740957966
1.3020527859237536
1.2913000977517106
1.2795698924731185
1.2697947214076246
1.262952101661779
1.252199413489736
1.2404692082111437
1.227761485826002
1.2160312805474096
1.2072336265884651
1.2003910068426198
1.198435972629521
1.2052785923753666
1.2238514173998043
1.2590420332355816
1.3049853372434017
1.3626588465298142
1.4418377321603129
1.5405669599217986
1.6559139784946235
1.782991202346041
1.9159335288367547
2.050830889540567
2.1847507331378297
2.315738025415445
2.4389051808406648
2.552297165200391
2.6529814271749754
2.7282502443792764
2.7869012707722387
2.8426197458455524
2.8914956011730206
2.9335288367546437
2.9687194525904204
2.997067448680352
3.0175953079178885
3.032258064516129
3.042033235581622
3.0449657869012707
3.042033235581622
3.0303030303030303
3.0127077223851417
2.9931573802541545
2.9696969696969697
2.940371456500489
2.905180840664712
2.863147605083089
2.814271749755621
2.7595307917888565
2.7008797653958942
2.6392961876832843
2.5777126099706744
2.5180840664711632
2.4652981427174976
2.4173998044965788
2.367546432062561
2.318670576735093
2.272727272727273
2.2297165200391005
2.189638318670577
2.1524926686217007
2.118279569892473
2.086021505376344
2.0547409579667644
2.0234604105571847
1.9951124144672527
1.9687194525904204
1.93841642228739
1.9042033235581624
1.8699902248289344
1.8347996089931573
1.801564027370479
1.7702834799608993
1.739980449657869
1.710654936461388
1.6813294232649072
1.6529814271749756
1.6285434995112416
1.607038123167155
1.5835777126099706
1.5591397849462365
1.5347018572825024
1.5102639296187683
1.4868035190615836
1.4643206256109482
1.4437927663734116
1.426197458455523
1.4086021505376345
1.391006842619746
1.3743890518084063
1.3616813294232648
1.3519061583577712
1.3411534701857282
1.3304007820136852
1.3206256109481915
1.3118279569892473
1.303030303030303
1.2932551319648091
1.2834799608993157
1.2727272727272727
1.2609970674486803
1.2482893450635386
1.238514173998045
1.2326490713587488
1.2258064516129032
1.217008797653959
1.2072336265884651
1.1974584555229717
1.1857282502443791
1.173998044965787
1.1652003910068427
1.1583577712609971
1.1544477028347997
1.1593352883675463
1.1779081133919844
1.2052785923753666
1.2443792766373412
1.3020527859237536
1.3782991202346042
1.4701857282502444
1.576735092864125
1.6920821114369502
1.8132942326490715
1.9345063538611929
2.0518084066471163
2.164222873900293
2.269794721407625
2.3519061583577714
2.4164222873900294
2.4789833822091887
2.533724340175953
2.5777126099706744
2.608993157380254
2.6285434995112413
2.638318670576735
2.6402737047898337
2.636363636363636
2.625610948191593
2.6080156402737047
2.529814271749756
2.420332355816227
2.3499511241446727
2.2952101661779083
2.247311827956989
2.19941348973607
2.150537634408602
2.1006842619745845
2.047898338220919
1.9931573802541545
1.9364613880742916
1.8797653958944285
1.826001955034213
1.7790811339198436
1.7380254154447703
1.6950146627565983
1.6520039100684265
1.611925708699902
1.5718475073313782
1.5327468230694037
1.495601173020528
1.458455522971652
1.423264907135875
1.391006842619746
1.359726295210166
1.3284457478005864
1.3020527859237536
1.278592375366569
1.2512218963831867
1.2209188660801564
1.1896383186705768
1.1593352883675463
1.1300097751710656
1.1036168132942326
1.078201368523949
1.053763440860215
1.0303030303030305
1.0068426197458455
0.9902248289345064
0.9775171065493646
0.9628543499511242
0.9472140762463344
0.9305962854349952
0.9149560117302052
0.9012707722385142
0.8895405669599218
0.8787878787878788
0.8690127077223851
0.8611925708699902
0.8533724340175953
0.8465298142717498
0.844574780058651
0.8435972629521017
0.8396871945259042
0.8357771260997068
0.8328445747800587
0.8318670576735093
0.83088954056696
0.83088954056696
0.83088954056696
0.83088954056696
0.83088954056696
0.8289345063538612
0.8299120234604106
0.8328445747800587
0.8318670576735093
0.83088954056696
0.83088954056696
0.83088954056696
0.83088954056696
0.83088954056696
0.83088954056696
0.833822091886608
0.8396871945259042
0.8484848484848485
0.8651026392961877
0.8895405669599218
0.9217986314760508
0.9687194525904204
1.0312805474095796
1.110459433040078
1.2043010752688172
1.3118279569892473
1.4271749755620724
1.5493646138807429
1.6735092864125125
1.7956989247311828
1.9120234604105573
2.005865102639296
2.085043988269794
2.163245356793744
2.233626588465298
2.2932551319648096
2.343108504398827
2.3812316715542523
2.406647116324536
2.4222873900293256
2.4281524926686218
2.426197458455523
2.4164222873900294
2.40078201368524
2.380254154447703
2.3548387096774195
2.324535679374389
2.290322580645161
2.254154447702835
2.217986314760508
2.1818181818181817
2.144672531769306
2.10752688172043
2.0684261974584555
2.0303030303030303
1.994134897360704
1.962854349951124
1.9345063538611929
1.9071358748778104
1.8797653958944285
1.8533724340175952
1.827956989247312
1.801564027370479
1.7732160312805474
1.7438905180840665
1.715542521994135
1.6871945259042034
1.6588465298142718
1.6304985337243405
1.6041055718475072
1.5777126099706744
1.5464320625610948
1.5131964809384164
1.478983382209189
1.4437927663734116
1.4076246334310851
1.3714565004887584
1.335288367546432
1.300097751710655
1.2668621700879763
1.2355816226783969
1.2111436950146628
1.1915933528836755
1.1700879765395895
1.1485826001955035
1.1270772238514175
1.1055718475073313
1.086021505376344
1.0694037145650048
1.0547409579667644
1.0410557184750733
1.0283479960899315
1.0175953079178883
1.0068426197458455
1.0
0.9951124144672532
0.9863147605083088
0.975562072336266
0.9657869012707724
0.9550342130987292
0.9452590420332356
0.935483870967742
0.9257086999022482
0.9149560117302052
0.9032258064516128
0.8885630498533724
0.8787878787878788
0.8699902248289345
0.8563049853372434
0.8396871945259042
0.8211143695014663
0.8025415444770283
0.7849462365591398
0.7702834799608993
0.7634408602150538
0.7653958944281525
0.7790811339198436
0.8074291300097751
0.8475073313782991
0.8993157380254154
0.9696969696969696
1.0586510263929618
1.1622678396871946
1.2766373411534702
1.3988269794721409
1.5239491691104594
1.6471163245356797
1.7663734115347018
1.87683284457478
1.978494623655914
2.069403714565005
2.1388074291300097
2.193548387096774
2.247311827956989
2.294232649071359
2.332355816226784
2.363636363636364
2.389051808406647
2.406647116324536
2.4173998044965788
2.423264907135875
2.423264907135875
2.419354838709677
2.409579667644184
2.3949169110459434
2.377321603128055
2.3548387096774195
2.3274682306940373
2.2961876832844577
2.260997067448681
2.222873900293255
2.182795698924731
2.1417399804496577
2.1006842619745845
2.060606060606061
2.021505376344086
1.9872922776148585
1.9579667644183771
1.9286412512218964
1.9012707722385145
1.873900293255132
1.8465298142717497
1.8211143695014664
1.7976539589442817
1.7741935483870968
1.750733137829912
1.7253176930596286
1.6989247311827955
1.6764418377321604
1.6549364613880744
1.6304985337243405
1.606060606060606
1.581622678396872
1.5562072336265884
1.5288367546432062
1.501466275659824
1.474095796676442
1.4467253176930597
1.4213098729227762
1.396871945259042
1.3743890518084063
1.3577712609970674
1.3450635386119256
1.3304007820136852
1.3147605083088951
1.2991202346041055
1.284457478005865
1.270772238514174
1.2570869990224829
1.2443792766373412
1.2336265884652982
1.2238514173998043
1.2150537634408602
1.2101661779081134
1.2072336265884651
1.203323558162268
1.198435972629521
1.1925708699902249
1.1867057673509287
1.262952101661779
1.380254154447703
1.436950146627566
1.4633431085043989
1.474095796676442
1.47702834799609
1.474095796676442
1.4731182795698925
1.4711632453567938
1.4643206256109482
1.455522971652004
1.444770283479961
1.4330400782013686
1.4213098729227762
1.4115347018572826
1.4076246334310851
1.4134897360703813
1.4349951124144673
1.4750733137829912
1.5268817204301075
1.5933528836754642
1.6871945259042034
1.804496578690127
1.9393939393939397
2.088954056695992
2.247311827956989
2.4086021505376345
2.5698924731182795
2.727272727272727
2.874877810361681
3.0117302052785924
3.134897360703812
3.2297165200391005
3.3059628543499517
3.383186705767351
3.455522971652004
3.520039100684262
3.5777126099706744
3.628543499511241
3.671554252199413
3.705767350928641
3.732160312805474
3.750733137829912
3.7624633431085046
3.7614858260019552
3.7517106549364616
3.740957966764418
3.7262952101661777
3.7067448680351904
3.678396871945259
3.642228739002933
3.5962854349951123
3.541544477028348
3.4780058651026398
3.407624633431085
3.333333333333333
3.2551319648093844
3.1818181818181817
3.1114369501466275
3.0391006842619745
2.9696969696969697
2.902248289345064
2.8367546432062563
2.7751710654936463
2.718475073313783
2.665689149560117
2.6148582600195502
2.565982404692082
2.5190615835777126
2.4780058651026398
2.4389051808406648
2.3978494623655915
2.3548387096774195
2.3088954056695994
2.2629521016617797
2.218963831867057
2.175953079178885
2.134897360703812
2.093841642228739
2.053763440860215
2.0146627565982405
1.9765395894428155
1.943304007820137
1.9120234604105573
1.8778103616813293
1.8455522971652003
1.8132942326490715
1.7820136852394917
1.7526881720430108
1.7243401759530792
1.696969696969697
1.6705767350928642
1.6451612903225807
1.6236559139784943
1.608993157380254
1.598240469208211
1.58455522971652
1.5698924731182795
1.555229716520039
1.541544477028348
1.5268817204301075
1.512218963831867
1.498533724340176
1.4858260019550342
1.474095796676442
1.4623655913978495
1.4506353861192571
1.4428152492668622
1.436950146627566
1.426197458455523
1.412512218963832
1.3978494623655917
1.383186705767351
1.370478983382209
1.359726295210166
1.3509286412512218
1.3470185728250244
1.3509286412512218
1.3655913978494625
1.3900293255131966
1.4281524926686218
1.487781036168133
1.5698924731182795
1.6744868035190617
1.7976539589442817
1.935483870967742
2.086021505376344
2.243401759530792
2.40078201368524
2.555229716520039
2.7008797653958942
2.817204301075269
2.913978494623656
3.0117302052785924
3.102639296187683
3.182795698924731
3.251221896383187
3.3088954056695994
3.358748778103617
3.401759530791789
3.436950146627566
3.464320625610948
3.4858260019550342
3.5004887585532747
3.501466275659824
3.49266862170088
3.482893450635386
3.469208211143695
3.449657869012708
3.4242424242424243
3.3919843597262958
3.3519061583577714
3.303030303030303
3.2453567937438903
3.1808406647116323
3.1114369501466275
3.0449657869012707
2.9804496578690127
2.911045943304008
2.841642228739003
2.7751710654936463
2.7126099706744866
2.6529814271749754
2.595307917888563
2.5405669599217986
2.489736070381232
2.442815249266862
2.39980449657869
2.360703812316716
2.3274682306940373
2.2961876832844577
2.2639296187683287
2.23069403714565
2.196480938416422
2.1622678396871944
2.1280547409579667
2.090909090909091
2.0518084066471163
2.0117302052785924
1.9726295210166176
1.935483870967742
1.905180840664712
1.878787878787879
1.8494623655913975
1.8191593352883677
1.7888563049853372
1.7605083088954057
1.732160312805474
1.7038123167155426
1.6764418377321604
1.6490713587487782
1.6236559139784943
1.6001955034213098
1.5786901270772238
1.563049853372434
1.5513196480938416
1.5376344086021505
1.52297165200391
1.5083088954056696
1.4946236559139785
1.4819159335288368
1.4721407624633431
1.4652981427174976
1.458455522971652
1.4516129032258065
1.4428152492668622
1.436950146627566
1.4320625610948192
1.4222873900293256
1.4086021505376345
1.392961876832845
1.3782991202346042
1.3636363636363635
1.3479960899315735
1.332355816226784
1.316715542521994
1.303030303030303
1.2932551319648091
1.2903225806451613
1.2981427174975562
1.316715542521994
1.3499511241446724
1.4007820136852396
1.4721407624633431
1.563049853372434
1.6735092864125125
1.7996089931573802
1.9364613880742916
2.080156402737048
2.2267839687194524
2.3714565004887587
2.490713587487781
2.592375366568915
