ppg
1.2209188660801564
1.209188660801564
1.198435972629521
1.1857282502443791
1.1730205278592376
1.1612903225806452
1.1485826001955035
1.1358748778103618
1.1231671554252198
1.110459433040078
1.0977517106549364
1.0850439882697946
1.0742913000977516
1.064516129032258
1.0596285434995112
1.056695992179863
1.0527859237536656
1.0498533724340176
1.04594330400782
1.0410557184750733
1.0361681329423265
1.032258064516129
1.029325513196481
1.0273704789833822
1.0263929618768328
1.024437927663734
1.024437927663734
1.0273704789833822
1.0263929618768328
1.0224828934506354
1.0195503421309873
1.0224828934506354
1.0371456500488758
1.0742913000977516
1.141739980449658
1.2434017595307918
1.3782991202346042
1.5395894428152492
1.7194525904203324
1.8836754643206255
2.035190615835777
2.1955034213098727
2.347996089931574
2.4819159335288368
2.595307917888563
2.686217008797654
2.755620723362659
2.8084066471163247
2.8455522971652005
2.8719452590420333
2.889540566959922
2.8944281524926687
2.8905180840664717
2.884652981427175
2.874877810361681
2.8582600195503423
2.835777126099707
2.8054740957966766
2.768328445747801
2.7233626588465296
2.670576735092864
2.610948191593353
2.5434995112414467
2.4760508308895406
2.406647116324536
2.3284457478005867
2.242424242424242
2.1515151515151514
2.060606060606061
1.9716520039100685
1.8875855327468232
1.8113391984359728
1.7448680351906158
1.6881720430107527
1.6422287390029326
1.607038123167155
1.58455522971652
1.5708699902248289
1.560117302052786
1.5503421309872922
1.541544477028348
1.5327468230694037
1.521994134897361
1.5083088954056696
1.4936461388074291
1.478983382209189
1.4643206256109482
1.4506353861192571
1.4408602150537635
1.4330400782013686
1.4222873900293256
1.4115347018572826
1.3998044965786902
1.3870967741935485
1.375366568914956
1.3655913978494625
1.3558162267839686
1.3421309872922775
1.3304007820136852
1.3225806451612905
1.313782991202346
1.3088954056695992
1.3049853372434017
1.300097751710655
1.2942326490713587
1.289345063538612
1.2873900293255132
1.2854349951124144
1.2825024437927663
1.2776148582600195
1.2727272727272727
1.267839687194526
1.2639296187683284
1.2639296187683284
1.2658846529814272
1.2668621700879763
1.267839687194526
1.267839687194526
1.267839687194526
1.2668621700879763
1.2639296187683284
1.260019550342131
1.2531769305962854
1.24633431085044
1.2394916911045943
1.2365591397849462
1.2394916911045943
1.2551319648093842
1.2883675464320623
1.3470185728250244
1.435972629521017
1.5581622678396871
1.7096774193548387
1.8826979472140764
2.0684261974584555
2.254154447702835
2.429130009775171
2.5855327468230693
2.7038123167155423
2.793743890518084
2.874877810361681
2.9393939393939394
2.986314760508309
3.016617790811339
3.0332355816226784
3.038123167155425
3.034213098729228
3.022482893450636
3.004887585532747
2.978494623655914
2.945259042033236
2.909090909090909
2.868035190615836
2.819159335288368
2.7624633431085046
2.6959921798631474
2.6207233626588464
2.5347018572825024
2.4408602150537635
2.3440860215053765
2.2453567937438903
2.1388074291300097
2.03128054740958
1.945259042033236
1.8748778103616808
1.8064516129032255
1.7458455522971652
1.694037145650049
1.6500488758553276
1.611925708699902
1.581622678396872
1.5581622678396871
1.5386119257087
1.520039100684262
1.5034213098729228
1.4868035190615836
1.4731182795698925
1.4623655913978495
1.4506353861192571
1.4389051808406648
1.426197458455523
1.4134897360703813
1.3998044965786902
1.3841642228739004
1.3655913978494625
1.346041055718475
1.327468230694037
1.3098729227761483
1.2971652003910068
1.2864125122189638
1.2727272727272727
1.2580645161290325
1.241446725317693
1.2238514173998043
1.206256109481916
1.1906158357771262
1.176930596285435
1.163245356793744
1.1505376344086022
1.1378299120234605
1.1251221896383188
1.118279569892473
1.1133919843597262
1.1065493646138806
1.0987292277614855
1.0918866080156402
1.086021505376344
1.0811339198435972
1.0762463343108504
1.072336265884653
1.0684261974584557
1.064516129032258
1.0586510263929618
1.0547409579667644
1.0518084066471165
1.0469208211143697
1.0410557184750733
1.0381231671554252
1.0439882697947214
1.067448680351906
1.1173020527859236
1.1974584555229717
1.310850439882698
1.4545454545454546
1.6226783968719452
1.8269794721407624
2.0
2.1300097751710654
2.2737047898338223
2.412512218963832
2.536656891495601
2.641251221896383
2.7253176930596283
2.788856304985337
2.834799608993157
2.866080156402737
2.884652981427175
2.8914956011730206
2.886608015640274
2.873900293255132
2.859237536656892
2.841642228739003
2.8181818181818183
2.788856304985337
2.7546432062561097
2.713587487781036
2.664711632453568
2.6070381231671558
2.541544477028348
2.4672531769305963
2.3851417399804498
2.3059628543499517
2.225806451612903
2.1358748778103616
2.042033235581622
1.949169110459433
1.858260019550342
1.7732160312805474
1.6959921798631477
1.6265884652981428
1.5679374389051808
1.5190615835777126
1.479960899315738
1.4535679374389052
1.434017595307918
1.4134897360703813
1.3949169110459434
1.3773216031280548
1.3607038123167154
1.3450635386119256
1.3294232649071358
1.3147605083088951
1.3010752688172045
1.2883675464320623
1.2756598240469208
1.2658846529814272
1.2561094819159335
1.2424242424242424
1.2258064516129032
1.2072336265884651
1.187683284457478
1.1700879765395895
1.1544477028347997
1.1378299120234605
1.121212121212121
1.1065493646138806
1.093841642228739
1.0811339198435972
1.072336265884653
1.0664711632453567
1.0586510263929618
1.053763440860215
1.050830889540567
1.0478983382209188
1.0469208211143697
1.04594330400782
1.04594330400782
1.04594330400782
1.04594330400782
1.04594330400782
1.0478983382209188
1.0498533724340176
1.0498533724340176
1.050830889540567
1.053763440860215
1.056695992179863
1.0606060606060606
1.064516129032258
1.0684261974584557
1.0703812316715542
1.0694037145650048
1.0664711632453567
1.0654936461388074
1.0694037145650048
1.0840664711632453
1.115347018572825
1.1720430107526882
1.2609970674486803
1.383186705767351
1.533724340175953
1.70772238514174
1.895405669599218
2.0840664711632453
2.2639296187683287
2.426197458455523
2.552297165200391
2.650048875855328
2.740957966764418
2.817204301075269
2.877810361681329
2.9237536656891496
2.9530791788856305
2.967741935483871
2.9716520039100685
2.9687194525904204
2.9589442815249267
2.943304007820137
2.921798631476051
2.8944281524926687
2.86217008797654
2.8260019550342133
2.782991202346041
2.7331378299120237
2.675464320625611
2.608993157380254
2.533724340175953
2.452590420332356
2.364613880742913
2.271749755620724
2.1788856304985336
2.0977517106549364
2.024437927663734
1.948191593352884
1.8641251221896384
1.793743890518084
1.7497556207233629
1.7126099706744868
1.6823069403714566
1.6578690127077225
1.6392961876832846
1.6236559139784943
1.608993157380254
1.5962854349951123
1.585532746823069
1.5757575757575757
1.565982404692082
1.555229716520039
1.541544477028348
1.525904203323558
1.5102639296187683
1.4936461388074291
1.47702834799609
1.4604105571847508
1.4457478005865103
1.4320625610948192
1.4222873900293256
1.414467253176931
1.4037145650048877
1.3919843597262953
1.380254154447703
1.3685239491691104
1.3558162267839686
1.3440860215053765
1.3313782991202343
1.3206256109481915
1.310850439882698
1.3010752688172045
1.2903225806451613
1.284457478005865
1.2795698924731185
1.2717497556207231
1.2639296187683284
1.2551319648093842
1.2473118279569892
1.241446725317693
1.2365591397849462
1.2316715542521994
1.2267839687194526
1.2209188660801564
1.2130987292277615
1.2072336265884651
1.2013685239491692
1.1935483870967742
1.1886608015640274
1.1915933528836755
1.2121212121212122
1.2580645161290325
1.3362658846529814
1.447702834799609
1.5884652981427174
1.7526881720430108
1.9315738025415443
2.1114369501466275
2.2629521016617797
2.389051808406647
2.5131964809384164
2.6236559139784945
2.717497556207233
2.793743890518084
2.849462365591398
2.8856304985337244
2.9071358748778104
2.9159335288367547
2.9149560117302054
2.906158357771261
2.8885630498533725
2.865102639296188
2.838709677419355
2.806451612903226
2.768328445747801
2.7233626588465296
2.6715542521994133
2.611925708699902
2.5454545454545454
2.4701857282502444
2.3870967741935485
2.2981427174975564
2.2052785923753664
2.121212121212121
2.0410557184750733
1.9521016617790807
1.8621700879765395
1.7790811339198436
1.7028347996089932
1.6344086021505375
1.5777126099706744
1.5298142717497556
1.490713587487781
1.457478005865103
1.4301075268817205
1.4115347018572826
1.3988269794721409
1.3861192570869991
1.3734115347018572
1.3607038123167154
1.348973607038123
1.335288367546432
1.3186705767350928
1.3010752688172045
1.2834799608993157
1.2658846529814272
1.2473118279569892
1.2297165200391007
1.217008797653959
1.206256109481916
1.1925708699902249
1.176930596285435
1.1612903225806452
1.1456500488758554
1.1290322580645162
1.1133919843597262
1.096774193548387
1.0811339198435972
1.067448680351906
1.053763440860215
1.0449657869012707
1.0381231671554252
1.0303030303030305
1.021505376344086
1.0146627565982405
1.007820136852395
1.0
0.9941348973607038
0.989247311827957
0.9843597262952102
0.981427174975562
0.9775171065493646
0.9745845552297164
0.975562072336266
0.9794721407624634
0.981427174975562
0.9824046920821116
0.9833822091886608
0.9833822091886608
0.9833822091886608
0.9833822091886608
0.9824046920821116
0.978494623655914
0.9745845552297164
0.975562072336266
0.9872922776148584
1.0146627565982405
1.067448680351906
1.1544477028347997
1.2805474095796676
1.439882697947214
1.624633431085044
1.822091886608016
2.021505376344086
2.2111436950146626
2.3812316715542523
2.529814271749756
2.641251221896383
2.7253176930596283
2.8025415444770285
2.866080156402737
2.9149560117302054
2.948191593352884
2.9657869012707723
2.972629521016618
2.9716520039100685
2.963831867057673
2.9501466275659824
2.930596285434995
2.9042033235581624
2.8729227761485827
2.8377321603128056
2.7976539589442817
2.7497556207233624
2.6940371456500487
2.6295210166177907
2.5562072336265884
2.474095796676442
2.383186705767351
2.2873900293255134
2.188660801564027
2.089931573802541
2.005865102639296
1.9305962854349952
1.8514173998044965
1.7771260997067448
1.7116324535679377
1.6559139784946235
1.6080156402737047
1.56891495601173
1.5386119257087
1.5141739980449658
1.4936461388074291
1.47702834799609
1.4652981427174976
1.457478005865103
1.4496578690127078
1.439882697947214
1.4281524926686218
1.4164222873900294
1.4037145650048877
1.391006842619746
1.3782991202346042
1.3655913978494625
1.3528836754643203
1.3401759530791788
1.327468230694037
1.3186705767350928
1.310850439882698
1.300097751710655
1.289345063538612
1.2805474095796676
1.2717497556207231
1.262952101661779
1.2541544477028348
1.2453567937438903
1.2355816226783969
1.2258064516129032
1.2160312805474096
1.2052785923753666
1.1994134897360704
1.195503421309873
1.1915933528836755
1.1896383186705768
1.1886608015640274
1.187683284457478
1.187683284457478
1.187683284457478
1.187683284457478
1.18475073313783
1.1808406647116323
1.1759530791788857
1.1749755620723363
1.176930596285435
1.1896383186705768
1.217008797653959
1.267839687194526
1.3958944281524928
1.5249266862170088
1.6813294232649072
1.8563049853372435
2.0410557184750733
2.222873900293255
2.3900293255131966
2.5219941348973607
2.625610948191593
2.7233626588465296
2.8054740957966766
2.8719452590420333
2.920821114369501
2.95405669599218
2.972629521016618
2.978494623655914
2.9696969696969697
2.956011730205278
2.9442815249266863
2.924731182795699
2.897360703812317
2.866080156402737
2.8299120234604107
2.787878787878788
2.7370478983382207
2.678396871945259
2.6099706744868034
2.530791788856305
2.443792766373412
2.350928641251222
2.2551319648093844
2.1593352883675463
2.0762463343108504
2.0019550342130987
1.9266862170087975
1.8563049853372435
1.7927663734115349
1.7380254154447703
1.6920821114369502
1.6549364613880744
1.624633431085044
1.6001955034213098
1.5806451612903225
1.564027370478983
1.5532746823069403
1.5454545454545454
1.5356793743890518
1.5239491691104594
1.501466275659824
1.4848484848484849
1.4682306940371457
1.435972629521017
1.4203323558162269
1.4056695992179864
1.3841642228739004
1.3734115347018572
1.3626588465298142
1.3479960899315735
1.3255131964809383
1.310850439882698
1.2971652003910068
1.278592375366569
1.2688172043010753
1.2580645161290325
1.24633431085044
1.2346041055718475
1.2267839687194526
1.219941348973607
1.2121212121212122
1.203323558162268
1.1945259042033236
1.1867057673509287
1.1779081133919844
1.1691104594330402
1.1612903225806452
1.1534701857282503
1.147605083088954
1.1505376344086022
1.1583577712609971
1.164222873900293
1.1700879765395895
1.1720430107526882
1.1730205278592376
1.173998044965787
1.173998044965787
1.1720430107526882
1.1691104594330402
1.1652003910068427
1.1622678396871946
1.164222873900293
1.1798631476050832
1.2101661779081134
1.2619745845552297
1.3479960899315735
1.4721407624633431
1.6285434995112416
1.8084066471163245
2.0
2.193548387096774
2.375366568914956
2.539589442815249
2.681329423264907
2.7996089931573804
2.8944281524926687
2.956011730205278
2.995112414467253
3.0283479960899315
3.0518084066471163
3.0664711632453567
3.071358748778104
3.067448680351906
3.0547409579667644
3.035190615835777
3.010752688172043
2.981427174975562
2.946236559139785
2.9071358748778104
2.863147605083089
2.812316715542522
2.752688172043011
2.6852394916911044
2.6099706744868034
2.5249266862170088
2.432062561094819
2.333333333333333
2.232649071358749
2.131964809384164
2.0332355816226784
1.9403714565004888
1.8631476050830889
1.7976539589442817
1.7341153470185728
1.6774193548387095
1.6285434995112416
1.585532746823069
1.5493646138807429
1.5190615835777126
1.4926686217008798
1.469208211143695
1.4486803519061584
1.43108504398827
1.4134897360703813
1.4007820136852396
1.3900293255131966
1.3763440860215057
1.3607038123167154
1.3421309872922775
1.3235581622678396
1.305962854349951
1.2883675464320623
1.2717497556207231
1.2551319648093842
1.238514173998045
1.2258064516129032
1.2150537634408602
1.2013685239491692
1.187683284457478
1.173998044965787
1.1612903225806452
1.1485826001955035
1.1378299120234605
1.1290322580645162
1.121212121212121
1.1143695014662756
1.10752688172043
1.099706744868035
1.0948191593352885
1.0928641251221896
1.0879765395894427
1.0811339198435972
1.075268817204301
1.0703812316715542
1.0654936461388074
1.0635386119257086
1.064516129032258
1.0664711632453567
1.0694037145650048
1.0733137829912025
1.078201368523949
1.0821114369501466
1.0821114369501466
1.0811339198435972
1.0811339198435972
1.0840664711632453
1.0957966764418376
1.1231671554252198
1.1759530791788857
1.2590420332355816
1.375366568914956
1.521994134897361
1.694037145650049
1.8563049853372435
2.0117302052785924
2.1837732160312804
2.3528836754643208
2.5083088954056696
2.644183773216031
2.755620723362659
2.844574780058651
2.913000977517106
2.962854349951124
2.997067448680352
3.0175953079178885
3.021505376344086
3.0146627565982405
3.004887585532747
2.991202346041056
2.972629521016618
2.949169110459433
2.919843597262952
2.8836754643206257
2.8406647116324537
2.791788856304985
2.7341153470185726
2.667644183773216
2.593352883675464
2.520039100684262
2.44672531769306
2.3626588465298144
2.270772238514174
2.1788856304985336
2.090909090909091
2.006842619745845
1.9305962854349952
1.8631476050830889
1.8035190615835777
1.7556207233626588
1.7174975562072337
1.689149560117302
1.6686217008797657
1.651026392961877
1.635386119257087
1.6217008797653958
1.608993157380254
1.5962854349951123
1.5835777126099706
1.5718475073313782
1.5620723362658846
1.5503421309872922
1.5366568914956011
1.521016617790811
1.5083088954056696
1.4975562072336266
1.4848484848484849
1.4701857282502444
1.455522971652004
1.4418377321603129
1.4291300097751711
1.41544477028348
1.4007820136852396
1.3870967741935485
1.3743890518084063
1.3616813294232648
1.3519061583577712
1.343108504398827
1.3313782991202343
1.3196480938416422
1.3069403714565004
1.295210166177908
1.2854349951124144
1.2766373411534702
1.2668621700879763
1.2570869990224829
1.2473118279569892
1.238514173998045
1.2297165200391007
1.224828934506354
1.2228739002932552
1.2218963831867058
1.2218963831867058
1.2209188660801564
1.2189638318670577
1.217008797653959
1.2130987292277615
1.2043010752688172
1.1964809384164223
1.1915933528836755
1.1886608015640274
1.1925708699902249
1.2082111436950147
1.2434017595307918
1.3069403714565004
1.4496578690127078
1.6050830889540566
1.7311827956989247
1.8944281524926687
2.075268817204301
2.257086999022483
2.4281524926686218
2.581622678396872
2.718475073313783
2.81622678396872
2.8807429130009776
2.9393939393939394
2.9853372434017595
3.016617790811339
3.035190615835777
3.040078201368524
3.0332355816226784
3.0175953079178885
2.9960899315738025
2.9696969696969697
2.9286412512218964
2.889540566959922
2.8582600195503423
2.8181818181818183
2.7497556207233624
2.681329423264907
2.6265884652981426
2.558162267839687
2.4760508308895406
2.3841642228739004
2.2854349951124147
2.182795698924731
2.081133919843597
1.9824046920821117
1.8973607038123168
1.822091886608016
1.732160312805474
1.656891495601173
1.6080156402737047
1.5650048875855327
1.5288367546432062
1.500488758553275
1.478005865102639
1.458455522971652
1.439882697947214
1.4213098729227762
1.4007820136852396
1.3841642228739004
1.367546432062561
1.3509286412512218
1.3372434017595307
1.305962854349951
1.262952101661779
1.2336265884652982
1.2140762463343109
1.1964809384164223
1.1788856304985338
1.1622678396871946
1.144672531769306
1.130987292277615
1.1202346041055715
1.10752688172043
1.0899315738025417
1.0742913000977516
1.06158357771261
1.04594330400782
1.0263929618768328
1.0097751710654936
0.9951124144672532
0.981427174975562
0.9745845552297164
0.9687194525904204
0.9618768328445748
0.95405669599218
0.946236559139785
0.93841642228739
0.9305962854349952
0.9217986314760508
0.9149560117302052
0.9100684261974584
0.9081133919843596
0.9071358748778104
0.9081133919843596
0.9110459433040078
0.9100684261974584
0.906158357771261
0.8993157380254154
0.8924731182795699
0.8866080156402737
0.8885630498533724
0.9071358748778104
0.9501466275659824
1.0224828934506354
1.1300097751710656
1.270772238514174
1.4134897360703813
1.5610948191593352
1.7350928641251222
1.916911045943304
2.090909090909091
2.249266862170088
2.386119257086999
2.5004887585532747
2.590420332355816
2.6608015640273703
2.7145650048875853
2.7517106549364616
2.7702834799608995
2.776148582600196
2.777126099706745
2.7722385141739982
2.7614858260019552
2.744868035190616
2.7223851417399803
2.6940371456500487
2.66177908113392
2.622678396871945
2.5777126099706744
2.5249266862170088
2.463343108504399
2.401759530791789
2.3362658846529816
2.2580645161290325
2.1700879765395893
2.075268817204301
1.978494623655914
1.8836754643206255
1.7927663734115349
1.7096774193548387
1.635386119257087
1.5698924731182795
1.5151515151515151
1.474095796676442
1.4437927663734116
1.4173998044965788
1.3958944281524928
1.3812316715542523
1.3714565004887584
1.3636363636363635
1.3558162267839686
1.3470185728250244
1.3362658846529814
1.324535679374389
1.3118279569892473
1.2971652003910068
1.284457478005865
1.273704789833822
1.2619745845552297
1.2512218963831867
1.241446725317693
1.2326490713587488
1.2238514173998043
1.2140762463343109
1.2043010752688172
1.1935483870967742
1.181818181818182
1.1700879765395895
1.160312805474096
1.152492668621701
1.144672531769306
1.1368523949169111
1.1290322580645162
1.1221896383186705
1.1163245356793745
1.1114369501466277
1.10752688172043
1.1055718475073313
1.104594330400782
1.104594330400782
1.1055718475073313
1.1085043988269794
1.1124144672531768
1.1133919843597262
1.1143695014662756
1.115347018572825
1.1163245356793745
1.1163245356793745
1.1163245356793745
1.1163245356793745
1.1163245356793745
1.115347018572825
1.115347018572825
1.118279569892473
1.1221896383186705
1.130987292277615
1.1505376344086022
1.1906158357771262
1.2580645161290325
1.356793743890518
1.4887585532746823
1.6480938416422288
1.8269794721407624
2.0146627565982405
2.20039100684262
2.3734115347018574
2.5083088954056696
2.6148582600195502
2.7145650048875853
2.7976539589442817
2.863147605083089
2.913000977517106
2.948191593352884
2.9687194525904204
2.9775171065493646
2.978494623655914
2.9716520039100685
2.9579667644183774
2.936461388074292
2.909090909090909
2.877810361681329
2.841642228739003
2.798631476050831
2.7468230694037143
2.686217008797654
2.6177908113391983
2.541544477028348
2.458455522971652
2.3685239491691106
2.274682306940372
2.179863147605083
2.096774193548387
2.021505376344086
1.945259042033236
1.871945259042033
1.804496578690127
1.7448680351906158
1.6950146627565983
1.6549364613880744
1.6226783968719452
1.5972629521016617
1.576735092864125
1.560117302052786
1.5483870967741935
1.5376344086021505
1.5239491691104594
1.509286412512219
1.4946236559139785
1.478983382209189
1.4633431085043989
1.447702834799609
1.4330400782013686
1.4173998044965788
1.4007820136852396
1.3861192570869991
1.370478983382209
1.3577712609970674
1.3470185728250244
1.332355816226784
1.316715542521994
1.3010752688172045
1.2864125122189638
1.2717497556207231
1.2580645161290325
1.2473118279569892
1.2375366568914956
1.2287390029325511
1.219941348973607
1.2150537634408602
1.2111436950146628
1.2052785923753666
1.198435972629521
1.1906158357771262
1.1827956989247312
1.173998044965787
1.166177908113392
1.1573802541544478
1.1495601173020529
1.141739980449658
1.1329423264907137
1.126099706744868
1.1221896383186705
1.1202346041055715
1.115347018572825
1.1065493646138806
1.096774193548387
1.0899315738025417
1.0928641251221896
1.115347018572825
1.164222873900293
1.2473118279569892
1.364613880742913
1.5131964809384164
1.6598240469208212
1.8074291300097751
1.9775171065493649
2.1495601173020527
2.3088954056695994
2.449657869012708
2.567937438905181
2.662756598240469
2.735092864125122
2.789833822091887
2.8289345063538613
2.855327468230694
2.8719452590420333
2.875855327468231
2.8690127077223853
2.8582600195503423
2.841642228739003
2.819159335288368
2.791788856304985
2.7565982404692084
2.7155425219941347
2.668621700879765
2.613880742913001
2.550342130987292
2.4887585532746823
2.4359726295210167
2.3743890518084068
2.2981427174975564
2.2130987292277613
2.1221896383186705
2.0303030303030303
1.9403714565004888
1.8543499511241448
1.775171065493646
1.704789833822092
1.643206256109482
1.590420332355816
1.5503421309872922
1.5190615835777126
1.4887585532746823
1.4633431085043989
1.4428152492668622
1.4252199413489737
1.409579667644184
1.393939393939394
1.3763440860215057
1.3587487781036167
1.3440860215053765
1.3313782991202343
1.316715542521994
1.305962854349951
1.2961876832844574
1.2834799608993157
1.2697947214076246
1.2551319648093842
1.2394916911045943
1.224828934506354
1.2111436950146628
1.198435972629521
1.1867057673509287
1.1749755620723363
1.163245356793744
1.155425219941349
1.1495601173020529
1.1407624633431086
1.1300097751710656
1.1192570869990224
1.1085043988269794
1.099706744868035
1.0909090909090908
1.083088954056696
1.075268817204301
1.067448680351906
1.0606060606060606
1.0557184750733135
1.056695992179863
1.0596285434995112
1.06158357771261
1.0625610948191593
1.0625610948191593
1.0625610948191593
1.0625610948191593
1.06158357771261
1.0586510263929618
1.0527859237536656
1.04594330400782
1.0410557184750733
1.0410557184750733
1.0478983382209188
1.0654936461388074
1.1006842619745845
1.160312805474096
1.2512218963831867
1.3734115347018572
