ppg
2.4780058651026398
2.372434017595308
2.2658846529814274
2.161290322580645
2.060606060606061
1.9657869012707725
1.878787878787879
1.7996089931573802
1.729227761485826
1.667644183773216
1.6187683284457477
1.5796676441837731
1.542521994134897
1.5073313782991202
1.4750733137829912
1.4486803519061584
1.4291300097751711
1.4173998044965788
1.4164222873900294
1.4252199413489737
1.444770283479961
1.4750733137829912
1.512218963831867
1.5483870967741935
1.5835777126099706
1.6236559139784943
1.6656891495601174
1.7028347996089932
1.7331378299120237
1.7556207233626588
1.7702834799608993
1.7761485826001957
1.7732160312805474
1.761485826001955
1.7429130009775171
1.7233626588465298
1.7018572825024438
1.6744868035190617
1.643206256109482
1.608993157380254
1.5747800586510263
1.5405669599217986
1.5034213098729228
1.466275659824047
1.4291300097751711
1.393939393939394
1.3626588465298142
1.3333333333333333
1.3098729227761483
1.289345063538612
1.267839687194526
1.2473118279569892
1.227761485826002
1.209188660801564
1.1915933528836755
1.173998044965787
1.1593352883675463
1.1505376344086022
1.1436950146627567
1.1407624633431086
1.142717497556207
1.147605083088954
1.1534701857282503
1.160312805474096
1.1671554252199414
1.1759530791788857
1.1867057673509287
1.1974584555229717
1.209188660801564
1.2209188660801564
1.2336265884652982
1.24633431085044
1.2570869990224829
1.267839687194526
1.2795698924731185
1.2903225806451613
1.3010752688172045
1.3088954056695992
1.3128054740957966
1.313782991202346
1.3157380254154447
1.327468230694037
1.3607038123167154
1.426197458455523
1.5347018572825024
1.6608015640273706
1.8113391984359728
2.010752688172043
2.233626588465298
2.455522971652004
2.6510263929618767
2.803519061583578
2.905180840664712
2.9550342130987293
2.956989247311828
2.919843597262952
2.8533724340175954
2.777126099706745
2.69208211143695
2.593352883675464
2.4858260019550342
2.375366568914956
2.2658846529814274
2.161290322580645
2.0625610948191597
1.9716520039100685
1.8885630498533723
1.81524926686217
1.7497556207233629
1.6920821114369502
1.64613880742913
1.6080156402737047
1.5698924731182795
1.5317693059628543
1.495601173020528
1.4623655913978495
1.434017595307918
1.4105571847507332
1.3949169110459434
1.3890518084066472
1.393939393939394
1.4086021505376345
1.4271749755620724
1.4486803519061584
1.47702834799609
1.5073313782991202
1.5376344086021505
1.5669599217986314
1.5923753665689149
1.6129032258064515
1.6265884652981428
1.6334310850439884
1.6334310850439884
1.624633431085044
1.608993157380254
1.590420332355816
1.5698924731182795
1.543499511241447
1.5112414467253177
1.4760508308895406
1.439882697947214
1.4037145650048877
1.3685239491691104
1.3333333333333333
1.300097751710655
1.267839687194526
1.2355816226783969
1.2013685239491692
1.173998044965787
1.1534701857282503
1.1290322580645162
1.1036168132942326
1.078201368523949
1.053763440860215
1.0303030303030305
1.0087976539589445
0.9902248289345064
0.9745845552297164
0.9618768328445748
0.9511241446725318
0.9472140762463344
0.946236559139785
0.946236559139785
0.9472140762463344
0.9501466275659824
0.9560117302052786
0.9628543499511242
0.9706744868035192
0.9804496578690128
0.9931573802541545
1.007820136852395
1.024437927663734
1.0420332355816226
1.0606060606060606
1.0801564027370478
1.0977517106549364
1.1143695014662756
1.1280547409579669
1.1397849462365592
1.152492668621701
1.1720430107526882
1.2121212121212122
1.2854349951124144
1.4633431085043989
1.6598240469208212
1.7888563049853372
1.951124144672532
2.164222873900293
2.3870967741935485
2.590420332355816
2.7517106549364616
2.860215053763441
2.913978494623656
2.9159335288367547
2.875855327468231
2.774193548387097
2.664711632453568
2.590420332355816
2.4711632453567938
2.3489736070381237
2.257086999022483
2.1515151515151514
2.042033235581622
1.9335288367546437
1.83088954056696
1.7350928641251222
1.6334310850439884
1.5493646138807429
1.4936461388074291
1.4389051808406648
1.3861192570869991
1.3391984359726294
1.3040078201368523
1.2805474095796676
1.2717497556207231
1.270772238514174
1.2883675464320623
1.3313782991202343
1.3841642228739004
1.4281524926686218
1.4897360703812317
1.5698924731182795
1.6373411534701858
1.7057673509286413
1.7683284457478006
1.8211143695014664
1.8621700879765395
1.889540566959922
1.903225806451613
1.9090909090909087
1.900293255131965
1.8748778103616808
1.844574780058651
1.8093841642228736
1.775171065493646
1.7409579667644184
1.7008797653958945
1.6578690127077225
1.611925708699902
1.5650048875855327
1.5190615835777126
1.479960899315738
1.4545454545454546
1.452590420332356
1.4809384164222874
1.544477028347996
1.6236559139784943
1.7223851417399805
1.855327468230694
2.003910068426197
2.1495601173020527
2.280547409579668
2.3851417399804498
2.4565004887585533
2.493646138807429
2.4995112414467253
2.4789833822091887
2.4379276637341154
2.383186705767351
2.3255131964809386
2.264907135874878
2.198435972629521
2.1300097751710654
2.06158357771261
1.9931573802541545
1.927663734115347
1.8631476050830889
1.8005865102639296
1.7390029325513197
1.678396871945259
1.6207233626588464
1.5718475073313782
1.5278592375366569
1.4809384164222874
1.436950146627566
1.3998044965786902
1.3714565004887584
1.3548387096774193
1.348973607038123
1.35386119257087
1.3685239491691104
1.391006842619746
1.4203323558162269
1.4535679374389052
1.4838709677419355
1.512218963831867
1.5405669599217986
1.5669599217986314
1.587487781036168
1.6021505376344083
1.608993157380254
1.6099706744868034
1.6041055718475072
1.5913978494623655
1.5747800586510263
1.555229716520039
1.5366568914956011
1.517106549364614
1.4926686217008798
1.4652981427174976
1.4349951124144673
1.4037145650048877
1.3724340175953078
1.3421309872922775
1.3128054740957966
1.284457478005865
1.2580645161290325
1.2326490713587488
1.2140762463343109
1.1994134897360704
1.1837732160312806
1.1681329423264908
1.155425219941349
1.144672531769306
1.1348973607038124
1.1280547409579669
1.1231671554252198
1.1192570869990224
1.118279569892473
1.1192570869990224
1.1221896383186705
1.1280547409579669
1.1368523949169111
1.1456500488758554
1.1544477028347997
1.1622678396871946
1.1700879765395895
1.1798631476050832
1.1896383186705768
1.2121212121212122
1.241446725317693
1.260019550342131
1.273704789833822
1.284457478005865
1.2942326490713587
1.3010752688172045
1.305962854349951
1.3079178885630498
1.3088954056695992
1.3098729227761483
1.3098729227761483
1.3098729227761483
1.3098729227761483
1.310850439882698
1.3118279569892473
1.3128054740957966
1.3147605083088951
1.3157380254154447
1.3118279569892473
1.3049853372434017
1.2971652003910068
1.2971652003910068
1.3157380254154447
1.3695014662756595
1.4711632453567938
1.6275659824046922
1.833822091886608
2.0762463343108504
2.2981427174975564
2.496578690127077
2.6959921798631474
2.863147605083089
2.9775171065493646
3.035190615835777
3.0410557184750733
3.002932551319648
2.932551319648094
2.8396871945259043
2.7331378299120237
2.618768328445748
2.501466275659824
2.3958944281524928
2.2981427174975564
2.1945259042033234
2.089931573802541
1.988269794721408
1.8944281524926687
1.8084066471163245
1.7302052785923754
1.6598240469208212
1.598240469208211
1.542521994134897
1.4916911045943304
1.4516129032258065
1.4193548387096775
1.3919843597262953
1.3724340175953078
1.3626588465298142
1.3665689149560116
1.3851417399804498
1.4173998044965788
1.4613880742913
1.5131964809384164
1.56891495601173
1.624633431085044
1.678396871945259
1.7223851417399805
1.7556207233626588
1.7820136852394917
1.7996089931573802
1.8074291300097751
1.8035190615835777
1.790811339198436
1.7702834799608993
1.7419354838709675
1.7067448680351909
1.6686217008797657
1.6275659824046922
1.5913978494623655
1.5562072336265884
1.5180840664711632
1.4809384164222874
1.4437927663734116
1.4086021505376345
1.3734115347018572
1.3401759530791788
1.3079178885630498
1.2776148582600195
1.2482893450635386
1.2209188660801564
1.1964809384164223
1.1788856304985338
1.164222873900293
1.1466275659824048
1.1300097751710656
1.1133919843597262
1.0987292277614855
1.0850439882697946
1.0733137829912025
1.0635386119257086
1.056695992179863
1.0527859237536656
1.050830889540567
1.053763440860215
1.0596285434995112
1.067448680351906
1.078201368523949
1.0918866080156402
1.1085043988269794
1.1270772238514175
1.1485826001955035
1.1730205278592376
1.1974584555229717
1.2228739002932552
1.2482893450635386
1.2727272727272727
1.295210166177908
1.3128054740957966
1.3264907135874875
1.3391984359726294
1.3548387096774193
1.380254154447703
1.4271749755620724
1.5073313782991202
1.629521016617791
1.7956989247311828
1.997067448680352
2.217986314760508
2.409579667644184
2.5718475073313782
2.7253176930596283
2.8455522971652005
2.918866080156403
2.945259042033236
2.9286412512218964
2.878787878787879
2.803519061583578
2.710654936461388
2.6080156402737047
2.4995112414467253
2.389051808406647
2.291300097751711
2.20039100684262
2.104594330400782
2.010752688172043
1.9227761485826005
1.8416422287390029
1.76930596285435
1.7038123167155426
1.64613880742913
1.595307917888563
1.5513196480938416
1.5141739980449658
1.4858260019550342
1.466275659824047
1.4516129032258065
1.4457478005865103
1.4506353861192571
1.466275659824047
1.4926686217008798
1.5298142717497556
1.5747800586510263
1.624633431085044
1.6764418377321604
1.726295210166178
1.772238514173998
1.8084066471163245
1.833822091886608
1.8533724340175952
1.8641251221896384
1.8670576735092863
1.8602150537634408
1.8455522971652003
1.823069403714565
1.796676441837732
1.7673509286412512
1.7341153470185728
1.6989247311827955
1.667644183773216
1.6373411534701858
1.603128054740958
1.5669599217986314
1.530791788856305
1.4965786901270772
1.4643206256109482
1.434017595307918
1.4056695992179864
1.3782991202346042
1.3509286412512218
1.3255131964809383
1.3040078201368523
1.2883675464320623
1.2746823069403714
1.2609970674486803
1.2482893450635386
1.2365591397849462
1.2267839687194526
1.2218963831867058
1.2189638318670577
1.2179863147605083
1.2189638318670577
1.2218963831867058
1.2267839687194526
1.2336265884652982
1.2434017595307918
1.2541544477028348
1.2658846529814272
1.2776148582600195
1.2903225806451613
1.3040078201368523
1.3176930596285434
1.3313782991202343
1.3450635386119256
1.3587487781036167
1.3714565004887584
1.383186705767351
1.3919843597262953
1.3978494623655917
1.3998044965786902
1.3998044965786902
1.404692082111437
1.4242424242424243
1.4711632453567938
1.555229716520039
1.6842619745845553
1.857282502443793
2.0635386119257086
2.283479960899316
2.4711632453567938
2.6285434995112413
2.7751710654936463
2.887585532746823
2.9550342130987293
2.9775171065493646
2.9579667644183774
2.906158357771261
2.831867057673509
2.742913000977517
2.6451612903225805
2.541544477028348
2.447702834799609
2.358748778103617
2.2658846529814274
2.1739980449657867
2.0869990224828934
2.006842619745845
1.9345063538611929
1.8699902248289344
1.8142717497556209
1.7644183773216031
1.7194525904203324
1.6793743890518085
1.6422287390029326
1.611925708699902
1.5865102639296187
1.5464320625610948
1.5034213098729228
1.478983382209189
1.4682306940371457
1.4682306940371457
1.478983382209189
1.498533724340176
1.521994134897361
1.5483870967741935
1.5757575757575757
1.598240469208211
1.6158357771260996
1.632453567937439
1.6441837732160314
1.6490713587487782
1.6471163245356797
1.6383186705767352
1.6226783968719452
1.6021505376344083
1.5786901270772238
1.5513196480938416
1.521994134897361
1.4897360703812317
1.4604105571847508
1.434017595307918
1.4027370478983383
1.3685239491691104
1.332355816226784
1.2961876832844574
1.2619745845552297
1.2326490713587488
1.2130987292277615
1.2121212121212122
1.238514173998045
1.2991202346041055
1.3782991202346042
1.478005865102639
1.6138807429130009
1.7702834799608993
1.9286412512218964
2.072336265884653
2.189638318670577
2.271749755620724
2.3167155425219943
2.326490713587488
2.30791788856305
2.264907135874878
2.2052785923753664
2.144672531769306
2.0821114369501466
2.0097751710654936
1.9335288367546437
1.8563049853372435
1.7810361681329423
1.70772238514174
1.635386119257087
1.5650048875855327
1.498533724340176
1.434017595307918
1.3724340175953078
1.3225806451612905
1.278592375366569
1.2326490713587488
1.1906158357771262
1.1573802541544478
1.1348973607038124
1.1251221896383188
1.1300097751710656
1.1495601173020529
1.1808406647116323
1.2238514173998043
1.2746823069403714
1.3294232649071358
1.3782991202346042
1.423264907135875
1.469208211143695
1.509286412512219
1.542521994134897
1.5669599217986314
1.5806451612903225
1.58455522971652
1.5786901270772238
1.564027370478983
1.543499511241447
1.5180840664711632
1.4936461388074291
1.469208211143695
1.439882697947214
1.4066471163245358
1.3724340175953078
1.3372434017595307
1.303030303030303
1.2717497556207231
1.241446725317693
1.2121212121212122
1.18475073313783
1.160312805474096
1.13880742913001
1.1241446725317692
1.1124144672531768
1.1006842619745845
1.088954056695992
1.0801564027370478
1.0733137829912025
1.0694037145650048
1.0703812316715542
1.0742913000977516
1.0801564027370478
1.088954056695992
1.1016617790811338
1.1173020527859236
1.133919843597263
1.152492668621701
1.1700879765395895
1.187683284457478
1.2052785923753666
1.2228739002932552
1.2394916911045943
1.2551319648093842
1.2697947214076246
1.284457478005865
1.2961876832844574
1.3069403714565004
1.316715542521994
1.3255131964809383
1.3343108504398826
1.3411534701857282
1.3479960899315735
1.35386119257087
1.359726295210166
1.364613880742913
1.3695014662756595
1.3743890518084063
1.3782991202346042
1.3822091886608017
1.3870967741935485
1.391006842619746
1.392961876832845
1.392961876832845
1.388074291300098
1.3782991202346042
1.367546432062561
1.3655913978494625
1.3861192570869991
1.4437927663734116
1.5503421309872922
1.7116324535679377
1.919843597262952
2.121212121212121
2.3167155425219943
2.529814271749756
2.724340175953079
2.875855327468231
2.973607038123167
3.016617790811339
3.0117302052785924
2.9696969696969697
2.8993157380254155
2.8103616813294234
2.7096774193548385
2.6129032258064515
2.5190615835777126
2.4164222873900294
2.312805474095797
2.2130987292277613
2.118279569892473
2.0283479960899315
1.946236559139785
1.8729227761485825
1.8064516129032255
1.7468230694037146
1.694037145650049
1.651026392961877
1.6148582600195502
1.5796676441837731
1.5483870967741935
1.5249266862170088
1.5102639296187683
1.5053763440860215
1.5112414467253177
1.5268817204301075
1.5542521994134897
1.590420332355816
1.6314760508308896
1.6735092864125125
1.7096774193548387
1.739980449657869
1.7683284457478006
1.7898338220918866
1.8035190615835777
1.8074291300097751
1.8025415444770283
1.7898338220918866
1.7712609970674489
1.7468230694037146
1.718475073313783
1.6881720430107527
1.6598240469208212
1.632453567937439
1.6011730205278591
1.5669599217986314
1.5317693059628543
1.4946236559139785
1.458455522971652
1.4222873900293256
1.3890518084066472
1.3587487781036167
1.3304007820136852
1.303030303030303
1.2776148582600195
1.2580645161290325
1.2404692082111437
1.219941348973607
1.198435972629521
1.1759530791788857
1.1544477028347997
1.1348973607038124
1.1192570869990224
1.1055718475073313
1.0948191593352885
1.086021505376344
1.0801564027370478
1.078201368523949
1.078201368523949
1.0762463343108504
1.075268817204301
1.075268817204301
1.0762463343108504
1.078201368523949
1.0821114369501466
1.0869990224828934
1.0918866080156402
1.0977517106549364
1.1036168132942326
1.1085043988269794
1.1133919843597262
1.1202346041055715
1.1270772238514175
1.130987292277615
1.1319648093841643
1.1270772238514175
1.118279569892473
1.1094819159335287
1.1085043988269794
1.1280547409579669
1.1808406647116323
1.2776148582600195
1.3949169110459434
1.5395894428152492
1.7360703812316716
1.9589442815249267
2.1818181818181817
2.3822091886608017
2.539589442815249
2.6451612903225805
2.6989247311827955
2.686217008797654
2.624633431085044
2.548387096774193
2.4594330400782014
2.372434017595308
2.283479960899316
2.182795698924731
2.075268817204301
1.9667644183773216
1.8621700879765395
1.7624633431085044
1.6695992179863148
1.58455522971652
1.5083088954056696
1.4408602150537635
1.380254154447703
1.332355816226784
1.2932551319648091
1.2531769305962854
1.2160312805474096
1.1827956989247312
1.1564027370478984
1.13880742913001
1.1329423264907137
1.1397849462365592
1.160312805474096
1.1945259042033236
1.2404692082111437
1.295210166177908
1.348973607038123
1.401759530791789
1.4594330400782014
1.517106549364614
1.5679374389051808
1.6080156402737047
1.635386119257087
1.651026392961877
1.653958944281525
1.64613880742913
1.6285434995112416
1.6021505376344083
1.5747800586510263
1.5454545454545454
1.5102639296187683
1.4711632453567938
1.4301075268817205
1.3890518084066472
1.3470185728250244
1.3069403714565004
1.267839687194526
1.23069403714565
1.1964809384164223
1.1652003910068427
1.1358748778103618
1.1133919843597262
1.096774193548387
1.0791788856304985
1.0625610948191593
1.0469208211143697
1.0332355816226784
1.0224828934506354
1.0156402737047898
1.0127077223851415
1.0117302052785924
1.013685239491691
1.0175953079178883
1.0254154447702837
1.0361681329423265
1.0488758553274682
1.064516129032258
1.0821114369501466
1.099706744868035
1.1192570869990224
1.1407624633431086
1.1622678396871946
1.1837732160312806
1.2052785923753666
1.2267839687194526
1.2473118279569892
1.2658846529814272
1.281524926686217
1.295210166177908
1.3049853372434017
1.3088954056695992
1.310850439882698
1.3186705767350928
1.3421309872922775
1.3919843597262953
1.4809384164222874
1.6138807429130009
1.7859237536656891
1.9560117302052784
2.12316715542522
2.3098729227761488
2.4858260019550342
2.6285434995112413
2.727272727272727
2.780058651026393
2.789833822091887
2.764418377321604
2.710654936461388
2.638318670576735
2.5532746823069403
2.4594330400782014
2.372434017595308
2.289345063538612
2.2023460410557183
2.115347018572825
2.03128054740958
1.9530791788856303
1.8826979472140764
1.8201368523949168
1.7644183773216031
1.715542521994135
1.672531769305963
1.6344086021505375
1.603128054740958
1.5757575757575757
1.5483870967741935
1.52297165200391
1.501466275659824
1.4848484848484849
1.4750733137829912
1.474095796676442
1.482893450635386
1.499511241446725
1.521994134897361
1.547409579667644
1.5708699902248289
1.5923753665689149
1.6148582600195502
1.6344086021505375
1.6500488758553276
1.6598240469208212
1.6637341153470186
1.6608015640273706
1.6520039100684265
1.6383186705767352
1.619745845552297
1.598240469208211
1.573802541544477
1.5503421309872922
1.5278592375366569
1.501466275659824
1.474095796676442
1.4457478005865103
1.4164222873900294
1.388074291300098
1.3616813294232648
1.335288367546432
1.3088954056695992
1.284457478005865
1.2609970674486803
1.241446725317693
1.224828934506354
1.206256109481916
1.187683284457478
1.1691104594330402
1.1515151515151516
1.133919843597263
1.118279569892473
1.104594330400782
1.093841642228739
1.0850439882697946
1.0791788856304985
1.0762463343108504
1.0762463343108504
1.0791788856304985
1.0821114369501466
1.0850439882697946
1.0879765395894427
1.0918866080156402
1.096774193548387
1.1026392961876832
1.1085043988269794
1.1143695014662756
1.1202346041055715
1.1280547409579669
1.1358748778103618
1.1436950146627567
1.1485826001955035
1.1495601173020529
1.1466275659824048
1.1407624633431086
1.1358748778103618
1.1397849462365592
1.163245356793744
1.2189638318670577
1.316715542521994
1.458455522971652
1.640273704789834
1.8191593352883677
1.9931573802541545
2.1847507331378297
2.364613880742913
2.5102639296187683
2.6099706744868034
2.6608015640273703
2.6666666666666665
2.634408602150537
2.573802541544477
2.49266862170088
2.3978494623655915
2.3069403714565007
2.217986314760508
2.120234604105572
2.0205278592375366
1.921798631476051
1.826001955034213
1.737047898338221
1.6549364613880744
1.5806451612903225
1.5141739980449658
1.455522971652004
1.4037145650048877
1.3577712609970674
1.3206256109481915
1.289345063538612
1.2580645161290325
1.2297165200391007
1.2052785923753666
1.1896383186705768
1.18475073313783
1.1915933528836755
1.2082111436950147
1.2346041055718475
1.270772238514174
1.313782991202346
1.3548387096774193
1.3949169110459434
1.4379276637341154
1.4819159335288368
1.521016617790811
1.552297165200391
1.576735092864125
1.590420332355816
1.5943304007820136
1.587487781036168
1.5718475073313782
1.5483870967741935
1.5180840664711632
1.487781036168133
1.456500488758553
1.4203323558162269
1.380254154447703
1.33822091886608
1.2971652003910068
1.2570869990224829
1.217008797653959
1.1779081133919844
1.141739980449658
1.10752688172043
1.075268817204301
1.0488758553274682
1.0263929618768328
1.002932551319648
0.989247311827957
0.981427174975562
0.9706744868035192
0.9608993157380256
0.95405669599218
0.9511241446725318
0.9511241446725318
0.95405669599218
0.9589442815249268
0.9667644183773216
0.978494623655914
0.9941348973607038
1.010752688172043
1.0283479960899315
1.0478983382209188
1.0694037145650048
1.0948191593352885
1.121212121212121
1.1495601173020529
1.176930596285435
1.2023460410557183
1.2258064516129032
1.2473118279569892
1.2658846529814272
1.281524926686217
1.2932551319648091
1.3049853372434017
1.3225806451612905
1.3577712609970674
1.4222873900293256
1.5268817204301075
1.6744868035190617
1.8631476050830889
2.0791788856304985
2.304007820136853
2.4916911045943304
2.641251221896383
2.774193548387097
2.8690127077223853
2.9159335288367547
2.917888563049853
2.8807429130009776
2.814271749755621
2.727272727272727
2.627565982404692
2.520039100684262
2.4086021505376345
2.30791788856305
2.2160312805474094
2.1192570869990224
2.024437927663734
1.9345063538611929
1.8523949169110456
1.7781036168132942
1.7126099706744868
1.6549364613880744
1.6050830889540566
1.5620723362658846
1.5239491691104594
1.4897360703812317
1.4633431085043989
1.444770283479961
1.4330400782013686
1.4281524926686218
1.4330400782013686
1.447702834799609
1.474095796676442
1.509286412512219
1.5503421309872922
1.595307917888563
1.6412512218963833
1.6852394916911049
1.7194525904203324
1.7448680351906158
1.7673509286412512
1.782991202346041
1.790811339198436
1.7898338220918866
1.780058651026393
1.7634408602150538
1.7419354838709675
1.715542521994135
1.6852394916911049
1.6529814271749756
1.6177908113391983
1.5865102639296187
1.5581622678396871
1.5268817204301075
1.4936461388074291
1.4613880742913
1.4291300097751711
1.396871945259042
1.3655913978494625
1.335288367546432
1.3069403714565004
1.2805474095796676
1.2570869990224829
1.2394916911045943
1.224828934506354
1.2082111436950147
1.1925708699902249
1.1788856304985338
1.1671554252199414
1.1583577712609971
1.1515151515151516
1.147605083088954
1.1466275659824048
1.1495601173020529
1.1544477028347997
1.160312805474096
1.1671554252199414
1.1749755620723363
1.1857282502443791
1.1964809384164223
1.209188660801564
1.2218963831867058
1.2326490713587488
1.2434017595307918
1.2551319648093842
1.2668621700879763
1.2766373411534702
1.2864125122189638
1.2961876832844574
1.3040078201368523
1.3088954056695992
1.3118279569892473
1.3147605083088951
1.327468230694037
1.359726295210166
1.4242424242424243
1.530791788856305
1.683284457478006
1.8758553274682308
2.093841642228739
2.2873900293255134
2.4565004887585533
2.6236559139784945
2.7614858260019552
2.854349951124145
2.8993157380254155
2.8993157380254155
2.8611925708699903
2.795698924731183
2.7096774193548385
2.610948191593353
2.504398826979472
2.393939393939394
2.294232649071359
2.203323558162268
2.10752688172043
2.013685239491691
1.9266862170087975
1.8484848484848484
