ppg
1.217008797653959
1.2160312805474096
1.2150537634408602
1.2140762463343109
1.2140762463343109
1.2160312805474096
1.2189638318670577
1.2218963831867058
1.227761485826002
1.2346041055718475
1.2404692082111437
1.2453567937438903
1.2482893450635386
1.2473118279569892
1.24633431085044
1.249266862170088
1.2649071358748778
1.3049853372434017
1.3782991202346042
1.4887585532746823
1.635386119257087
1.812316715542522
2.006842619745845
2.1788856304985336
2.3313782991202348
2.487781036168133
2.63049853372434
2.750733137829912
2.844574780058651
2.9149560117302054
2.9657869012707723
2.99902248289345
3.0146627565982405
3.0195503421309877
3.0175953079178885
3.007820136852395
2.9824046920821115
2.9550342130987293
2.9335288367546437
2.9071358748778104
2.866080156402737
2.825024437927664
2.790811339198436
2.744868035190616
2.6881720430107525
2.621700879765396
2.5464320625610948
2.462365591397849
2.357771260997068
2.241446725317693
2.134897360703812
2.058651026392962
1.9804496578690127
1.884652981427175
1.8064516129032255
1.75366568914956
1.7067448680351909
1.6549364613880744
1.6158357771260996
1.58455522971652
1.5610948191593352
1.541544477028348
1.521016617790811
1.500488758553275
1.4809384164222874
1.4604105571847508
1.4408602150537635
1.4203323558162269
1.3998044965786902
1.3782991202346042
1.3548387096774193
1.3313782991202343
1.313782991202346
1.2981427174975562
1.278592375366569
1.2590420332355816
1.238514173998045
1.2189638318670577
1.2003910068426198
1.181818181818182
1.164222873900293
1.147605083088954
1.1329423264907137
1.1202346041055715
1.1094819159335287
1.1036168132942326
1.099706744868035
1.093841642228739
1.0869990224828934
1.0801564027370478
1.0742913000977516
1.0694037145650048
1.064516129032258
1.0606060606060606
1.056695992179863
1.0547409579667644
1.0557184750733135
1.0586510263929618
1.06158357771261
1.06158357771261
1.056695992179863
1.0488758553274682
1.0410557184750733
1.0391006842619743
1.050830889540567
1.088954056695992
1.1622678396871946
1.2756598240469208
1.426197458455523
1.5796676441837731
1.7390029325513197
1.9257086999022484
2.117302052785924
2.2961876832844577
2.4516129032258065
2.579667644183773
2.679374389051808
2.755620723362659
2.811339198435973
2.850439882697948
2.874877810361681
2.887585532746823
2.887585532746823
2.878787878787879
2.8670576735092865
2.8514173998044967
2.83088954056696
2.8054740957966766
2.7751710654936463
2.739980449657869
2.699902248289345
2.653958944281525
2.601173020527859
2.541544477028348
2.4809384164222874
2.4164222873900294
2.3391984359726297
2.2521994134897363
2.158357771260997
2.060606060606061
1.9608993157380252
1.8631476050830889
1.7712609970674489
1.6881720430107527
1.6148582600195502
1.5513196480938416
1.499511241446725
1.4623655913978495
1.434017595307918
1.4213098729227762
1.4203323558162269
1.414467253176931
1.4076246334310851
1.3998044965786902
1.3919843597262953
1.383186705767351
1.3734115347018572
1.364613880742913
1.3558162267839686
1.3499511241446724
1.3470185728250244
1.343108504398827
1.3372434017595307
1.3313782991202343
1.3255131964809383
1.3186705767350928
1.310850439882698
1.303030303030303
1.2961876832844574
1.2913000977517106
1.2854349951124144
1.2805474095796676
1.278592375366569
1.2776148582600195
1.2756598240469208
1.2727272727272727
1.270772238514174
1.2697947214076246
1.2697947214076246
1.2697947214076246
1.2697947214076246
1.2697947214076246
1.2717497556207231
1.273704789833822
1.2776148582600195
1.2825024437927663
1.2864125122189638
1.289345063538612
1.29227761485826
1.295210166177908
1.2971652003910068
1.2971652003910068
1.2942326490713587
1.2932551319648091
1.2981427174975562
1.3176930596285434
1.3626588465298142
1.423264907135875
1.5083088954056696
1.6363636363636365
1.7986314760508308
1.9824046920821117
2.1730205278592374
2.357771260997068
2.5249266862170088
2.667644183773216
2.782991202346041
2.8699902248289346
2.9335288367546437
2.9696969696969697
2.986314760508309
2.995112414467253
2.9960899315738025
2.989247311827957
2.9765395894428157
2.9579667644183774
2.9335288367546437
2.906158357771261
2.875855327468231
2.841642228739003
2.8025415444770285
2.7565982404692084
2.70772238514174
2.6529814271749754
2.587487781036168
2.512218963831867
2.429130009775171
2.340175953079179
2.24633431085044
2.150537634408602
2.056695992179863
1.9667644183773216
1.884652981427175
1.8113391984359728
1.7526881720430108
1.7067448680351909
1.6637341153470186
1.6265884652981428
1.5933528836754642
1.564027370478983
1.5366568914956011
1.5112414467253177
1.4858260019550342
1.4623655913978495
1.4389051808406648
1.4164222873900294
1.3949169110459434
1.3773216031280548
1.3616813294232648
1.3450635386119256
1.3255131964809383
1.303030303030303
1.2805474095796676
1.2590420332355816
1.2375366568914956
1.217008797653959
1.1974584555229717
1.1808406647116323
1.166177908113392
1.155425219941349
1.147605083088954
1.1368523949169111
1.1251221896383188
1.1124144672531768
1.1006842619745845
1.0909090909090908
1.083088954056696
1.0762463343108504
1.0694037145650048
1.0635386119257086
1.056695992179863
1.0498533724340176
1.0469208211143697
1.0469208211143697
1.0439882697947214
1.0410557184750733
1.040078201368524
1.0391006842619743
1.0371456500488758
1.0332355816226784
1.0273704789833822
1.0205278592375366
1.0156402737047898
1.0175953079178883
1.032258064516129
1.0654936461388074
1.1290322580645162
1.2287390029325511
1.3655913978494625
1.533724340175953
1.7223851417399805
1.9178885630498532
2.1055718475073317
2.2766373411534704
2.4252199413489737
2.5454545454545454
2.6402737047898337
2.7038123167155423
2.7438905180840663
2.774193548387097
2.795698924731183
2.8084066471163247
2.8132942326490715
2.811339198435973
2.8044965786901277
2.793743890518084
2.7781036168132944
2.7565982404692084
2.730205278592375
2.7008797653958942
2.667644183773216
2.6285434995112413
2.5835777126099706
2.5317693059628543
2.472140762463343
2.403714565004888
2.326490713587488
2.241446725317693
2.150537634408602
2.056695992179863
1.9608993157380252
1.878787878787879
1.8054740957966764
1.729227761485826
1.6578690127077225
1.5943304007820136
1.5405669599217986
1.4965786901270772
1.4613880742913
1.4349951124144673
1.414467253176931
1.3988269794721409
1.3861192570869991
1.3743890518084063
1.3665689149560116
1.3607038123167154
1.35386119257087
1.346041055718475
1.3372434017595307
1.327468230694037
1.3176930596285434
1.3069403714565004
1.295210166177908
1.2854349951124144
1.2776148582600195
1.270772238514174
1.267839687194526
1.2688172043010753
1.2688172043010753
1.267839687194526
1.2668621700879763
1.2658846529814272
1.2639296187683284
1.2609970674486803
1.260019550342131
1.2590420332355816
1.2590420332355816
1.2590420332355816
1.2590420332355816
1.2609970674486803
1.2639296187683284
1.2668621700879763
1.2697947214076246
1.2727272727272727
1.2756598240469208
1.278592375366569
1.281524926686217
1.284457478005865
1.2864125122189638
1.2864125122189638
1.284457478005865
1.2825024437927663
1.281524926686217
1.2825024437927663
1.2913000977517106
1.316715542521994
1.3695014662756595
1.456500488758553
1.5786901270772238
1.7341153470185728
1.9130009775171064
2.102639296187683
2.2883675464320627
2.4594330400782014
2.591397849462365
2.6911045943304006
2.7810361681329425
2.852394916911046
2.905180840664712
2.940371456500489
2.960899315738025
2.9696969696969697
2.9696969696969697
2.961876832844575
2.949169110459433
2.932551319648094
2.909090909090909
2.8826979472140764
2.854349951124145
2.8211143695014664
2.782013685239492
2.73802541544477
2.686217008797654
2.627565982404692
2.560117302052786
2.4819159335288368
2.393939393939394
2.302052785923754
2.209188660801564
2.1270772238514173
2.0518084066471163
1.9745845552297163
1.900293255131965
1.8328445747800584
1.7741935483870968
1.7243401759530792
1.6813294232649072
1.6441837732160314
1.6129032258064515
1.5865102639296187
1.563049853372434
1.543499511241447
1.5268817204301075
1.509286412512219
1.490713587487781
1.4711632453567938
1.4506353861192571
1.4291300097751711
1.4076246334310851
1.3861192570869991
1.3655913978494625
1.3450635386119256
1.324535679374389
1.3040078201368523
1.2864125122189638
1.270772238514174
1.2531769305962854
1.2346041055718475
1.217008797653959
1.1994134897360704
1.1837732160312806
1.1691104594330402
1.1564027370478984
1.1456500488758554
1.1348973607038124
1.1251221896383188
1.1202346041055715
1.1163245356793745
1.110459433040078
1.104594330400782
1.0987292277614855
1.0948191593352885
1.0928641251221896
1.0918866080156402
1.0909090909090908
1.0909090909090908
1.0899315738025417
1.0869990224828934
1.0821114369501466
1.0791788856304985
1.078201368523949
1.078201368523949
1.0899315738025417
1.121212121212121
1.1827956989247312
1.281524926686217
1.4164222873900294
1.5826001955034212
1.7673509286412512
1.9579667644183771
2.139784946236559
2.2854349951124147
2.401759530791789
2.5112414467253177
2.603128054740958
2.675464320625611
2.7282502443792764
2.764418377321604
2.787878787878788
2.7996089931573804
2.80058651026393
2.7947214076246336
2.782991202346041
2.766373411534702
2.7438905180840663
2.718475073313783
2.6911045943304006
2.659824046920821
2.624633431085044
2.58455522971652
2.5405669599217986
2.4916911045943304
2.4359726295210167
2.3714565004887587
2.2991202346041058
2.219941348973607
2.1436950146627565
2.067448680351906
1.9804496578690127
1.889540566959922
1.8005865102639296
1.7174975562072337
1.6412512218963833
1.5747800586510263
1.520039100684262
1.4760508308895406
1.439882697947214
1.4105571847507332
1.3851417399804498
1.3655913978494625
1.3509286412512218
1.3343108504398826
1.3157380254154447
1.2971652003910068
1.2795698924731185
1.2619745845552297
1.2453567937438903
1.2287390029325511
1.2121212121212122
1.1964809384164223
1.1808406647116323
1.1700879765395895
1.1622678396871946
1.1515151515151516
1.1407624633431086
1.130987292277615
1.1221896383186705
1.1133919843597262
1.104594330400782
1.096774193548387
1.0909090909090908
1.0879765395894427
1.086021505376344
1.0869990224828934
1.0899315738025417
1.0928641251221896
1.0957966764418376
1.099706744868035
1.104594330400782
1.1114369501466277
1.1202346041055715
1.130987292277615
1.142717497556207
1.1534701857282503
1.1622678396871946
1.1681329423264908
1.1730205278592376
1.1749755620723363
1.1749755620723363
1.1798631476050832
1.198435972629521
1.2394916911045943
1.310850439882698
1.4173998044965788
1.5571847507331378
1.7243401759530792
1.90811339198436
2.093841642228739
2.249266862170088
2.380254154447703
2.5083088954056696
2.619745845552297
2.7096774193548385
2.776148582600196
2.823069403714565
2.8533724340175954
2.8690127077223853
2.873900293255132
2.870967741935484
2.863147605083089
2.852394916911046
2.8367546432062563
2.817204301075269
2.795698924731183
2.771260997067449
2.742913000977517
2.708699902248289
2.6695992179863146
2.622678396871945
2.567937438905181
2.505376344086021
2.4349951124144678
2.357771260997068
2.2844574780058653
2.2130987292277613
2.134897360703812
2.053763440860215
1.9745845552297163
1.900293255131965
1.833822091886608
1.7761485826001957
1.7272727272727273
1.6871945259042034
1.6549364613880744
1.629521016617791
1.608993157380254
1.5933528836754642
1.5786901270772238
1.5610948191593352
1.541544477028348
1.521994134897361
1.5024437927663734
1.482893450635386
1.4633431085043989
1.4428152492668622
1.4213098729227762
1.3998044965786902
1.3773216031280548
1.359726295210166
1.3440860215053765
1.3255131964809383
1.305962854349951
1.2854349951124144
1.2668621700879763
1.2473118279569892
1.2287390029325511
1.2101661779081134
1.1915933528836755
1.1759530791788857
1.1612903225806452
1.1466275659824048
1.1368523949169111
1.1290322580645162
1.1192570869990224
1.110459433040078
1.1026392961876832
1.096774193548387
1.093841642228739
1.0918866080156402
1.0899315738025417
1.0850439882697946
1.078201368523949
1.0694037145650048
1.064516129032258
1.064516129032258
1.0742913000977516
1.1055718475073313
1.1681329423264908
1.2668621700879763
1.401759530791789
1.5669599217986314
1.750733137829912
1.9393939393939397
2.120234604105572
2.283479960899316
2.4222873900293256
2.5219941348973607
2.592375366568915
2.652003910068426
2.697947214076246
2.730205278592375
2.750733137829912
2.760508308895406
2.760508308895406
2.752688172043011
2.739980449657869
2.721407624633431
2.699902248289345
2.673509286412512
2.644183773216031
2.611925708699902
2.5962854349951123
2.58455522971652
2.550342130987292
2.4995112414467253
2.4349951124144678
2.3597262952101663
2.2737047898338223
2.1808406647116323
2.083088954056696
1.981427174975562
1.8914956011730208
1.8103616813294232
1.7253176930596286
1.6441837732160314
1.5698924731182795
1.5063538611925709
1.4535679374389052
1.4105571847507332
1.3763440860215057
1.3479960899315735
1.3235581622678396
1.300097751710655
1.2825024437927663
1.267839687194526
1.2502443792766371
1.23069403714565
1.2101661779081134
1.1896383186705768
1.1681329423264908
1.147605083088954
1.1280547409579669
1.1085043988269794
1.0899315738025417
1.0703812316715542
1.0518084066471165
1.040078201368524
1.0303030303030305
1.0166177908113392
1.0009775171065494
0.9843597262952102
0.967741935483871
0.9521016617790812
0.9364613880742912
0.9227761485826002
0.9110459433040078
0.9012707722385142
0.8934506353861192
0.8914956011730205
0.8924731182795699
0.8934506353861192
0.895405669599218
0.8973607038123167
0.9002932551319648
0.9032258064516128
0.9042033235581622
0.9032258064516128
0.9022482893450636
0.9051808406647116
0.9188660801564028
0.9550342130987292
1.0097751710654936
1.0899315738025417
1.2130987292277615
1.3763440860215057
1.56891495601173
1.7781036168132942
1.988269794721408
2.187683284457478
2.364613880742913
2.5131964809384164
2.631476050830889
2.7223851417399803
2.782013685239492
2.8181818181818183
2.8455522971652005
2.8641251221896384
2.873900293255132
2.87683284457478
2.873900293255132
2.865102639296188
2.850439882697948
2.83088954056696
2.807429130009776
2.779081133919844
2.7468230694037143
2.7116324535679373
2.670576735092864
2.6207233626588464
2.5620723362658846
2.4946236559139785
2.419354838709677
2.3362658846529816
2.24633431085044
2.1544477028347995
2.0625610948191597
1.9745845552297163
1.89247311827957
1.826001955034213
1.772238514173998
1.7233626588465298
1.6813294232649072
1.64613880742913
1.6187683284457477
1.5962854349951123
1.5777126099706744
1.5610948191593352
1.544477028347996
1.5278592375366569
1.5112414467253177
1.498533724340176
1.487781036168133
1.4731182795698925
1.455522971652004
1.435972629521017
1.4173998044965788
1.3998044965786902
1.3841642228739004
1.370478983382209
1.3558162267839686
1.3411534701857282
1.327468230694037
1.3128054740957966
1.3020527859237536
1.29227761485826
1.2805474095796676
1.2668621700879763
1.2541544477028348
1.2424242424242424
1.2326490713587488
1.224828934506354
1.2179863147605083
1.2111436950146628
1.2052785923753666
1.1994134897360704
1.1964809384164223
1.1945259042033236
1.1906158357771262
1.18475073313783
1.176930596285435
1.1671554252199414
1.1583577712609971
1.1573802541544478
1.1720430107526882
1.2140762463343109
1.2903225806451613
1.404692082111437
1.555229716520039
1.7067448680351909
1.8621700879765395
2.043010752688172
2.2267839687194524
2.3958944281524928
2.5405669599217986
2.656891495601173
2.7468230694037143
2.8132942326490715
2.8563049853372435
2.8807429130009776
2.8905180840664717
2.8856304985337244
2.870967741935484
2.852394916911046
2.8299120234604107
2.8044965786901277
2.776148582600196
2.744868035190616
2.710654936461388
2.6715542521994133
2.6265884652981426
2.573802541544477
2.512218963831867
2.4408602150537635
2.36950146627566
2.2952101661779083
2.2082111436950145
2.112414467253177
2.013685239491691
1.916911045943304
1.8240469208211143
1.7390029325513197
1.6627565982404693
1.5962854349951123
1.5405669599217986
1.4926686217008798
1.457478005865103
1.4320625610948192
1.4076246334310851
1.3841642228739004
1.3626588465298142
1.3421309872922775
1.321603128054741
1.3010752688172045
1.2805474095796676
1.260019550342131
1.2394916911045943
1.2209188660801564
1.2013685239491692
1.1857282502443791
1.1720430107526882
1.1534701857282503
1.133919843597263
1.1133919843597262
1.0928641251221896
1.072336265884653
1.0527859237536656
1.0342130987292275
1.0156402737047898
0.9980449657869012
0.9824046920821116
0.9736070381231672
0.967741935483871
0.9589442815249268
0.9501466275659824
0.9413489736070382
0.9345063538611924
0.9296187683284456
0.9247311827956988
0.9188660801564028
0.9100684261974584
0.8993157380254154
0.8875855327468231
0.8778103616813294
0.8768328445747801
0.8924731182795699
0.9296187683284456
0.9990224828934506
1.10752688172043
1.2531769305962854
1.4281524926686218
1.6207233626588464
1.8162267839687196
2.0019550342130987
2.166177908113392
2.304007820136853
2.4027370478983383
2.472140762463343
2.5288367546432062
2.5698924731182795
2.5972629521016617
2.6129032258064515
2.6177908113391983
2.6148582600195502
2.606060606060606
2.5943304007820136
2.578690127077224
2.5591397849462365
2.5376344086021505
2.515151515151515
2.489736070381232
2.4604105571847508
2.426197458455523
2.3841642228739004
2.333333333333333
2.271749755620724
2.201368523949169
2.1221896383186705
2.064516129032258
2.016617790811339
1.948191593352884
1.8826979472140764
1.822091886608016
1.7565982404692082
1.696969696969697
1.64613880742913
1.603128054740958
1.56891495601173
1.542521994134897
1.521994134897361
1.5053763440860215
1.4936461388074291
1.4848484848484849
1.4760508308895406
1.4682306940371457
1.4613880742913
1.4516129032258065
1.4389051808406648
1.4252199413489737
1.4115347018572826
1.396871945259042
1.383186705767351
1.3714565004887584
1.3616813294232648
1.35386119257087
1.346041055718475
1.3401759530791788
1.335288367546432
1.3284457478005864
1.3186705767350928
1.3098729227761483
1.3010752688172045
1.29227761485826
1.284457478005865
1.2776148582600195
1.2717497556207231
1.2658846529814272
1.2619745845552297
1.260019550342131
1.2619745845552297
1.2649071358748778
1.2668621700879763
1.267839687194526
1.267839687194526
1.267839687194526
1.2668621700879763
1.2639296187683284
1.2609970674486803
1.260019550342131
1.267839687194526
1.2932551319648091
1.335288367546432
1.401759530791789
1.509286412512219
1.653958944281525
1.827956989247312
2.018572825024438
2.210166177908113
2.391006842619746
2.550342130987292
2.6832844574780057
2.787878787878788
2.865102639296188
2.918866080156403
2.9472140762463344
2.9579667644183774
2.960899315738025
2.9550342130987293
2.940371456500489
2.919843597262952
2.8944281524926687
2.8641251221896384
2.827956989247312
2.787878787878788
2.742913000977517
2.6930596285435
2.6422287390029324
2.5884652981427174
2.5239491691104594
2.4516129032258065
2.3714565004887587
2.2844574780058653
2.190615835777126
2.0957966764418376
2.0009775171065494
1.9120234604105573
1.8299120234604105
1.7546432062561097
1.6959921798631477
1.651026392961877
1.6099706744868034
1.573802541544477
1.543499511241447
1.5190615835777126
1.498533724340176
1.479960899315738
1.4623655913978495
1.444770283479961
1.4252199413489737
1.4056695992179864
1.3851417399804498
1.3695014662756595
1.356793743890518
1.3421309872922775
1.3255131964809383
1.310850439882698
1.3020527859237536
1.303030303030303
1.3186705767350928
1.35386119257087
1.4105571847507332
1.487781036168133
1.5796676441837731
1.6666666666666667
1.747800586510264
1.8318670576735088
1.906158357771261
1.963831867057673
2.002932551319648
2.022482893450636
2.022482893450636
2.004887585532747
1.9726295210166176
1.927663734115347
1.8729227761485825
1.8103616813294232
1.7517106549364614
1.6950146627565983
1.6285434995112416
1.5571847507331378
1.4848484848484849
1.414467253176931
1.348973607038123
1.2913000977517106
1.2434017595307918
1.2052785923753666
1.1788856304985338
1.163245356793744
1.1583577712609971
1.1612903225806452
1.164222873900293
1.1671554252199414
1.1700879765395895
1.1730205278592376
1.1759530791788857
1.1788856304985338
1.1788856304985338
1.1779081133919844
1.1759530791788857
1.1730205278592376
1.1681329423264908
1.166177908113392
1.166177908113392
1.163245356793744
1.1593352883675463
1.1544477028347997
1.1505376344086022
1.1456500488758554
1.1397849462365592
1.133919843597263
1.1280547409579669
1.1231671554252198
1.1202346041055715
1.121212121212121
1.1251221896383188
1.1270772238514175
1.1280547409579669
1.1280547409579669
1.1280547409579669
1.1290322580645162
1.1319648093841643
1.1358748778103618
1.142717497556207
1.1515151515151516
1.1612903225806452
1.1700879765395895
1.1808406647116323
1.1915933528836755
1.2013685239491692
1.2111436950146628
1.2209188660801564
1.23069403714565
1.2394916911045943
1.249266862170088
1.2590420332355816
1.2697947214076246
1.2805474095796676
1.29227761485826
1.3040078201368523
1.3157380254154447
1.3264907135874875
1.3362658846529814
1.343108504398827
1.3479960899315735
1.35386119257087
1.359726295210166
1.3655913978494625
1.3724340175953078
1.3782991202346042
1.383186705767351
1.388074291300098
1.3949169110459434
1.401759530791789
1.4086021505376345
1.414467253176931
1.4193548387096775
1.423264907135875
1.426197458455523
1.4252199413489737
1.4222873900293256
1.4242424242424243
1.439882697947214
1.4819159335288368
1.541544477028348
1.6304985337243405
1.7702834799608993
1.9560117302052784
2.174975562072336
2.410557184750733
2.643206256109482
2.857282502443793
3.0439882697947214
3.198435972629521
3.321603128054741
3.4144672531769307
3.479960899315738
3.515151515151515
3.5288367546432062
3.536656891495601
3.536656891495601
3.5288367546432062
3.512218963831867
3.487781036168133
3.455522971652004
3.4173998044965788
3.3734115347018574
3.324535679374389
3.267839687194526
3.209188660801564
3.146627565982405
3.0733137829912023
2.989247311827957
2.895405669599218
2.792766373411535
2.6852394916911044
2.5747800586510263
2.4652981427174976
2.3597262952101663
2.260997067448681
2.1730205278592374
2.0948191593352883
2.0332355816226784
1.9833822091886608
1.935483870967742
1.83088954056696
1.7008797653958945
1.6226783968719452
1.5708699902248289
1.533724340175953
1.5053763440860215
1.4819159335288368
1.4633431085043989
1.4467253176930597
1.4330400782013686
1.4222873900293256
1.4115347018572826
1.3998044965786902
1.388074291300098
1.3773216031280548
1.3685239491691104
1.3607038123167154
1.3528836754643203
1.3479960899315735
1.3440860215053765
1.3411534701857282
1.3401759530791788
1.3401759530791788
1.3401759530791788
1.3391984359726294
1.3391984359726294
1.3411534701857282
1.3421309872922775
1.3421309872922775
1.3421309872922775
1.3421309872922775
1.3421309872922775
1.3421309872922775
1.3421309872922775
1.343108504398827
1.3450635386119256
1.346041055718475
1.346041055718475
1.346041055718475
1.346041055718475
1.3450635386119256
1.3440860215053765
1.3421309872922775
1.3401759530791788
1.33822091886608
1.3372434017595307
1.3411534701857282
1.3528836754643203
1.3773216031280548
1.4252199413489737
1.501466275659824
1.607038123167155
1.737047898338221
1.8836754643206255
2.037145650048876
2.1847507331378297
2.318670576735093
2.434017595307918
2.5288367546432062
2.5943304007820136
2.6392961876832843
2.677419354838709
2.705767350928641
2.7253176930596283
2.736070381231672
2.739980449657869
2.739980449657869
2.735092864125122
2.7253176930596283
2.7116324535679373
2.6940371456500487
2.6725317693059627
2.64613880742913
2.616813294232649
2.5835777126099706
2.544477028347996
2.5004887585532747
