ppg
1.029325513196481
1.0391006842619743
1.056695992179863
1.0801564027370478
1.1065493646138806
1.1329423264907137
1.1564027370478984
1.1779081133919844
1.1964809384164223
1.209188660801564
1.217008797653959
1.2209188660801564
1.219941348973607
1.2160312805474096
1.2082111436950147
1.1974584555229717
1.1857282502443791
1.1759530791788857
1.1671554252199414
1.1544477028347997
1.1368523949169111
1.1143695014662756
1.0879765395894427
1.0596285434995112
1.0381231671554252
1.035190615835777
1.0654936461388074
1.141739980449658
1.2717497556207231
1.4535679374389052
1.6422287390029326
1.8377321603128052
2.0664711632453567
2.2952101661779083
2.4995112414467253
2.6666666666666665
2.789833822091887
2.8699902248289346
2.911045943304008
2.919843597262952
2.902248289345064
2.8641251221896384
2.8152492668621703
2.757575757575758
2.6881720430107525
2.610948191593353
2.527859237536657
2.4408602150537635
2.350928641251222
2.259042033235582
2.167155425219941
2.075268817204301
1.9833822091886608
1.8914956011730208
1.8005865102639296
1.721407624633431
1.6480938416422288
1.5679374389051808
1.4858260019550342
1.404692082111437
1.327468230694037
1.2561094819159335
1.1935483870967742
1.141739980449658
1.1026392961876832
1.0762463343108504
1.0635386119257086
1.0635386119257086
1.072336265884653
1.088954056695992
1.110459433040078
1.1358748778103618
1.1622678396871946
1.1867057673509287
1.209188660801564
1.2267839687194526
1.2404692082111437
1.2482893450635386
1.2512218963831867
1.2502443792766371
1.2473118279569892
1.2404692082111437
1.2316715542521994
1.2209188660801564
1.2082111436950147
1.1945259042033236
1.1798631476050832
1.1622678396871946
1.1407624633431086
1.115347018572825
1.0879765395894427
1.0654936461388074
1.056695992179863
1.0694037145650048
1.1173020527859236
1.2130987292277615
1.3616813294232648
1.5591397849462365
1.7898338220918866
2.035190615835777
2.272727272727273
2.482893450635386
2.654936461388074
2.782013685239492
2.859237536656892
2.897360703812317
2.9120234604105573
2.902248289345064
2.8729227761485827
2.8260019550342133
2.7653958944281527
2.695014662756598
2.616813294232649
2.532746823069404
2.444770283479961
2.35386119257087
2.260997067448681
2.177908113391984
2.099706744868035
2.0146627565982405
1.9257086999022484
1.835777126099707
1.7468230694037146
1.6578690127077225
1.5698924731182795
1.4838709677419355
1.3998044965786902
1.3206256109481915
1.2473118279569892
1.1896383186705768
1.144672531769306
1.1036168132942326
1.0703812316715542
1.0488758553274682
1.040078201368524
1.0420332355816226
1.053763440860215
1.072336265884653
1.0957966764418376
1.121212121212121
1.1456500488758554
1.1671554252199414
1.1857282502443791
1.2013685239491692
1.2121212121212122
1.2179863147605083
1.219941348973607
1.217008797653959
1.209188660801564
1.198435972629521
1.1857282502443791
1.1720430107526882
1.1573802541544478
1.141739980449658
1.1290322580645162
1.1163245356793745
1.0957966764418376
1.0684261974584557
1.0391006842619743
1.0156402737047898
1.0097751710654936
1.0361681329423265
1.1085043988269794
1.2355816226783969
1.414467253176931
1.6334310850439884
1.8748778103616808
2.0879765395894427
2.271749755620724
2.452590420332356
2.6050830889540566
2.719452590420332
2.793743890518084
2.83088954056696
2.8367546432062563
2.8181818181818183
2.779081133919844
2.724340175953079
2.658846529814272
2.591397849462365
2.5219941348973607
2.443792766373412
2.358748778103617
2.270772238514174
2.1808406647116323
2.089931573802541
1.9980449657869013
1.9071358748778104
1.8172043010752688
1.7272727272727273
1.6383186705767352
1.5503421309872922
1.4750733137829912
1.4076246334310851
1.3343108504398826
1.2619745845552297
1.1945259042033236
1.1358748778103618
1.0879765395894427
1.0527859237536656
1.0312805474095796
1.021505376344086
1.024437927663734
1.0371456500488758
1.056695992179863
1.0791788856304985
1.1055718475073313
1.133919843597263
1.160312805474096
1.1837732160312806
1.2023460410557183
1.217008797653959
1.2267839687194526
1.23069403714565
1.23069403714565
1.2267839687194526
1.2189638318670577
1.2121212121212122
1.2052785923753666
1.1945259042033236
1.181818181818182
1.1671554252199414
1.1495601173020529
1.1270772238514175
1.1006842619745845
1.0733137829912025
1.0527859237536656
1.050830889540567
1.0821114369501466
1.13880742913001
1.2316715542521994
1.3812316715542523
1.5786901270772238
1.8074291300097751
2.046920821114369
2.2766373411534704
2.4780058651026398
2.6402737047898337
2.7595307917888565
2.835777126099707
2.874877810361681
2.881720430107527
2.866080156402737
2.831867057673509
2.782991202346041
2.720430107526881
2.649071358748778
2.5698924731182795
2.4858260019550342
2.3978494623655915
2.30791788856305
2.2170087976539588
2.126099706744868
2.034213098729228
1.9530791788856303
1.87683284457478
1.793743890518084
1.7067448680351909
1.619745845552297
1.5327468230694037
1.4467253176930597
1.3636363636363635
1.2854349951124144
1.2130987292277615
1.1505376344086022
1.0987292277614855
1.0586510263929618
1.035190615835777
1.024437927663734
1.021505376344086
1.0283479960899315
1.0439882697947214
1.064516129032258
1.0899315738025417
1.1163245356793745
1.141739980449658
1.164222873900293
1.1827956989247312
1.1974584555229717
1.2082111436950147
1.2160312805474096
1.2189638318670577
1.217008797653959
1.2111436950146628
1.2013685239491692
1.1896383186705768
1.176930596285435
1.163245356793744
1.1466275659824048
1.1280547409579669
1.1055718475073313
1.0791788856304985
1.056695992179863
1.040078201368524
1.0303030303030305
1.043010752688172
1.093841642228739
1.195503421309873
1.3509286412512218
1.5532746823069403
1.7878787878787878
2.0332355816226784
2.267839687194526
2.474095796676442
2.624633431085044
2.7282502443792764
2.807429130009776
2.855327468230694
2.8719452590420333
2.8611925708699903
2.827956989247312
2.777126099706745
2.7126099706744866
2.638318670576735
2.5562072336265884
2.469208211143695
2.388074291300098
2.310850439882698
2.225806451612903
2.1378299120234603
2.047898338220919
1.9579667644183771
1.869012707722385
1.7810361681329423
1.694037145650049
1.6080156402737047
1.52297165200391
1.439882697947214
1.3607038123167154
1.2961876832844574
1.2424242424242424
1.187683284457478
1.1397849462365592
1.1026392961876832
1.0772238514173995
1.0684261974584557
1.075268817204301
1.0899315738025417
1.1114369501466277
1.13880742913001
1.1700879765395895
1.1994134897360704
1.2258064516129032
1.2502443792766371
1.270772238514174
1.2873900293255132
1.2981427174975562
1.3040078201368523
1.305962854349951
1.3040078201368523
1.2981427174975562
1.2903225806451613
1.2805474095796676
1.2688172043010753
1.2590420332355816
1.2502443792766371
1.2355816226783969
1.2160312805474096
1.1925708699902249
1.166177908113392
1.1456500488758554
1.141739980449658
1.1700879765395895
1.2434017595307918
1.3695014662756595
1.547409579667644
1.7331378299120237
1.9266862170087975
2.1544477028347995
2.3841642228739004
2.592375366568915
2.7624633431085046
2.8885630498533725
2.970674486803519
3.0127077223851417
3.0205278592375366
3.0019550342130987
2.960899315738025
2.9042033235581624
2.8406647116324537
2.7722385141739982
2.6930596285435
2.606060606060606
2.515151515151515
2.4222873900293256
2.3284457478005867
2.2346041055718477
2.1407624633431084
2.047898338220919
1.9550342130987293
1.8621700879765395
1.7810361681329423
1.7067448680351909
1.624633431085044
1.5405669599217986
1.457478005865103
1.3773216031280548
1.3040078201368523
1.238514173998045
1.18475073313783
1.142717497556207
1.1143695014662756
1.0987292277614855
1.0948191593352885
1.1006842619745845
1.1143695014662756
1.133919843597263
1.1564027370478984
1.1808406647116323
1.2043010752688172
1.224828934506354
1.241446725317693
1.2531769305962854
1.260019550342131
1.2619745845552297
1.2590420332355816
1.2561094819159335
1.2512218963831867
1.241446725317693
1.2297165200391007
1.2160312805474096
1.2003910068426198
1.1837732160312806
1.164222873900293
1.1397849462365592
1.1124144672531768
1.083088954056696
1.0586510263929618
1.0498533724340176
1.0625610948191593
1.1065493646138806
1.198435972629521
1.3450635386119256
1.5405669599217986
1.772238514173998
2.018572825024438
2.2580645161290325
2.472140762463343
2.6480938416422286
2.779081133919844
2.866080156402737
2.9100684261974585
2.920821114369501
2.911045943304008
2.8807429130009776
2.833822091886608
2.773216031280548
2.701857282502444
2.621700879765396
2.535679374389052
2.4457478005865103
2.3528836754643208
2.259042033235582
2.164222873900293
2.080156402737048
2.0019550342130987
1.916911045943304
1.828934506353861
1.739980449657869
1.651026392961877
1.563049853372434
1.478005865102639
1.3958944281524928
1.3186705767350928
1.249266862170088
1.1896383186705768
1.1466275659824048
1.1173020527859236
1.0948191593352885
1.0821114369501466
1.0801564027370478
1.088954056695992
1.1055718475073313
1.1270772238514175
1.152492668621701
1.1779081133919844
1.2023460410557183
1.2238514173998043
1.241446725317693
1.2551319648093842
1.2658846529814272
1.270772238514174
1.270772238514174
1.2668621700879763
1.260019550342131
1.2512218963831867
1.2394916911045943
1.2267839687194526
1.2130987292277615
1.1964809384164223
1.176930596285435
1.1593352883675463
1.1407624633431086
1.115347018572825
1.0918866080156402
1.0801564027370478
1.0957966764418376
1.152492668621701
1.2619745845552297
1.4242424242424243
1.6314760508308896
1.868035190615836
2.113391984359726
2.345063538611926
2.5268817204301075
2.662756598240469
2.7781036168132944
2.860215053763441
2.90811339198436
2.924731182795699
2.913978494623656
2.8826979472140764
2.834799608993157
2.773216031280548
2.702834799608993
2.624633431085044
2.549364613880743
2.474095796676442
2.3900293255131966
2.3010752688172045
2.209188660801564
2.1163245356793743
2.022482893450636
1.9296187683284456
1.836754643206256
1.7448680351906158
1.6529814271749756
1.563049853372434
1.4750733137829912
1.401759530791789
1.33822091886608
1.2717497556207231
1.2101661779081134
1.1573802541544478
1.115347018572825
1.086021505376344
1.0694037145650048
1.0654936461388074
1.072336265884653
1.0879765395894427
1.1094819159335287
1.1329423264907137
1.1573802541544478
1.181818181818182
1.203323558162268
1.2218963831867058
1.2365591397849462
1.2453567937438903
1.2502443792766371
1.2502443792766371
1.2473118279569892
1.2404692082111437
1.23069403714565
1.2228739002932552
1.2150537634408602
1.2023460410557183
1.1867057673509287
1.1671554252199414
1.142717497556207
1.1143695014662756
1.086021505376344
1.064516129032258
1.06158357771261
1.0918866080156402
1.1681329423264908
1.2981427174975562
1.4467253176930597
1.6187683284457477
1.8377321603128052
2.0762463343108504
2.30791788856305
2.5131964809384164
2.679374389051808
2.801564027370479
2.8807429130009776
2.921798631476051
2.930596285434995
2.913000977517106
2.878787878787879
2.831867057673509
2.771260997067449
2.699902248289345
2.6207233626588464
2.536656891495601
2.4486803519061584
2.358748778103617
2.267839687194526
2.175953079178885
2.0840664711632453
1.9931573802541545
1.902248289345064
1.8132942326490715
1.726295210166178
1.6392961876832846
1.5532746823069403
1.4701857282502444
1.3890518084066472
1.313782991202346
1.2443792766373412
1.1837732160312806
1.133919843597263
1.0957966764418376
1.0703812316715542
1.0586510263929618
1.0576735092864125
1.0654936461388074
1.0801564027370478
1.099706744868035
1.1231671554252198
1.147605083088954
1.1720430107526882
1.1925708699902249
1.209188660801564
1.2218963831867058
1.2297165200391007
1.2326490713587488
1.2346041055718475
1.2346041055718475
1.2297165200391007
1.2209188660801564
1.2101661779081134
1.1974584555229717
1.1827956989247312
1.1671554252199414
1.1485826001955035
1.126099706744868
1.099706744868035
1.0733137829912025
1.0547409579667644
1.0518084066471165
1.0713587487781036
1.1300097751710656
1.2375366568914956
1.3978494623655917
1.603128054740958
1.8377321603128052
2.081133919843597
2.3118279569892475
2.512218963831867
2.6715542521994133
2.7859237536656893
2.852394916911046
2.881720430107527
2.8885630498533725
2.873900293255132
2.8396871945259043
2.788856304985337
2.7253176930596283
2.6529814271749754
2.5747800586510263
2.490713587487781
2.4027370478983383
2.312805474095797
2.231671554252199
2.155425219941349
2.072336265884653
1.9853372434017595
1.8983382209188664
1.8103616813294232
1.7223851417399805
1.6344086021505375
1.5464320625610948
1.4604105571847508
1.3782991202346042
1.3020527859237536
1.2326490713587488
1.1798631476050832
1.1397849462365592
1.104594330400782
1.078201368523949
1.0635386119257086
1.0596285434995112
1.0654936461388074
1.0791788856304985
1.0987292277614855
1.1221896383186705
1.1466275659824048
1.1700879765395895
1.1896383186705768
1.206256109481916
1.2189638318670577
1.227761485826002
1.23069403714565
1.2297165200391007
1.224828934506354
1.217008797653959
1.206256109481916
1.1935483870967742
1.1788856304985338
1.163245356793744
1.1466275659824048
1.1319648093841643
1.1163245356793745
1.0928641251221896
1.0654936461388074
1.0391006842619743
1.0254154447702837
1.0391006842619743
1.093841642228739
1.2003910068426198
1.3607038123167154
1.565982404692082
1.801564027370479
2.01564027370479
2.206256109481916
2.39980449657869
2.567937438905181
2.697947214076246
2.7869012707722387
2.8367546432062563
2.8533724340175954
2.841642228739003
2.809384164222874
2.7595307917888565
2.697947214076246
2.6265884652981426
2.555229716520039
2.482893450635386
2.401759530791789
2.315738025415445
2.2267839687194524
2.136852394916911
2.04594330400782
1.9550342130987293
1.865102639296188
1.7741935483870968
1.6842619745845553
1.595307917888563
1.5190615835777126
1.4506353861192571
1.3763440860215057
1.3020527859237536
1.2326490713587488
1.1710654936461389
1.1192570869990224
1.0791788856304985
1.0518084066471165
1.0381231671554252
1.0361681329423265
1.0439882697947214
1.0596285434995112
1.0801564027370478
1.1026392961876832
1.1270772238514175
1.1515151515151516
1.1730205278592376
1.1915933528836755
1.2052785923753666
1.2150537634408602
1.219941348973607
1.219941348973607
1.217008797653959
1.2111436950146628
1.2052785923753666
1.1994134897360704
1.1896383186705768
1.1779081133919844
1.163245356793744
1.1466275659824048
1.1251221896383188
1.099706744868035
1.0713587487781036
1.0469208211143697
1.0361681329423265
1.053763440860215
1.1143695014662756
1.2013685239491692
1.3235581622678396
1.504398826979472
1.7253176930596286
1.9657869012707725
2.2023460410557183
2.41544477028348
2.591397849462365
2.724340175953079
2.8132942326490715
2.86217008797654
2.877810361681329
2.8690127077223853
2.8406647116324537
2.7966764418377323
2.739980449657869
2.6725317693059627
2.5972629521016617
2.517106549364614
2.432062561094819
2.3440860215053765
2.254154447702835
2.164222873900293
2.0733137829912023
1.9931573802541545
1.9188660801564028
1.835777126099707
1.7497556207233629
1.66177908113392
1.573802541544477
1.4868035190615836
1.401759530791789
1.321603128054741
1.2482893450635386
1.1827956989247312
1.1280547409579669
1.0850439882697946
1.0586510263929618
1.0449657869012707
1.0391006842619743
1.0420332355816226
1.0547409579667644
1.0742913000977516
1.0977517106549364
1.1221896383186705
1.1466275659824048
1.1681329423264908
1.1867057673509287
1.2003910068426198
1.2111436950146628
1.2179863147605083
1.219941348973607
1.2179863147605083
1.2121212121212122
1.2023460410557183
1.1906158357771262
1.1779081133919844
1.164222873900293
1.1485826001955035
1.130987292277615
1.1094819159335287
1.083088954056696
1.0606060606060606
1.0439882697947214
1.035190615835777
1.0498533724340176
1.1036168132942326
1.2072336265884651
1.3636363636363635
1.5669599217986314
1.801564027370479
2.04594330400782
2.2795698924731185
2.484848484848485
2.634408602150537
2.7370478983382207
2.81622678396872
2.8641251221896384
2.8826979472140764
2.874877810361681
2.8455522971652005
2.814271749755621
2.777126099706745
2.7155425219941347
2.638318670576735
2.552297165200391
2.4604105571847508
2.375366568914956
2.294232649071359
2.204301075268817
2.1114369501466275
2.0175953079178885
1.9237536656891496
1.8299120234604105
1.7380254154447703
1.64613880742913
1.555229716520039
1.4652981427174976
1.3792766373411536
1.3079178885630498
1.2482893450635386
1.1867057673509287
1.1300097751710656
1.0840664711632453
1.050830889540567
1.0312805474095796
1.0254154447702837
1.0312805474095796
1.0478983382209188
1.0713587487781036
1.0987292277614855
1.1280547409579669
1.155425219941349
1.1788856304985338
1.1994134897360704
1.2160312805474096
1.227761485826002
1.2346041055718475
1.2365591397849462
1.2336265884652982
1.2267839687194526
1.217008797653959
1.206256109481916
1.1935483870967742
1.1827956989247312
1.1730205278592376
1.1583577712609971
1.13880742913001
1.1133919843597262
1.0850439882697946
1.0596285434995112
1.0469208211143697
1.0606060606060606
1.115347018572825
1.2228739002932552
1.3861192570869991
1.598240469208211
1.8084066471163245
2.0146627565982405
2.244379276637341
2.464320625610948
2.652003910068426
2.7976539589442817
2.898338220918866
2.956989247311828
2.979472140762464
2.9716520039100685
2.9393939393939394
2.8885630498533725
2.8289345063538613
2.763440860215054
2.6852394916911044
2.5992179863147604
2.5083088954056696
2.4144672531769307
2.318670576735093
2.2218963831867056
2.126099706744868
2.03128054740958
1.9374389051808407
1.8435972629521016
1.750733137829912
1.6705767350928642
1.5962854349951123
1.5141739980449658
1.4301075268817205
1.348973607038123
1.2727272727272727
1.2043010752688172
1.1456500488758554
1.099706744868035
1.067448680351906
1.0478983382209188
1.0420332355816226
1.0469208211143697
1.0596285434995112
1.0801564027370478
1.104594330400782
1.130987292277615
1.1564027370478984
1.1798631476050832
1.198435972629521
1.2130987292277615
1.2228739002932552
1.227761485826002
1.2287390029325511
1.2258064516129032
1.2238514173998043
1.219941348973607
1.2111436950146628
1.1994134897360704
1.18475073313783
1.1691104594330402
1.1505376344086022
1.1280547409579669
1.1016617790811338
1.072336265884653
1.0449657869012707
1.0303030303030305
1.0342130987292275
1.067448680351906
1.1456500488758554
1.2776148582600195
1.4623655913978495
1.689149560117302
1.9393939393939397
2.189638318670577
2.420332355816227
2.6148582600195502
2.7653958944281527
2.8699902248289346
2.932551319648094
2.956989247311828
2.952101661779081
2.927663734115347
2.884652981427175
2.8260019550342133
2.755620723362659
2.67644183773216
2.589442815249267
2.4975562072336266
2.401759530791789
2.304985337243402
2.207233626588465
2.120234604105572
2.038123167155425
1.948191593352884
1.855327468230694
1.7605083088954057
1.6656891495601174
1.5718475073313782
1.478983382209189
1.3890518084066472
1.3040078201368523
1.2258064516129032
1.1564027370478984
1.1055718475073313
1.0684261974584557
1.0371456500488758
1.0156402737047898
1.0058651026392962
1.007820136852395
1.0205278592375366
1.0410557184750733
1.067448680351906
1.0957966764418376
1.1241446725317692
1.1495601173020529
1.1720430107526882
1.1906158357771262
1.2043010752688172
1.2140762463343109
1.2189638318670577
1.2189638318670577
1.2160312805474096
1.209188660801564
1.1994134897360704
1.1886608015640274
1.176930596285435
1.163245356793744
1.1456500488758554
1.130987292277615
1.1143695014662756
1.0909090909090908
1.0654936461388074
1.0478983382209188
1.050830889540567
1.0899315738025417
1.1788856304985338
1.3225806451612905
1.5180840664711632
1.7526881720430108
2.005865102639296
2.2551319648093844
2.455522971652004
2.6129032258064515
2.7536656891495603
2.8611925708699903
2.929618768328446
2.962854349951124
2.964809384164223
2.941348973607038
2.897360703812317
2.8377321603128056
2.7653958944281527
2.684261974584555
2.6050830889540566
2.525904203323558
2.4379276637341154
2.345063538611926
2.2502443792766376
2.15347018572825
2.0576735092864125
1.9618768328445748
1.8670576735092863
1.772238514173998
1.678396871945259
1.585532746823069
1.4936461388074291
1.41544477028348
1.3470185728250244
1.273704789833822
1.203323558162268
1.1407624633431086
1.088954056695992
1.0498533724340176
1.024437927663734
1.0127077223851415
1.013685239491691
1.0254154447702837
1.0449657869012707
1.0684261974584557
1.0928641251221896
1.1192570869990224
1.144672531769306
1.1671554252199414
1.18475073313783
1.198435972629521
1.206256109481916
1.2101661779081134
1.209188660801564
1.2052785923753666
1.1974584555229717
1.187683284457478
1.1798631476050832
1.1720430107526882
1.160312805474096
1.1456500488758554
1.1270772238514175
1.1026392961876832
1.0742913000977516
1.0469208211143697
1.029325513196481
1.035190615835777
1.0791788856304985
1.1749755620723363
1.2981427174975562
1.452590420332356
1.664711632453568
1.9090909090909087
2.161290322580645
2.396871945259042
2.60019550342131
2.760508308895406
2.874877810361681
2.945259042033236
2.9775171065493646
2.9775171065493646
2.952101661779081
2.9120234604105573
2.859237536656892
2.791788856304985
2.713587487781036
2.6285434995112413
2.5386119257087
2.4457478005865103
2.3519061583577714
2.257086999022483
2.161290322580645
2.0664711632453567
1.9726295210166176
1.8905180840664717
1.8142717497556209
1.7311827956989247
1.6441837732160314
1.555229716520039
1.4672531769305963
1.383186705767351
1.3040078201368523
1.2316715542521994
1.1691104594330402
1.118279569892473
1.0791788856304985
1.0547409579667644
1.0449657869012707
1.04594330400782
1.0557184750733135
1.0733137829912025
1.0957966764418376
1.1221896383186705
1.1495601173020529
1.1749755620723363
1.1974584555229717
1.2150537634408602
1.227761485826002
1.2365591397849462
1.2424242424242424
1.2453567937438903
1.2434017595307918
1.2375366568914956
1.2287390029325511
1.2189638318670577
1.2072336265884651
1.1945259042033236
1.1798631476050832
1.1622678396871946
1.1397849462365592
1.1124144672531768
1.0850439882697946
1.0664711632453567
1.0635386119257086
1.0840664711632453
1.1456500488758554
1.260019550342131
1.4301075268817205
1.64613880742913
1.89247311827957
2.147605083088954
2.389051808406647
2.5972629521016617
2.763440860215054
2.8729227761485827
2.936461388074292
2.9745845552297165
2.9853372434017595
2.970674486803519
2.935483870967742
2.8826979472140764
2.817204301075269
2.740957966764418
2.6578690127077222
2.5698924731182795
2.4789833822091887
2.3851417399804498
2.300097751710655
2.219941348973607
2.1309872922776147
2.0391006842619745
1.945259042033236
1.8504398826979471
1.7556207233626588
1.66177908113392
1.56891495601173
1.478983382209189
1.391006842619746
1.3079178885630498
1.2424242424242424
1.1886608015640274
1.1368523949169111
1.0928641251221896
1.0596285434995112
1.040078201368524
1.0332355816226784
1.0381231671554252
1.0527859237536656
1.0733137829912025
1.0977517106549364
1.1231671554252198
1.1485826001955035
1.1700879765395895
1.1886608015640274
1.203323558162268
1.2130987292277615
1.2189638318670577
1.219941348973607
1.2160312805474096
1.209188660801564
1.1994134897360704
1.187683284457478
1.173998044965787
1.1593352883675463
1.147605083088954
1.1368523949169111
1.1192570869990224
1.096774193548387
1.0694037145650048
1.0420332355816226
1.024437927663734
1.029325513196481
1.072336265884653
1.166177908113392
1.3157380254154447
1.517106549364614
1.7194525904203324
1.9237536656891496
2.156402737047898
2.3841642228739004
2.582600195503421
2.7390029325513194
2.849462365591398
2.9149560117302054
2.941348973607038
2.9374389051808407
2.909090909090909
