ppg
1.4222873900293256
1.3685239491691104
1.3176930596285434
1.278592375366569
1.2473118279569892
1.2140762463343109
1.1808406647116323
1.1505376344086022
1.1231671554252198
1.096774193548387
1.0762463343108504
1.0635386119257086
1.053763440860215
1.0469208211143697
1.0420332355816226
1.040078201368524
1.043010752688172
1.0488758553274682
1.053763440860215
1.0586510263929618
1.064516129032258
1.0918866080156402
1.1300097751710656
1.1544477028347997
1.1720430107526882
1.1867057673509287
1.1974584555229717
1.2043010752688172
1.2130987292277615
1.2238514173998043
1.23069403714565
1.2346041055718475
1.2355816226783969
1.2355816226783969
1.2346041055718475
1.2326490713587488
1.2316715542521994
1.2326490713587488
1.238514173998045
1.2531769305962854
1.281524926686217
1.3206256109481915
1.3724340175953078
1.4457478005865103
1.5405669599217986
1.656891495601173
1.790811339198436
1.9374389051808407
2.089931573802541
2.241446725317693
2.386119257086999
2.5161290322580645
2.627565982404692
2.708699902248289
2.766373411534702
2.8103616813294234
2.835777126099707
2.8426197458455524
2.831867057673509
2.8044965786901277
2.7624633431085046
2.70772238514174
2.643206256109482
2.5718475073313782
2.4946236559139785
2.4134897360703813
2.340175953079179
2.269794721407625
2.1915933528836757
2.1094819159335287
2.026392961876833
1.943304007820137
1.8435972629521016
1.7565982404692082
1.6793743890518085
1.6080156402737047
1.543499511241447
1.482893450635386
1.4486803519061584
1.4173998044965788
1.370478983382209
1.327468230694037
1.29227761485826
1.2609970674486803
1.2355816226783969
1.2130987292277615
1.1964809384164223
1.181818181818182
1.1720430107526882
1.166177908113392
1.166177908113392
1.1720430107526882
1.176930596285435
1.1827956989247312
1.1896383186705768
1.1974584555229717
1.2052785923753666
1.2140762463343109
1.2228739002932552
1.23069403714565
1.238514173998045
1.24633431085044
1.2561094819159335
1.2658846529814272
1.2727272727272727
1.2766373411534702
1.278592375366569
1.278592375366569
1.2776148582600195
1.2746823069403714
1.2727272727272727
1.2697947214076246
1.2639296187683284
1.260019550342131
1.2570869990224829
1.2609970674486803
1.2697947214076246
1.2834799608993157
1.3079178885630498
1.3479960899315735
1.4066471163245358
1.4858260019550342
1.585532746823069
1.7028347996089932
1.8347996089931573
1.975562072336266
2.1192570869990224
2.242424242424242
2.3499511241446727
2.4594330400782014
2.5591397849462365
2.6422287390029324
2.705767350928641
2.7497556207233624
2.7722385141739982
2.7751710654936463
2.760508308895406
2.7311827956989245
2.6881720430107525
2.641251221896383
2.590420332355816
2.527859237536657
2.458455522971652
2.383186705767351
2.304985337243402
2.2248289345063537
2.1436950146627565
2.0625610948191597
1.9824046920821117
1.9042033235581624
1.828934506353861
1.758553274682307
1.7008797653958945
1.6520039100684265
1.6001955034213098
1.5483870967741935
1.499511241446725
1.4545454545454546
1.414467253176931
1.3792766373411536
1.348973607038123
1.3235581622678396
1.3020527859237536
1.2854349951124144
1.2776148582600195
1.2746823069403714
1.270772238514174
1.2688172043010753
1.267839687194526
1.2697947214076246
1.273704789833822
1.278592375366569
1.2864125122189638
1.295210166177908
1.3049853372434017
1.3147605083088951
1.324535679374389
1.3362658846529814
1.3479960899315735
1.3577712609970674
1.3665689149560116
1.3734115347018572
1.3792766373411536
1.383186705767351
1.3861192570869991
1.3870967741935485
1.388074291300098
1.388074291300098
1.3870967741935485
1.388074291300098
1.391006842619746
1.3919843597262953
1.3949169110459434
1.4027370478983383
1.4193548387096775
1.4496578690127078
1.495601173020528
1.5610948191593352
1.6451612903225807
1.7468230694037146
1.8641251221896384
1.992179863147605
2.10850439882698
2.217986314760508
2.3362658846529816
2.453567937438905
2.5610948191593352
2.653958944281525
2.7282502443792764
2.78494623655914
2.822091886608016
2.8396871945259043
2.8396871945259043
2.8240469208211145
2.798631476050831
2.7653958944281527
2.721407624633431
2.667644183773216
2.6050830889540566
2.5376344086021505
2.466275659824047
2.3919843597262958
2.315738025415445
2.239491691104594
2.163245356793744
2.088954056695992
2.0175953079178885
1.9579667644183771
1.905180840664712
1.8484848484848484
1.790811339198436
1.7360703812316716
1.6852394916911049
1.6392961876832846
1.5972629521016617
1.560117302052786
1.5278592375366569
1.500488758553275
1.478005865102639
1.4633431085043989
1.4545454545454546
1.4457478005865103
1.4379276637341154
1.4330400782013686
1.4301075268817205
1.4291300097751711
1.43108504398827
1.435972629521017
1.4418377321603129
1.4496578690127078
1.4594330400782014
1.4682306940371457
1.478983382209189
1.490713587487781
1.499511241446725
1.5073313782991202
1.5141739980449658
1.520039100684262
1.5239491691104594
1.525904203323558
1.5278592375366569
1.5278592375366569
1.5278592375366569
1.5268817204301075
1.5288367546432062
1.5327468230694037
1.5386119257087
1.5503421309872922
1.5708699902248289
1.6050830889540566
1.6559139784946235
1.726295210166178
1.8172043010752688
1.9266862170087975
2.0518084066471163
2.188660801564027
2.3528836754643208
2.512218963831867
2.6510263929618767
2.795698924731183
2.932551319648094
3.053763440860215
3.1544477028347995
3.232649071358749
3.286412512218964
3.3167155425219943
3.32355816226784
3.310850439882698
3.280547409579668
3.239491691104594
3.189638318670577
3.1280547409579667
3.0576735092864125
2.978494623655914
2.89345063538612
2.803519061583578
2.710654936461388
2.6158357771261
2.5210166177908118
2.4281524926686218
2.337243401759531
2.249266862170088
2.175953079178885
2.1094819159335287
2.0391006842619745
1.9696969696969695
1.903225806451613
1.8406647116324533
1.782991202346041
1.7302052785923754
1.6823069403714566
1.640273704789834
1.6041055718475072
1.573802541544477
1.5532746823069403
1.5395894428152492
1.525904203323558
1.5151515151515151
1.5073313782991202
1.5034213098729228
1.5024437927663734
1.504398826979472
1.5083088954056696
1.5141739980449658
1.521016617790811
1.5288367546432062
1.5366568914956011
1.5464320625610948
1.5571847507331378
1.565982404692082
1.5728250244379276
1.5786901270772238
1.5835777126099706
1.585532746823069
1.5865102639296187
1.585532746823069
1.5835777126099706
1.5826001955034212
1.58455522971652
1.5933528836754642
1.6099706744868034
1.6383186705767352
1.683284457478006
1.7487781036168133
1.836754643206256
1.949169110459433
2.0840664711632453
2.2385141739980448
2.407624633431085
2.5855327468230693
2.764418377321604
2.93841642228739
3.0791788856304985
3.1955034213098727
3.3118279569892475
3.4134897360703813
3.495601173020528
3.5542521994134897
3.587487781036168
3.598240469208211
3.5884652981427174
3.5591397849462365
3.5131964809384164
3.452590420332356
3.3870967741935485
3.3167155425219943
3.2355816226783967
3.146627565982405
3.053763440860215
2.956989247311828
2.857282502443793
2.757575757575758
2.6578690127077222
2.560117302052786
2.4652981427174976
2.3734115347018574
2.2952101661779083
2.2267839687194524
2.1544477028347995
2.083088954056696
2.0146627565982405
1.9501466275659824
1.8914956011730208
1.8377321603128052
1.7898338220918866
1.7468230694037146
1.7096774193548387
1.678396871945259
1.6529814271749756
1.6363636363636365
1.6265884652981428
1.6177908113391983
1.6109481915933528
1.6080156402737047
1.6080156402737047
1.6109481915933528
1.6158357771260996
1.6226783968719452
1.6304985337243405
1.6383186705767352
1.6471163245356797
1.6559139784946235
1.6637341153470186
1.6695992179863148
1.6735092864125125
1.675464320625611
1.6764418377321604
1.675464320625611
1.672531769305963
1.6686217008797657
1.6656891495601174
1.6656891495601174
1.672531769305963
1.689149560117302
1.7145650048875856
1.75366568914956
1.8142717497556209
1.900293255131965
2.010752688172043
2.146627565982405
2.304985337243402
2.4809384164222874
2.667644183773216
2.8582600195503423
3.0449657869012707
3.220918866080156
3.3597262952101663
3.4701857282502444
3.575757575757576
3.664711632453568
3.730205278592375
3.771260997067449
3.786901270772239
3.780058651026393
3.7517106549364616
3.704789833822092
3.643206256109482
3.56891495601173
3.4838709677419355
3.398826979472141
3.312805474095797
3.2170087976539588
3.114369501466276
3.0087976539589443
2.9012707722385143
2.793743890518084
2.686217008797654
2.581622678396872
2.4809384164222874
2.3841642228739004
2.29227761485826
2.21505376344086
2.147605083088954
2.0772238514174
2.007820136852395
1.943304007820137
1.8836754643206255
1.8299120234604105
1.7820136852394917
1.739980449657869
1.7038123167155426
1.672531769305963
1.6471163245356797
1.6265884652981428
1.6138807429130009
1.607038123167155
1.6011730205278591
1.5972629521016617
1.595307917888563
1.595307917888563
1.598240469208211
1.603128054740958
1.608993157380254
1.6148582600195502
1.6217008797653958
1.6275659824046922
1.635386119257087
1.6422287390029326
1.6471163245356797
1.651026392961877
1.6520039100684265
1.6520039100684265
1.6500488758553276
1.64613880742913
1.6412512218963833
1.635386119257087
1.632453567937439
1.6344086021505375
1.6451612903225807
1.664711632453568
1.6959921798631477
1.7487781036168133
1.826001955034213
1.9296187683284456
2.060606060606061
2.21505376344086
2.389051808406647
2.5777126099706744
2.7722385141739982
2.9657869012707723
3.150537634408602
3.297165200391007
3.4164222873900294
3.5317693059628543
3.629521016617791
3.7038123167155423
3.750733137829912
3.771260997067449
3.766373411534702
3.739980449657869
3.6930596285434993
3.629521016617791
3.552297165200391
3.463343108504399
3.375366568914956
3.286412512218964
3.185728250244379
3.078201368523949
2.967741935483871
2.855327468230694
2.742913000977517
2.632453567937439
2.5239491691104594
2.419354838709677
2.3196480938416424
2.2248289345063537
2.146627565982405
2.078201368523949
2.005865102639296
1.935483870967742
1.869012707722385
1.8074291300097751
1.6217008797653958
1.3773216031280548
1.238514173998045
1.155425219941349
1.1036168132942326
1.0703812316715542
1.0488758553274682
1.0381231671554252
1.0332355816226784
1.0312805474095796
1.0312805474095796
1.0332355816226784
1.0371456500488758
1.043010752688172
1.050830889540567
1.0596285434995112
1.0684261974584557
1.0762463343108504
1.0840664711632453
1.0918866080156402
1.1006842619745845
1.1065493646138806
1.110459433040078
1.1133919843597262
1.1143695014662756
1.1133919843597262
1.1114369501466277
1.1094819159335287
1.1085043988269794
1.110459433040078
1.118279569892473
1.1358748778103618
1.1622678396871946
1.1994134897360704
1.2570869990224829
1.3372434017595307
1.439882697947214
1.565982404692082
1.7116324535679377
1.870967741935484
2.0391006842619745
2.209188660801564
2.3734115347018574
2.525904203323558
2.644183773216031
2.735092864125122
2.820136852394917
2.889540566959922
2.93841642228739
2.963831867057673
2.967741935483871
2.951124144672532
2.916911045943304
2.8670576735092865
2.803519061583578
2.729227761485826
2.654936461388074
2.578690127077224
2.4916911045943304
2.398826979472141
2.302052785923754
2.204301075268817
2.1055718475073317
2.0087976539589443
1.913978494623656
1.822091886608016
1.7341153470185728
1.6500488758553276
1.5718475073313782
1.5073313782991202
1.4516129032258065
1.393939393939394
1.33822091886608
1.2854349951124144
1.2375366568914956
1.195503421309873
1.1583577712609971
1.1270772238514175
1.1026392961876832
1.083088954056696
1.0694037145650048
1.0625610948191593
1.0606060606060606
1.0606060606060606
1.0625610948191593
1.0664711632453567
1.072336265884653
1.0801564027370478
1.088954056695992
1.0987292277614855
1.1085043988269794
1.118279569892473
1.1270772238514175
1.1348973607038124
1.142717497556207
1.1495601173020529
1.1544477028347997
1.1564027370478984
1.1573802541544478
1.1564027370478984
1.1564027370478984
1.1573802541544478
1.163245356793744
1.176930596285435
1.203323558162268
1.24633431085044
1.2971652003910068
1.3616813294232648
1.4545454545454546
1.5728250244379276
1.715542521994135
1.8758553274682308
2.048875855327468
2.228739002932551
2.406647116324536
2.575757575757576
2.7282502443792764
2.860215053763441
2.9667644183773216
3.037145650048876
3.0791788856304985
3.1065493646138806
3.1163245356793743
3.1055718475073317
3.0762463343108504
3.0303030303030303
2.9687194525904204
2.895405669599218
2.812316715542522
2.721407624633431
2.6236559139784945
2.5317693059628543
2.442815249266862
2.346041055718475
2.2453567937438903
2.142717497556207
2.0410557184750733
1.9413489736070384
1.8435972629521016
1.7497556207233629
1.6598240469208212
1.5757575757575757
1.4965786901270772
1.423264907135875
1.364613880742913
1.3147605083088951
1.2639296187683284
1.2160312805474096
1.173998044965787
1.1368523949169111
1.104594330400782
1.078201368523949
1.056695992179863
1.0410557184750733
1.0303030303030305
1.024437927663734
1.024437927663734
1.0283479960899315
1.0332355816226784
1.040078201368524
1.0488758553274682
1.0586510263929618
1.0694037145650048
1.0801564027370478
1.0909090909090908
1.1006842619745845
1.1085043988269794
1.115347018572825
1.121212121212121
1.1280547409579669
1.133919843597263
1.1378299120234605
1.1397849462365592
1.142717497556207
1.1485826001955035
1.160312805474096
1.1827956989247312
1.2209188660801564
1.2795698924731185
1.3607038123167154
1.4672531769305963
1.5777126099706744
1.696969696969697
1.8484848484848484
2.021505376344086
2.2052785923753664
2.3900293255131966
2.567937438905181
2.7311827956989245
2.873900293255132
2.992179863147605
3.083088954056696
3.144672531769306
3.1788856304985336
3.1847507331378297
3.16911045943304
3.1388074291300097
3.09188660801564
3.03128054740958
2.956989247311828
2.8719452590420333
2.7781036168132944
2.677419354838709
2.5718475073313782
2.464320625610948
2.3548387096774195
2.2561094819159337
2.163245356793744
2.0635386119257086
1.9618768328445748
1.8621700879765395
1.7653958944281525
1.6735092864125125
1.585532746823069
1.5024437927663734
1.4252199413489737
1.3528836754643203
1.2873900293255132
1.2287390029325511
1.1827956989247312
1.1456500488758554
1.1094819159335287
1.075268817204301
1.04594330400782
1.021505376344086
1.0039100684261977
0.9902248289345064
0.981427174975562
0.978494623655914
0.9794721407624634
0.9833822091886608
0.9912023460410556
1.0009775171065494
1.0117302052785924
1.0234604105571847
1.035190615835777
1.0469208211143697
1.0586510263929618
1.0684261974584557
1.078201368523949
1.0869990224828934
1.0948191593352885
1.1006842619745845
1.1036168132942326
1.10752688172043
1.1114369501466277
1.1143695014662756
1.1192570869990224
1.1300097751710656
1.1515151515151516
1.1906158357771262
1.2502443792766371
1.3343108504398826
1.444770283479961
1.5806451612903225
1.739980449657869
1.8670576735092863
1.9745845552297163
2.115347018572825
2.2688172043010755
2.421309872922776
2.5620723362658846
2.6852394916911044
2.7869012707722387
2.8641251221896384
2.9149560117302054
2.941348973607038
2.9442815249266863
2.9266862170087977
2.8944281524926687
2.850439882697948
2.792766373411535
2.7233626588465296
2.6451612903225805
2.5591397849462365
2.4682306940371457
2.3734115347018574
2.2766373411534704
2.177908113391984
2.078201368523949
1.9794721407624636
1.8934506353861196
1.81524926686217
1.732160312805474
1.6480938416422288
1.565982404692082
1.4868035190615836
1.4115347018572826
1.3411534701857282
1.2766373411534702
1.2179863147605083
1.1652003910068427
1.118279569892473
1.083088954056696
1.0557184750733135
1.0273704789833822
1.0019550342130987
0.9804496578690128
0.9638318670576737
0.9521016617790812
0.9442815249266864
0.9413489736070382
0.9413489736070382
0.9452590420332356
0.9511241446725318
0.9579667644183774
0.967741935483871
0.9794721407624634
0.9902248289345064
1.0009775171065494
1.0117302052785924
1.0205278592375366
1.029325513196481
1.0371456500488758
1.043010752688172
1.0478983382209188
1.050830889540567
1.0527859237536656
1.0547409579667644
1.056695992179863
1.056695992179863
1.0576735092864125
1.0625610948191593
1.075268817204301
1.1006842619745845
1.142717497556207
1.2052785923753666
1.2913000977517106
1.4007820136852396
1.5327468230694037
1.6842619745845553
1.8240469208211143
1.9589442815249267
2.113391984359726
2.270772238514174
2.418377321603128
2.550342130987292
2.66177908113392
2.748778103616813
2.8103616813294234
2.84652981427175
2.8582600195503423
2.8484848484848486
2.822091886608016
2.782991202346041
2.730205278592375
2.664711632453568
2.5884652981427174
2.504398826979472
2.4144672531769307
2.320625610948192
2.222873900293255
2.124144672531769
2.0254154447702835
1.9266862170087975
1.8299120234604105
1.7468230694037146
1.6715542521994136
1.5923753665689149
1.5131964809384164
1.4349951124144673
1.359726295210166
1.289345063538612
1.2238514173998043
1.164222873900293
1.1094819159335287
1.0606060606060606
1.0175953079178883
0.9863147605083088
0.9628543499511242
0.9403714565004888
0.919843597262952
0.9032258064516128
0.8914956011730205
0.8836754643206256
0.8807429130009775
0.8817204301075269
0.884652981427175
0.8914956011730205
0.9002932551319648
0.9120234604105572
0.9247311827956988
0.9393939393939394
0.95405669599218
0.967741935483871
0.9804496578690128
0.9921798631476052
1.002932551319648
1.013685239491691
1.021505376344086
1.0283479960899315
1.0332355816226784
1.0371456500488758
1.0420332355816226
1.0478983382209188
1.053763440860215
1.0625610948191593
1.078201368523949
1.1055718475073313
1.1485826001955035
1.2111436950146628
1.2961876832844574
1.4037145650048877
1.5317693059628543
1.678396871945259
1.836754643206256
1.978494623655914
2.10850439882698
2.249266862170088
2.3870967741935485
2.5112414467253177
2.616813294232649
2.699902248289345
2.7595307917888565
2.7947214076246336
2.807429130009776
2.798631476050831
2.7702834799608995
2.730205278592375
2.679374389051808
2.6158357771261
2.5425219941348973
2.4613880742913
2.3743890518084068
2.283479960899316
2.189638318670577
2.093841642228739
1.9980449657869013
1.903225806451613
1.8103616813294232
1.7194525904203324
1.6422287390029326
1.573802541544477
1.501466275659824
1.4291300097751711
1.359726295210166
1.295210166177908
1.2355816226783969
1.1808406647116323
1.1319648093841643
1.088954056695992
1.0518084066471165
1.0205278592375366
1.0
0.9853372434017597
0.9716520039100685
0.9618768328445748
0.9560117302052786
0.95405669599218
0.9560117302052786
0.9608993157380256
0.9687194525904204
0.9794721407624634
0.9921798631476052
1.0058651026392962
1.0195503421309873
1.0342130987292275
1.0488758553274682
1.0625610948191593
1.075268817204301
1.086021505376344
1.0948191593352885
1.1026392961876832
1.10752688172043
1.1114369501466277
1.1143695014662756
1.118279569892473
1.126099706744868
1.13880742913001
1.1583577712609971
1.1925708699902249
1.2443792766373412
1.3176930596285434
1.4134897360703813
1.5327468230694037
1.672531769305963
1.827956989247312
1.994134897360704
2.163245356793744
2.3274682306940373
2.4809384164222874
2.60019550342131
2.6930596285435
2.7810361681329425
2.852394916911046
2.902248289345064
2.930596285434995
2.936461388074292
2.921798631476051
2.8885630498533725
2.8396871945259043
2.777126099706745
2.704789833822092
2.631476050830889
2.5562072336265884
2.4701857282502444
2.378299120234604
2.2825024437927666
2.1837732160312804
2.085043988269794
1.986314760508309
1.889540566959922
1.7947214076246334
1.7038123167155426
1.616813294232649
1.543499511241447
1.478983382209189
1.4115347018572826
1.3450635386119256
1.2825024437927663
1.224828934506354
1.1720430107526882
1.1534701857282503
1.155425219941349
1.141739980449658
1.1241446725317692
1.1065493646138806
1.0918866080156402
1.083088954056696
1.0801564027370478
1.0772238514173995
1.0772238514173995
1.0801564027370478
1.086021505376344
1.0948191593352885
1.104594330400782
1.1163245356793745
1.1280547409579669
1.1407624633431086
1.1534701857282503
1.1652003910068427
1.176930596285435
1.1886608015640274
1.198435972629521
1.206256109481916
1.2121212121212122
1.217008797653959
1.2218963831867058
1.2287390029325511
1.241446725317693
1.262952101661779
1.2981427174975562
1.3509286412512218
1.412512218963832
1.4868035190615836
1.590420332355816
1.718475073313783
1.865102639296188
2.024437927663734
2.189638318670577
2.3528836754643208
2.50733137829912
2.6471163245356792
2.7673509286412514
2.865102639296188
2.929618768328446
2.9687194525904204
2.995112414467253
3.004887585532747
2.9960899315738025
2.9696969696969697
2.9286412512218964
2.873900293255132
2.807429130009776
2.732160312805474
2.650048875855328
2.5620723362658846
2.4701857282502444
2.386119257086999
2.304985337243402
2.2160312805474094
2.12316715542522
2.03128054740958
1.9403714565004888
1.8514173998044965
1.7653958944281525
1.683284457478006
1.606060606060606
1.533724340175953
1.466275659824047
1.4115347018572826
1.3655913978494625
1.3176930596285434
1.2717497556207231
1.23069403714565
1.1945259042033236
1.163245356793744
1.1378299120234605
1.1173020527859236
1.1016617790811338
1.0918866080156402
1.086021505376344
1.0840664711632453
1.0879765395894427
1.0948191593352885
1.1036168132942326
1.1143695014662756
1.1270772238514175
1.1397849462365592
1.152492668621701
1.1652003910068427
1.1779081133919844
1.1896383186705768
1.2003910068426198
1.209188660801564
1.2179863147605083
1.2267839687194526
1.2326490713587488
1.2375366568914956
1.2424242424242424
1.2502443792766371
1.2649071358748778
1.2883675464320623
1.3264907135874875
1.3822091886608017
1.4604105571847508
1.5610948191593352
1.6842619745845553
1.804496578690127
1.9266862170087975
2.0733137829912023
2.23069403714565
2.388074291300098
2.536656891495601
2.6695992179863146
2.782013685239492
2.8719452590420333
2.93841642228739
2.979472140762464
2.9980449657869013
2.995112414467253
2.975562072336266
2.9423264907135875
2.8963831867057674
2.838709677419355
2.771260997067449
2.695014662756598
2.611925708699902
2.52297165200391
2.43108504398827
2.337243401759531
2.241446725317693
2.145650048875855
2.06158357771261
1.9843597262952104
1.9012707722385145
1.8172043010752688
1.7350928641251222
1.656891495601173
1.5826001955034212
1.512218963831867
1.4467253176930597
1.3870967741935485
1.3333333333333333
1.284457478005865
1.2473118279569892
1.2189638318670577
1.1906158357771262
1.164222873900293
1.142717497556207
1.126099706744868
1.115347018572825
1.1085043988269794
1.1065493646138806
1.10752688172043
1.1124144672531768
1.1202346041055715
1.130987292277615
1.142717497556207
1.1564027370478984
1.1700879765395895
1.1837732160312806
1.1974584555229717
1.209188660801564
1.219941348973607
1.2297165200391007
1.2375366568914956
1.2434017595307918
1.2482893450635386
1.252199413489736
1.2570869990224829
1.2649071358748778
1.2776148582600195
1.2991202346041055
1.3343108504398826
1.388074291300098
1.4633431085043989
1.560117302052786
1.6774193548387095
1.812316715542522
1.9618768328445748
2.1192570869990224
2.27761485826002
2.409579667644184
2.5210166177908118
2.635386119257087
2.7390029325513194
2.825024437927664
2.8905180840664717
2.932551319648094
2.952101661779081
2.951124144672532
2.9315738025415445
2.895405669599218
2.844574780058651
2.787878787878788
2.7253176930596283
2.652003910068426
2.5698924731182795
2.482893450635386
2.3919843597262958
2.2981427174975564
2.203323558162268
2.1094819159335287
2.01564027370479
1.9237536656891496
1.8347996089931573
1.7487781036168133
