ppg
1.7018572825024438
1.683284457478006
1.66177908113392
1.6383186705767352
1.6148582600195502
1.5933528836754642
1.5698924731182795
1.543499511241447
1.5151515151515151
1.4868035190615836
1.457478005865103
1.4291300097751711
1.401759530791789
1.375366568914956
1.3499511241446724
1.3255131964809383
1.3049853372434017
1.2873900293255132
1.241446725317693
1.1857282502443791
1.1515151515151516
1.1241446725317692
1.1016617790811338
1.0811339198435972
1.0625610948191593
1.0469208211143697
1.0332355816226784
1.0234604105571847
1.0146627565982405
1.0097751710654936
1.0068426197458455
1.0019550342130987
0.9960899315738024
0.9902248289345064
0.9843597262952102
0.9775171065493646
0.9706744868035192
0.9648093841642228
0.959921798631476
0.9550342130987292
0.9501466275659824
0.9481915933528836
0.9481915933528836
0.946236559139785
0.9423264907135877
0.9374389051808406
0.9315738025415444
0.9247311827956988
0.9178885630498532
0.9120234604105572
0.906158357771261
0.9012707722385142
0.895405669599218
0.8905180840664711
0.8895405669599218
0.8885630498533724
0.884652981427175
0.8797653958944281
0.8748778103616813
0.8709677419354839
0.8680351906158358
0.8729227761485826
0.8914956011730205
0.9090909090909092
0.9325513196480938
0.978494623655914
1.0361681329423265
1.1085043988269794
1.2082111436950147
1.364613880742913
1.5161290322580645
1.66177908113392
1.8054740957966764
1.906158357771261
2.0117302052785924
2.126099706744868
2.231671554252199
2.303030303030303
2.347018572825025
2.3704789833822093
2.3851417399804498
2.3919843597262958
2.3900293255131966
2.380254154447703
2.3704789833822093
2.347018572825025
2.304007820136853
2.257086999022483
2.219941348973607
2.1681329423264906
2.0977517106549364
2.0518084066471163
1.9902248289345064
1.902248289345064
1.823069403714565
1.7663734115347018
1.7086999022482894
1.6392961876832846
1.5933528836754642
1.5532746823069403
1.5083088954056696
1.474095796676442
1.4486803519061584
1.4301075268817205
1.4164222873900294
1.4037145650048877
1.392961876832845
1.3822091886608017
1.3714565004887584
1.3577712609970674
1.3421309872922775
1.324535679374389
1.3049853372434017
1.2825024437927663
1.260019550342131
1.2404692082111437
1.2228739002932552
1.2013685239491692
1.1798631476050832
1.1593352883675463
1.1378299120234605
1.1173020527859236
1.0987292277614855
1.0801564027370478
1.0625610948191593
1.0478983382209188
1.035190615835777
1.0224828934506354
1.013685239491691
1.0058651026392962
0.9951124144672532
0.9824046920821116
0.9696969696969696
0.9560117302052786
0.9403714565004888
0.9257086999022482
0.9120234604105572
0.9002932551319648
0.8905180840664711
0.8826979472140762
0.8787878787878788
0.8768328445747801
0.8729227761485826
0.8680351906158358
0.863147605083089
0.8572825024437928
0.8504398826979472
0.8435972629521017
0.8367546432062561
0.8279569892473119
0.8172043010752689
0.804496578690127
0.7898338220918866
0.7790811339198436
0.7702834799608993
0.7605083088954057
0.7497556207233627
0.7390029325513197
0.7282502443792767
0.7174975562072337
0.7067448680351907
0.6979472140762464
0.6920821114369502
0.6862170087976539
0.6813294232649071
0.6803519061583577
0.6823069403714564
0.6823069403714564
0.6823069403714564
0.6852394916911045
0.6940371456500489
0.7126099706744868
0.7458455522971652
0.7976539589442815
0.8719452590420332
0.9696969696969696
1.088954056695992
1.2072336265884651
1.327468230694037
1.4701857282502444
1.6217008797653958
1.7732160312805474
1.9178885630498532
2.0498533724340176
2.1652003910068425
2.26197458455523
2.3391984359726297
2.396871945259042
2.4359726295210167
2.458455522971652
2.464320625610948
2.458455522971652
2.444770283479961
2.421309872922776
2.388074291300098
2.346041055718475
2.2952101661779083
2.2375366568914954
2.1730205278592374
2.102639296187683
2.0303030303030303
1.9579667644183771
1.895405669599218
1.8377321603128052
1.7781036168132942
1.721407624633431
1.6695992179863148
1.6236559139784943
1.585532746823069
1.555229716520039
1.5317693059628543
1.5141739980449658
1.501466275659824
1.4926686217008798
1.4858260019550342
1.4809384164222874
1.47702834799609
1.4721407624633431
1.466275659824047
1.458455522971652
1.447702834799609
1.4349951124144673
1.4193548387096775
1.401759530791789
1.3822091886608017
1.359726295210166
1.3362658846529814
1.316715542521994
1.2981427174975562
1.2766373411534702
1.2551319648093842
1.2336265884652982
1.2121212121212122
1.1915933528836755
1.1730205278592376
1.1564027370478984
1.1407624633431086
1.1251221896383188
1.1114369501466277
1.0977517106549364
1.0879765395894427
1.0801564027370478
1.0713587487781036
1.0625610948191593
1.0557184750733135
1.0498533724340176
1.0449657869012707
1.0410557184750733
1.0381231671554252
1.035190615835777
1.0332355816226784
1.032258064516129
1.0332355816226784
1.0361681329423265
1.0371456500488758
1.0381231671554252
1.040078201368524
1.0420332355816226
1.0439882697947214
1.0469208211143697
1.0498533724340176
1.0518084066471165
1.0527859237536656
1.053763440860215
1.0547409579667644
1.056695992179863
1.0606060606060606
1.0635386119257086
1.0664711632453567
1.0684261974584557
1.0694037145650048
1.0703812316715542
1.072336265884653
1.1652003910068427
1.303030303030303
1.3724340175953078
1.409579667644184
1.434017595307918
1.455522971652004
1.4838709677419355
1.525904203323558
1.587487781036168
1.6735092864125125
1.782991202346041
1.913978494623656
2.0635386119257086
2.225806451612903
2.3919843597262958
2.555229716520039
2.70772238514174
2.827956989247312
2.9227761485826003
3.013685239491691
3.0928641251221896
3.157380254154448
3.204301075268817
3.236559139784946
3.2551319648093844
3.260997067448681
3.254154447702835
3.236559139784946
3.2082111436950145
3.172043010752688
3.1280547409579667
3.074291300097752
3.0117302052785924
2.941348973607038
2.863147605083089
2.780058651026393
2.695014662756598
2.6099706744868034
2.5268817204301075
2.4486803519061584
2.376344086021505
2.312805474095797
2.260997067448681
2.217986314760508
2.1788856304985336
2.144672531769306
2.1163245356793743
2.0928641251221896
2.074291300097752
2.0576735092864125
2.042033235581622
2.027370478983382
2.0127077223851417
1.997067448680352
1.9824046920821117
1.9687194525904204
1.9530791788856303
1.935483870967742
1.9159335288367547
1.8944281524926687
1.8729227761485825
1.8504398826979471
1.8269794721407624
1.8025415444770283
1.7771260997067448
1.7497556207233629
1.721407624633431
1.696969696969697
1.6735092864125125
1.6471163245356797
1.619745845552297
1.5923753665689149
1.5669599217986314
1.543499511241447
1.521016617790811
1.499511241446725
1.4809384164222874
1.4643206256109482
1.4486803519061584
1.4379276637341154
1.4301075268817205
1.4213098729227762
1.412512218963832
1.4066471163245358
1.4027370478983383
1.3998044965786902
1.396871945259042
1.393939393939394
1.391006842619746
1.3890518084066472
1.3890518084066472
1.393939393939394
1.4027370478983383
1.4164222873900294
1.4320625610948192
1.4496578690127078
1.466275659824047
1.478005865102639
1.482893450635386
1.478005865102639
1.4643206256109482
1.4418377321603129
1.4115347018572826
1.3763440860215057
1.3450635386119256
1.316715542521994
1.2834799608993157
1.249266862170088
1.217008797653959
1.187683284457478
1.1622678396871946
1.1407624633431086
1.1270772238514175
1.1221896383186705
1.1280547409579669
1.1495601173020529
1.1896383186705768
1.241446725317693
1.310850439882698
1.409579667644184
1.5356793743890518
1.686217008797654
1.8543499511241448
2.032258064516129
2.212121212121212
2.3851417399804498
2.5434995112414467
2.6852394916911044
2.8054740957966766
2.8914956011730206
2.95405669599218
3.0097751710654936
3.053763440860215
3.085043988269794
3.104594330400782
3.112414467253177
3.10850439882698
3.0928641251221896
3.0664711632453567
3.0303030303030303
2.983382209188661
2.930596285434995
2.8719452590420333
2.803519061583578
2.7262952101661777
2.6422287390029324
2.555229716520039
2.4682306940371457
2.3841642228739004
2.304007820136853
2.2297165200391005
2.1622678396871944
2.102639296187683
2.0518084066471163
2.0117302052785924
1.9794721407624636
1.9501466275659824
1.9266862170087975
1.9071358748778104
1.8914956011730208
1.878787878787879
1.868035190615836
1.857282502443793
1.8465298142717497
1.833822091886608
1.8201368523949168
1.8064516129032255
1.793743890518084
1.7790811339198436
1.7605083088954057
1.7380254154447703
1.7135874877810362
1.6871945259042034
1.6588465298142718
1.6304985337243405
1.6011730205278591
1.5728250244379276
1.5464320625610948
1.521994134897361
1.5034213098729228
1.487781036168133
1.4701857282502444
1.452590420332356
1.434017595307918
1.4173998044965788
1.4037145650048877
1.391006842619746
1.380254154447703
1.3714565004887584
1.3636363636363635
1.3558162267839686
1.3509286412512218
1.3479960899315735
1.343108504398827
1.33822091886608
1.3343108504398826
1.3313782991202343
1.3294232649071358
1.3284457478005864
1.3284457478005864
1.327468230694037
1.3255131964809383
1.3235581622678396
1.3206256109481915
1.3206256109481915
1.321603128054741
1.3196480938416422
1.316715542521994
1.313782991202346
1.3098729227761483
1.305962854349951
1.3020527859237536
1.2991202346041055
1.2961876832844574
1.2932551319648091
1.29227761485826
1.2942326490713587
1.2981427174975562
1.3010752688172045
1.3020527859237536
1.303030303030303
1.303030303030303
1.3020527859237536
1.3010752688172045
1.3010752688172045
1.303030303030303
1.3118279569892473
1.332355816226784
1.3695014662756595
1.4164222873900294
1.478005865102639
1.5679374389051808
1.6852394916911049
1.825024437927664
1.9824046920821117
2.150537634408602
2.321603128054741
2.487781036168133
2.643206256109482
2.782991202346041
2.903225806451613
2.989247311827957
3.0498533724340176
3.104594330400782
3.146627565982405
3.1739980449657867
3.187683284457478
3.187683284457478
3.175953079178885
3.1524926686217007
3.117302052785924
3.071358748778104
3.0146627565982405
2.949169110459433
2.8836754643206257
2.8152492668621703
2.6823069403714563
2.517106549364614
2.393939393939394
2.294232649071359
2.207233626588465
2.1300097751710654
2.060606060606061
1.9990224828934504
1.945259042033236
1.8993157380254155
1.8641251221896384
1.836754643206256
1.8132942326490715
1.793743890518084
1.7771260997067448
1.7634408602150538
1.750733137829912
1.7390029325513197
1.726295210166178
1.7135874877810362
1.699902248289345
1.6852394916911049
1.6686217008797657
1.6520039100684265
1.6344086021505375
1.6129032258064515
1.587487781036168
1.560117302052786
1.5317693059628543
1.5034213098729228
1.4760508308895406
1.4506353861192571
1.426197458455523
1.4027370478983383
1.380254154447703
1.3626588465298142
1.3479960899315735
1.3313782991202343
1.313782991202346
1.2961876832844574
1.2805474095796676
1.267839687194526
1.2551319648093842
1.2443792766373412
1.2346041055718475
1.224828934506354
1.2160312805474096
1.209188660801564
1.2052785923753666
1.203323558162268
1.2013685239491692
1.1994134897360704
1.198435972629521
1.198435972629521
1.198435972629521
1.1994134897360704
1.2003910068426198
1.2013685239491692
1.203323558162268
1.2052785923753666
1.209188660801564
1.2140762463343109
1.2179863147605083
1.2209188660801564
1.2228739002932552
1.224828934506354
1.227761485826002
1.2297165200391007
1.2316715542521994
1.2326490713587488
1.2326490713587488
1.2326490713587488
1.2336265884652982
1.2365591397849462
1.241446725317693
1.2443792766373412
1.2473118279569892
1.2512218963831867
1.2541544477028348
1.2580645161290325
1.2609970674486803
1.262952101661779
1.2658846529814272
1.267839687194526
1.270772238514174
1.278592375366569
1.2942326490713587
1.321603128054741
1.367546432062561
1.4349951124144673
1.5268817204301075
1.6422287390029326
1.7771260997067448
1.9266862170087975
2.086021505376344
2.24633431085044
2.40078201368524
2.525904203323558
2.627565982404692
2.729227761485826
2.819159335288368
2.89345063538612
2.951124144672532
2.992179863147605
3.0175953079178885
3.029325513196481
3.0283479960899315
3.0175953079178885
2.9960899315738025
2.964809384164223
2.9266862170087977
2.881720430107527
2.827956989247312
2.766373411534702
2.696969696969697
2.622678396871945
2.5454545454545454
2.466275659824047
2.3870967741935485
2.310850439882698
2.2385141739980448
2.1710654936461387
2.115347018572825
2.0684261974584555
2.0254154447702835
1.988269794721408
1.9579667644183771
1.932551319648094
1.9120234604105573
1.895405669599218
1.8797653958944285
1.865102639296188
1.8514173998044965
1.8377321603128052
1.822091886608016
1.8074291300097751
1.7927663734115349
1.775171065493646
1.7556207233626588
1.7341153470185728
1.710654936461388
1.686217008797654
1.6598240469208212
1.6334310850439884
1.607038123167155
1.581622678396872
1.5581622678396871
1.5395894428152492
1.5239491691104594
1.5053763440860215
1.4868035190615836
1.4672531769305963
1.447702834799609
1.4281524926686218
1.409579667644184
1.392961876832845
1.3773216031280548
1.3626588465298142
1.3509286412512218
1.3401759530791788
1.3333333333333333
1.3284457478005864
1.3225806451612905
1.3157380254154447
1.3088954056695992
1.3020527859237536
1.2971652003910068
1.2913000977517106
1.284457478005865
1.2776148582600195
1.2717497556207231
1.2649071358748778
1.2619745845552297
1.2609970674486803
1.2580645161290325
1.2551319648093842
1.252199413489736
1.2502443792766371
1.2482893450635386
1.24633431085044
1.24633431085044
1.2473118279569892
1.2482893450635386
1.2502443792766371
1.2531769305962854
1.2580645161290325
1.262952101661779
1.2658846529814272
1.267839687194526
1.2688172043010753
1.2688172043010753
1.2688172043010753
1.2668621700879763
1.2649071358748778
1.262952101661779
1.2609970674486803
1.2580645161290325
1.2570869990224829
1.2580645161290325
1.2590420332355816
1.2658846529814272
1.2834799608993157
1.3176930596285434
1.3714565004887584
1.447702834799609
1.5454545454545454
1.6656891495601174
1.804496578690127
1.9560117302052784
2.112414467253177
2.24633431085044
2.364613880742913
2.486803519061584
2.603128054740958
2.705767350928641
2.789833822091887
2.8563049853372435
2.905180840664712
2.9374389051808407
2.956989247311828
2.9657869012707723
2.962854349951124
2.9501466275659824
2.9286412512218964
2.900293255131965
2.865102639296188
2.8211143695014664
2.768328445747801
2.7067448680351904
2.6373411534701856
2.5620723362658846
2.4819159335288368
2.39980449657869
2.315738025415445
2.232649071358749
2.160312805474096
2.096774193548387
2.0332355816226784
1.975562072336266
1.9237536656891496
1.8797653958944285
1.842619745845552
1.812316715542522
1.7878787878787878
1.7683284457478006
1.7517106549364614
1.7360703812316716
1.7233626588465298
1.7116324535679377
1.6979472140762464
1.683284457478006
1.667644183773216
1.6490713587487782
1.629521016617791
1.6080156402737047
1.585532746823069
1.5190615835777126
1.4301075268817205
1.3734115347018572
1.3313782991202343
1.3010752688172045
1.2756598240469208
1.249266862170088
1.2228739002932552
1.1964809384164223
1.1710654936461389
1.1485826001955035
1.1280547409579669
1.1085043988269794
1.088954056695992
1.072336265884653
1.0576735092864125
1.0478983382209188
1.0410557184750733
1.0312805474095796
1.0205278592375366
1.010752688172043
1.002932551319648
0.9951124144672532
0.9882697947214076
0.9824046920821116
0.9765395894428152
0.9716520039100685
0.9667644183773216
0.9618768328445748
0.959921798631476
0.9608993157380256
0.9618768328445748
0.9618768328445748
0.9628543499511242
0.9657869012707724
0.967741935483871
0.9687194525904204
0.9687194525904204
0.9687194525904204
0.9687194525904204
0.9667644183773216
0.9657869012707724
0.9657869012707724
0.9638318670576737
0.959921798631476
0.9560117302052786
0.9511241446725318
0.946236559139785
0.9413489736070382
0.93841642228739
0.9364613880742912
0.9364613880742912
0.93841642228739
0.9413489736070382
0.946236559139785
0.9530791788856304
0.9589442815249268
0.9657869012707724
0.975562072336266
0.9931573802541545
1.0234604105571847
1.0703812316715542
1.13880742913001
1.2326490713587488
1.3519061583577712
1.4936461388074291
1.629521016617791
1.7653958944281525
1.9237536656891496
2.090909090909091
2.2561094819159337
2.410557184750733
2.549364613880743
2.6666666666666665
2.7624633431085046
2.8367546432062563
2.8914956011730206
2.927663734115347
2.943304007820137
2.9442815249266863
2.93841642228739
2.924731182795699
2.9012707722385143
2.868035190615836
2.825024437927664
2.773216031280548
2.7116324535679373
2.643206256109482
2.567937438905181
2.4858260019550342
2.398826979472141
2.317693059628544
2.2404692082111435
2.157380254154448
2.0733137829912023
1.992179863147605
1.916911045943304
1.8494623655913975
1.7898338220918866
1.739980449657869
1.699902248289345
1.6686217008797657
1.643206256109482
1.6236559139784943
1.6099706744868034
1.5962854349951123
1.581622678396872
1.5669599217986314
1.5513196480938416
1.5347018572825024
1.5161290322580645
1.495601173020528
1.474095796676442
1.4506353861192571
1.426197458455523
1.3998044965786902
1.3773216031280548
1.356793743890518
1.3343108504398826
1.310850439882698
1.2864125122189638
1.262952101661779
1.2404692082111437
1.2179863147605083
1.1964809384164223
1.173998044965787
1.1515151515151516
1.1290322580645162
1.1114369501466277
1.0977517106549364
1.0821114369501466
1.0664711632453567
1.0527859237536656
1.0391006842619743
1.0273704789833822
1.018572825024438
1.010752688172043
1.0039100684261977
0.9980449657869012
0.9931573802541545
0.989247311827957
0.989247311827957
0.9912023460410556
0.9921798631476052
0.9931573802541545
0.9931573802541545
0.9921798631476052
0.9902248289345064
0.9882697947214076
0.9853372434017597
0.9824046920821116
0.9804496578690128
0.9794721407624634
0.981427174975562
0.9853372434017597
0.9863147605083088
0.9853372434017597
0.9833822091886608
0.9794721407624634
0.975562072336266
0.9716520039100685
0.9687194525904204
0.9648093841642228
0.9618768328445748
0.9608993157380256
0.959921798631476
0.9628543499511242
0.9687194525904204
0.9726295210166178
0.9745845552297164
0.975562072336266
0.9765395894428152
0.9765395894428152
0.9765395894428152
0.978494623655914
0.9863147605083088
1.002932551319648
1.0342130987292275
1.075268817204301
1.130987292277615
1.2160312805474096
1.3294232649071358
1.4682306940371457
1.6265884652981428
1.7986314760508308
1.9765395894428155
2.1515151515151514
2.317693059628544
2.4682306940371457
2.60019550342131
2.710654936461388
2.788856304985337
2.8426197458455524
2.889540566959922
2.9237536656891496
2.9442815249266863
2.952101661779081
2.9472140762463344
2.9315738025415445
2.905180840664712
2.8690127077223853
2.823069403714565
2.768328445747801
2.710654936461388
2.649071358748778
2.576735092864125
2.496578690127077
2.4115347018572826
2.32355816226784
2.233626588465298
2.145650048875855
2.0625610948191597
1.986314760508309
1.9188660801564028
1.86119257086999
1.812316715542522
1.7741935483870968
1.7438905180840665
1.7165200391006843
1.6930596285434996
1.6735092864125125
1.6549364613880744
1.6373411534701858
1.6207233626588464
1.6050830889540566
1.5894428152492668
1.5728250244379276
1.555229716520039
1.5405669599217986
1.525904203323558
1.5073313782991202
1.4868035190615836
1.4643206256109482
1.4408602150537635
1.4173998044965788
1.392961876832845
1.3685239491691104
1.3440860215053765
1.3196480938416422
1.2961876832844574
1.273704789833822
1.2551319648093842
1.2394916911045943
1.2228739002932552
1.2052785923753666
1.1886608015640274
1.173998044965787
1.1612903225806452
1.1515151515151516
1.1436950146627567
1.1378299120234605
1.1319648093841643
1.1270772238514175
1.1241446725317692
1.1231671554252198
1.1202346041055715
1.1319648093841643
1.1505376344086022
1.1593352883675463
1.163245356793744
1.164222873900293
1.164222873900293
1.164222873900293
1.1622678396871946
1.160312805474096
1.1573802541544478
1.1564027370478984
1.1573802541544478
1.1573802541544478
1.1564027370478984
1.1564027370478984
1.1564027370478984
1.1564027370478984
1.1564027370478984
1.1564027370478984
1.1544477028347997
1.152492668621701
1.1505376344086022
1.1515151515151516
1.152492668621701
1.152492668621701
1.152492668621701
1.152492668621701
1.152492668621701
1.152492668621701
1.152492668621701
1.152492668621701
1.152492668621701
1.152492668621701
1.152492668621701
1.155425219941349
1.160312805474096
1.1700879765395895
1.1896383186705768
1.2238514173998043
1.2776148582600195
1.35386119257087
1.455522971652004
1.581622678396872
1.729227761485826
1.89247311827957
2.0635386119257086
2.236559139784946
2.3812316715542523
2.504398826979472
2.63049853372434
2.748778103616813
2.849462365591398
2.9315738025415445
2.994134897360704
3.038123167155425
3.0664711632453567
3.081133919843597
3.083088954056696
3.075268817204301
3.056695992179863
3.0303030303030303
2.997067448680352
2.956011730205278
2.9071358748778104
2.850439882697948
2.78494623655914
2.7126099706744866
2.634408602150537
2.549364613880743
2.4613880742913
2.3734115347018574
2.286412512218964
2.210166177908113
2.1417399804496577
2.074291300097752
2.0117302052785924
1.956989247311828
1.9100684261974583
1.871945259042033
1.8416422287390029
1.818181818181818
1.7996089931573802
1.782991202346041
1.7683284457478006
1.7556207233626588
1.7429130009775171
1.7282502443792769
1.7116324535679377
1.6911045943304008
1.667644183773216
1.6412512218963833
1.611925708699902
1.581622678396872
1.5503421309872922
1.5180840664711632
1.4868035190615836
1.455522971652004
1.4291300097751711
1.404692082111437
1.3782991202346042
1.3499511241446724
1.3206256109481915
1.29227761485826
1.2649071358748778
1.2394916911045943
1.2160312805474096
1.195503421309873
1.1779081133919844
1.1622678396871946
1.1515151515151516
1.1436950146627567
1.1348973607038124
1.126099706744868
1.1173020527859236
1.1094819159335287
1.1016617790811338
1.0948191593352885
1.0869990224828934
1.0791788856304985
1.0713587487781036
1.0654936461388074
1.0606060606060606
1.0586510263929618
1.0596285434995112
1.0596285434995112
1.0586510263929618
1.056695992179863
1.053763440860215
1.050830889540567
1.0478983382209188
1.0449657869012707
1.0410557184750733
1.0381231671554252
1.0371456500488758
1.0391006842619743
1.0410557184750733
1.0410557184750733
1.0410557184750733
1.040078201368524
1.0381231671554252
1.0371456500488758
1.0361681329423265
1.0361681329423265
1.0361681329423265
1.0361681329423265
1.0361681329423265
1.035190615835777
1.0361681329423265
1.0381231671554252
1.0391006842619743
1.0420332355816226
1.0498533724340176
1.067448680351906
1.1016617790811338
1.1573802541544478
1.2375366568914956
1.3440860215053765
1.4750733137829912
1.6275659824046922
1.7712609970674489
1.9100684261974583
2.069403714565005
2.232649071358749
2.389051808406647
2.5317693059628543
2.6559139784946235
2.758553274682307
2.8396871945259043
2.9012707722385143
2.9442815249266863
2.9716520039100685
2.9853372434017595
2.98435972629521
2.972629521016618
2.9550342130987293
2.9286412512218964
2.895405669599218
2.852394916911046
2.7996089931573804
2.7370478983382207
2.664711632453568
2.58455522971652
2.4995112414467253
2.410557184750733
2.329423264907136
2.2521994134897363
2.1710654936461387
2.089931573802541
2.013685239491691
1.9442815249266865
1.884652981427175
1.8328445747800584
1.7898338220918866
1.7546432062561097
1.7253176930596286
1.699902248289345
1.678396871945259
1.66177908113392
1.6471163245356797
1.6314760508308896
1.6138807429130009
1.5962854349951123
1.5796676441837731
1.5620723362658846
1.542521994134897
1.521016617790811
1.498533724340176
1.474095796676442
1.4486803519061584
