ppg
2.8533724340175954
2.792766373411535
2.736070381231672
2.684261974584555
2.631476050830889
2.5777126099706744
2.5249266862170088
2.4760508308895406
2.43108504398827
2.388074291300098
2.347996089931574
2.3098729227761488
2.2737047898338223
2.2385141739980448
2.204301075268817
2.175953079178885
2.150537634408602
2.1221896383186705
2.090909090909091
2.060606060606061
2.0303030303030303
1.9237536656891496
1.782991202346041
1.7018572825024438
1.6490713587487782
1.6109481915933528
1.581622678396872
1.5591397849462365
1.5405669599217986
1.520039100684262
1.499511241446725
1.479960899315738
1.4613880742913
1.4428152492668622
1.4242424242424243
1.4056695992179864
1.3900293255131966
1.3763440860215057
1.3636363636363635
1.3519061583577712
1.343108504398827
1.3343108504398826
1.3225806451612905
1.3088954056695992
1.295210166177908
1.281524926686217
1.270772238514174
1.260019550342131
1.249266862170088
1.238514173998045
1.227761485826002
1.2160312805474096
1.2072336265884651
1.2003910068426198
1.1915933528836755
1.1837732160312806
1.1808406647116323
1.18475073313783
1.1964809384164223
1.217008797653959
1.2482893450635386
1.2913000977517106
1.346041055718475
1.4086021505376345
1.4809384164222874
1.5493646138807429
1.6148582600195502
1.6901270772238517
1.7712609970674489
1.8533724340175952
1.935483870967742
2.013685239491691
2.0869990224828934
2.155425219941349
2.2170087976539588
2.272727272727273
2.320625610948192
2.355816226783969
2.3812316715542523
2.4056695992179864
2.426197458455523
2.441837732160313
2.453567937438905
2.4613880742913
2.464320625610948
2.462365591397849
2.455522971652004
2.443792766373412
2.4281524926686218
2.4086021505376345
2.386119257086999
2.3597262952101663
2.329423264907136
2.2952101661779083
2.260019550342131
2.222873900293255
2.1837732160312804
2.1436950146627565
2.104594330400782
2.0664711632453567
2.029325513196481
1.994134897360704
1.964809384164223
1.9403714565004888
1.9149560117302051
1.889540566959922
1.8641251221896384
1.8416422287390029
1.8201368523949168
1.7976539589442817
1.7761485826001957
1.75366568914956
1.7331378299120237
1.7135874877810362
1.694037145650049
1.6774193548387095
1.66177908113392
1.643206256109482
1.6217008797653958
1.6011730205278591
1.581622678396872
1.5620723362658846
1.542521994134897
1.52297165200391
1.5024437927663734
1.4838709677419355
1.4652981427174976
1.4506353861192571
1.436950146627566
1.4213098729227762
1.4037145650048877
1.3870967741935485
1.3714565004887584
1.3558162267839686
1.3411534701857282
1.3264907135874875
1.313782991202346
1.3020527859237536
1.2903225806451613
1.278592375366569
1.2688172043010753
1.2609970674486803
1.252199413489736
1.241446725317693
1.23069403714565
1.219941348973607
1.209188660801564
1.198435972629521
1.1867057673509287
1.1759530791788857
1.1652003910068427
1.1544477028347997
1.1495601173020529
1.147605083088954
1.1466275659824048
1.1505376344086022
1.160312805474096
1.1798631476050832
1.209188660801564
1.2482893450635386
1.2961876832844574
1.35386119257087
1.4203323558162269
1.4936461388074291
1.5728250244379276
1.6451612903225807
1.7145650048875856
1.7917888563049853
1.869012707722385
1.9442815249266865
2.013685239491691
2.0772238514174
2.133919843597263
2.1847507331378297
2.2297165200391005
2.267839687194526
2.2991202346041058
2.320625610948192
2.335288367546432
2.347996089931574
2.356793743890518
2.3597262952101663
2.357771260997068
2.3489736070381237
2.334310850439883
2.315738025415445
2.294232649071359
2.2668621700879767
2.2346041055718477
2.198435972629521
2.163245356793744
2.126099706744868
2.0840664711632453
2.0410557184750733
1.9980449657869013
1.956989247311828
1.9159335288367547
1.8758553274682308
1.836754643206256
1.8005865102639296
1.7663734115347018
1.7341153470185728
1.7086999022482894
1.686217008797654
1.66177908113392
1.635386119257087
1.6099706744868034
1.5865102639296187
1.563049853372434
1.5405669599217986
1.5180840664711632
1.495601173020528
1.4731182795698925
1.4496578690127078
1.4252199413489737
1.404692082111437
1.3870967741935485
1.367546432062561
1.3470185728250244
1.3255131964809383
1.303030303030303
1.281524926686217
1.2619745845552297
1.2424242424242424
1.2209188660801564
1.198435972629521
1.1759530791788857
1.1593352883675463
1.1466275659824048
1.1329423264907137
1.118279569892473
1.1026392961876832
1.086021505376344
1.0703812316715542
1.0557184750733135
1.0420332355816226
1.0283479960899315
1.0146627565982405
1.002932551319648
0.9960899315738024
0.9902248289345064
0.981427174975562
0.9706744868035192
0.9579667644183774
0.9433040078201368
0.9296187683284456
0.916911045943304
0.9051808406647116
0.895405669599218
0.8875855327468231
0.8826979472140762
0.8826979472140762
0.8895405669599218
0.9022482893450636
0.919843597262952
0.9452590420332356
0.9794721407624634
1.024437927663734
1.0791788856304985
1.142717497556207
1.2140762463343109
1.2903225806451613
1.3695014662756595
1.452590420332356
1.5278592375366569
1.5962854349951123
1.667644183773216
1.739980449657869
1.8093841642228736
1.871945259042033
1.927663734115347
1.9765395894428155
2.0175953079178885
2.050830889540567
2.075268817204301
2.09188660801564
2.1006842619745845
2.2130987292277613
2.3734115347018574
2.444770283479961
2.4701857282502444
2.4711632453567938
2.4594330400782014
2.436950146627566
2.404692082111437
2.366568914956012
2.3255131964809386
2.280547409579668
2.233626588465298
2.1925708699902247
2.155425219941349
2.1163245356793743
2.0762463343108504
2.037145650048876
2.0019550342130987
1.967741935483871
1.935483870967742
1.90811339198436
1.884652981427175
1.8641251221896384
1.844574780058651
1.8240469208211143
1.8064516129032255
1.7917888563049853
1.7771260997067448
1.7624633431085044
1.747800586510264
1.7341153470185728
1.7204301075268815
1.7057673509286413
1.6920821114369502
1.678396871945259
1.6627565982404693
1.64613880742913
1.6334310850439884
1.6217008797653958
1.607038123167155
1.5923753665689149
1.5777126099706744
1.563049853372434
1.5483870967741935
1.5347018572825024
1.5239491691104594
1.512218963831867
1.499511241446725
1.4887585532746823
1.478983382209189
1.4711632453567938
1.4672531769305963
1.4604105571847508
1.4516129032258065
1.4428152492668622
1.4349951124144673
1.4281524926686218
1.4213098729227762
1.414467253176931
1.4076246334310851
1.4007820136852396
1.393939393939394
1.3900293255131966
1.388074291300098
1.3841642228739004
1.3792766373411536
1.3743890518084063
1.370478983382209
1.3655913978494625
1.3626588465298142
1.3626588465298142
1.3724340175953078
1.393939393939394
1.426197458455523
1.4731182795698925
1.525904203323558
1.585532746823069
1.66177908113392
1.7526881720430108
1.8543499511241448
1.964809384164223
2.081133919843597
2.201368523949169
2.318670576735093
2.43108504398827
2.539589442815249
2.6422287390029324
2.7253176930596283
2.795698924731183
2.870967741935484
2.943304007820137
3.0087976539589443
3.065493646138808
3.115347018572825
3.155425219941349
3.185728250244379
3.209188660801564
3.2267839687194524
3.2375366568914954
3.241446725317693
3.236559139784946
3.2248289345063537
3.2111436950146626
3.1925708699902247
3.1681329423264906
3.139784946236559
3.10752688172043
3.0733137829912023
3.037145650048876
2.99902248289345
2.9589442815249267
2.917888563049853
2.878787878787879
2.8406647116324537
2.8025415444770285
2.764418377321604
2.727272727272727
2.6901270772238512
2.653958944281525
2.618768328445748
2.5865102639296187
2.558162267839687
2.530791788856305
2.505376344086021
2.482893450635386
2.464320625610948
2.44672531769306
2.4281524926686218
2.4086021505376345
2.3870967741935485
2.3655913978494625
2.345063538611926
2.3255131964809386
2.3059628543499517
2.2844574780058653
2.264907135874878
2.2453567937438903
2.2267839687194524
2.209188660801564
2.190615835777126
2.172043010752688
2.15347018572825
2.133919843597263
2.113391984359726
2.093841642228739
2.0762463343108504
2.060606060606061
2.04594330400782
2.032258064516129
2.0175953079178885
2.005865102639296
1.9951124144672527
1.9833822091886608
1.967741935483871
1.951124144672532
1.935483870967742
1.921798631476051
1.9100684261974583
1.900293255131965
1.889540566959922
1.87683284457478
1.8641251221896384
1.8543499511241448
1.8455522971652003
1.8347996089931573
1.825024437927664
1.81524926686217
1.8054740957966764
1.7996089931573802
1.801564027370479
1.8132942326490715
1.835777126099707
1.871945259042033
1.9227761485826005
1.988269794721408
2.0557184750733137
2.1280547409579667
2.217986314760508
2.320625610948192
2.4330400782013686
2.549364613880743
2.664711632453568
2.7751710654936463
2.8807429130009776
2.98435972629521
3.081133919843597
3.1700879765395893
3.239491691104594
3.2952101661779083
3.3548387096774195
3.412512218963832
3.463343108504399
3.505376344086021
3.541544477028348
3.5718475073313782
3.5943304007820136
3.608993157380254
3.616813294232649
3.618768328445748
3.6099706744868034
3.5943304007820136
3.576735092864125
3.557184750733138
3.532746823069404
3.504398826979472
3.469208211143695
3.4271749755620724
3.380254154447703
3.3304007820136854
3.2766373411534704
3.218963831867057
3.1593352883675463
3.101661779081134
3.04594330400782
2.988269794721408
2.9335288367546437
2.8797653958944283
2.8289345063538613
2.780058651026393
2.732160312805474
2.686217008797654
2.6422287390029324
2.5992179863147604
2.557184750733138
2.520039100684262
2.4858260019550342
2.450635386119257
2.4144672531769307
2.378299120234604
2.3440860215053765
2.310850439882698
2.27761485826002
2.244379276637341
2.2130987292277613
2.182795698924731
2.150537634408602
2.118279569892473
2.089931573802541
2.0625610948191597
2.0332355816226784
2.0019550342130987
1.9716520039100685
1.943304007820137
1.916911045943304
1.8905180840664717
1.866080156402737
1.8406647116324533
1.8142717497556209
1.7878787878787878
1.7673509286412512
1.7517106549364614
1.7341153470185728
1.7165200391006843
1.6979472140762464
1.678396871945259
1.656891495601173
1.5386119257087
1.3743890518084063
1.2834799608993157
1.2297165200391007
1.195503421309873
1.1700879765395895
1.1534701857282503
1.1407624633431086
1.126099706744868
1.1133919843597262
1.1065493646138806
1.104594330400782
1.110459433040078
1.126099706744868
1.152492668621701
1.1915933528836755
1.2424242424242424
1.3049853372434017
1.367546432062561
1.4320625610948192
1.5102639296187683
1.5962854349951123
1.6881720430107527
1.782991202346041
1.8778103616813293
1.9696969696969695
2.0576735092864125
2.1407624633431084
2.2170087976539588
2.286412512218964
2.347996089931574
2.393939393939394
2.4301075268817205
2.4672531769305963
2.5004887585532747
2.529814271749756
2.552297165200391
2.56891495601173
2.5806451612903225
2.5865102639296187
2.587487781036168
2.58455522971652
2.576735092864125
2.563049853372434
2.5434995112414467
2.5190615835777126
2.490713587487781
2.458455522971652
2.420332355816227
2.3792766373411536
2.334310850439883
2.2873900293255134
2.239491691104594
2.1915933528836757
2.145650048875855
2.099706744868035
2.0576735092864125
2.0195503421309877
1.9804496578690127
1.9413489736070384
1.905180840664712
1.8729227761485825
1.8416422287390029
1.812316715542522
1.782991202346041
1.7546432062561097
1.7282502443792769
1.7028347996089932
1.6813294232649072
1.6608015640273706
1.6392961876832846
1.616813294232649
1.5933528836754642
1.56891495601173
1.542521994134897
1.5161290322580645
1.490713587487781
1.4652981427174976
1.439882697947214
1.41544477028348
1.3919843597262953
1.3743890518084063
1.3587487781036167
1.3411534701857282
1.321603128054741
1.3010752688172045
1.2834799608993157
1.2658846529814272
1.2482893450635386
1.23069403714565
1.2140762463343109
1.1964809384164223
1.1788856304985338
1.166177908113392
1.155425219941349
1.141739980449658
1.126099706744868
1.1114369501466277
1.0977517106549364
1.0850439882697946
1.072336265884653
1.0596285434995112
1.0469208211143697
1.032258064516129
1.0175953079178883
1.0039100684261977
0.9951124144672532
0.989247311827957
0.9843597262952102
0.9843597262952102
0.9902248289345064
1.002932551319648
1.0263929618768328
1.0606060606060606
1.1055718475073313
1.160312805474096
1.2258064516129032
1.3020527859237536
1.3763440860215057
1.4506353861192571
1.5347018572825024
1.6236559139784943
1.715542521994135
1.8074291300097751
1.895405669599218
1.978494623655914
2.0557184750733137
2.126099706744868
2.190615835777126
2.247311827956989
2.297165200391007
2.334310850439883
2.361681329423265
2.3851417399804498
2.404692082111437
2.418377321603128
2.426197458455523
2.4281524926686218
2.4242424242424243
2.4134897360703813
2.3978494623655915
2.377321603128055
2.3519061583577714
2.32355816226784
2.294232649071359
2.260997067448681
2.2238514173998043
2.1837732160312804
2.1417399804496577
2.0977517106549364
2.0527859237536656
2.007820136852395
1.962854349951124
1.919843597262952
1.8797653958944285
1.8455522971652003
1.8142717497556209
1.782991202346041
1.7546432062561097
1.7272727272727273
1.6989247311827955
1.6705767350928642
1.6422287390029326
1.6138807429130009
1.585532746823069
1.5591397849462365
1.533724340175953
1.5073313782991202
1.4858260019550342
1.4672531769305963
1.4457478005865103
1.4222873900293256
1.396871945259042
1.3714565004887584
1.3450635386119256
1.3176930596285434
1.289345063538612
1.2619745845552297
1.2355816226783969
1.2101661779081134
1.1906158357771262
1.1730205278592376
1.1534701857282503
1.1329423264907137
1.1124144672531768
1.0918866080156402
1.0713587487781036
1.050830889540567
1.0303030303030305
1.0087976539589445
0.9882697947214076
0.9687194525904204
0.9481915933528836
0.9345063538611924
0.9227761485826002
0.9081133919843596
0.8914956011730205
0.873900293255132
0.8563049853372434
0.8396871945259042
0.8220918866080157
0.8035190615835777
0.7859237536656891
0.7683284457478006
0.7517106549364614
0.7419354838709677
0.7360703812316716
0.729227761485826
0.7253176930596286
0.7253176930596286
0.7321603128054741
0.7487781036168133
0.7781036168132942
0.8191593352883676
0.8719452590420332
0.9364613880742912
1.010752688172043
1.0928641251221896
1.1710654936461389
1.24633431085044
1.3304007820136852
1.4203323558162269
1.5083088954056696
1.5933528836754642
1.6735092864125125
1.7458455522971652
1.8103616813294232
1.865102639296188
1.9120234604105573
1.951124144672532
1.9775171065493649
1.9951124144672527
2.0087976539589443
2.018572825024438
2.0234604105571847
2.022482893450636
2.01564027370479
2.004887585532747
1.989247311827957
1.9687194525904204
1.9442815249266865
1.9149560117302051
1.881720430107527
1.8494623655913975
1.8162267839687196
1.7781036168132942
1.7380254154447703
1.6979472140762464
1.6578690127077225
1.619745845552297
1.5826001955034212
1.5464320625610948
1.5141739980449658
1.4848484848484849
1.458455522971652
1.436950146627566
1.498533724340176
1.598240469208211
1.6363636363636365
1.6451612903225807
1.6412512218963833
1.6304985337243405
1.6148582600195502
1.598240469208211
1.581622678396872
1.563049853372434
1.5454545454545454
1.5278592375366569
1.5141739980449658
1.5034213098729228
1.4887585532746823
1.4731182795698925
1.4535679374389052
1.4320625610948192
1.4105571847507332
1.3900293255131966
1.3695014662756595
1.3509286412512218
1.3333333333333333
1.3157380254154447
1.3040078201368523
1.2932551319648091
1.2805474095796676
1.2688172043010753
1.2561094819159335
1.2443792766373412
1.2336265884652982
1.2218963831867058
1.2101661779081134
1.1994134897360704
1.1896383186705768
1.1808406647116323
1.1730205278592376
1.1700879765395895
1.1700879765395895
1.1671554252199414
1.1622678396871946
1.155425219941349
1.1495601173020529
1.1436950146627567
1.1397849462365592
1.1378299120234605
1.1368523949169111
1.13880742913001
1.1466275659824048
1.1612903225806452
1.1827956989247312
1.2111436950146628
1.2482893450635386
1.2961876832844574
1.3558162267839686
1.4271749755620724
1.5102639296187683
1.6021505376344083
1.7018572825024438
1.8074291300097751
1.916911045943304
2.027370478983382
2.1221896383186705
2.2082111436950145
2.3010752688172045
2.3919843597262958
2.4789833822091887
2.5591397849462365
2.6295210166177907
2.6911045943304006
2.742913000977517
2.78494623655914
2.819159335288368
2.8455522971652005
2.859237536656892
2.866080156402737
2.8719452590420333
2.8729227761485827
2.868035190615836
2.8582600195503423
2.841642228739003
2.820136852394917
2.795698924731183
2.7673509286412514
2.736070381231672
2.702834799608993
2.6695992179863146
2.6373411534701856
2.606060606060606
2.572825024437928
2.539589442815249
2.5083088954056696
2.4760508308895406
2.443792766373412
2.4115347018572826
2.3812316715542523
2.3528836754643208
2.3255131964809386
2.300097751710655
2.278592375366569
2.259042033235582
2.2404692082111435
2.2248289345063537
2.209188660801564
2.1925708699902247
2.1739980449657867
2.156402737047898
2.1388074291300097
2.1192570869990224
2.099706744868035
2.081133919843597
2.0625610948191597
2.046920821114369
2.032258064516129
2.016617790811339
2.0
1.9824046920821117
1.964809384164223
1.9472140762463344
1.9286412512218964
1.9100684261974583
1.8905180840664717
1.8699902248289344
1.8504398826979471
1.8347996089931573
1.823069403714565
1.8113391984359728
1.7986314760508308
1.7869012707722385
1.7741935483870968
1.761485826001955
1.7487781036168133
1.7360703812316716
1.7253176930596286
1.7135874877810362
1.7018572825024438
1.694037145650049
1.6881720430107527
1.683284457478006
1.6774193548387095
1.6705767350928642
1.6627565982404693
1.653958944281525
1.6441837732160314
1.635386119257087
1.6285434995112416
1.6236559139784943
1.6236559139784943
1.6304985337243405
1.643206256109482
1.6627565982404693
1.6920821114369502
1.7341153470185728
1.7888563049853372
1.8543499511241448
1.932551319648094
2.0234604105571847
2.124144672531769
2.23069403714565
2.3411534701857284
2.453567937438905
2.549364613880743
2.634408602150537
2.730205278592375
2.8269794721407626
2.919843597262952
3.005865102639296
3.0840664711632453
3.15347018572825
3.2170087976539588
3.2737047898338223
3.3225806451612905
3.366568914956012
3.4027370478983383
3.4222873900293256
3.432062561094819
3.441837732160313
3.4486803519061584
3.4516129032258065
3.4516129032258065
3.447702834799609
3.4408602150537635
3.4281524926686218
3.4086021505376345
3.383186705767351
3.3499511241446727
3.3118279569892475
3.269794721407625
3.222873900293255
3.172043010752688
3.118279569892473
3.0625610948191597
3.006842619745845
2.951124144672532
2.8944281524926687
2.838709677419355
2.7869012707722387
2.7370478983382207
2.689149560117302
2.6471163245356792
2.610948191593353
2.5747800586510263
2.5376344086021505
2.5004887585532747
2.463343108504399
2.4271749755620724
2.3919843597262958
2.358748778103617
2.326490713587488
2.294232649071359
2.26197458455523
2.2346041055718477
2.2082111436950145
2.179863147605083
2.150537634408602
2.120234604105572
2.090909090909091
2.06158357771261
2.0332355816226784
2.003910068426197
1.9726295210166176
1.9423264907135875
1.911045943304008
1.8807429130009776
1.855327468230694
1.8347996089931573
1.81524926686217
1.7947214076246334
1.7741935483870968
1.7517106549364614
1.7272727272727273
1.704789833822092
1.6852394916911049
1.664711632453568
1.643206256109482
1.6236559139784943
1.608993157380254
1.595307917888563
1.5777126099706744
1.5591397849462365
1.5405669599217986
1.52297165200391
1.5053763440860215
1.487781036168133
1.4711632453567938
1.457478005865103
1.447702834799609
1.4428152492668622
1.4467253176930597
1.4594330400782014
1.4809384164222874
1.5151515151515151
1.563049853372434
1.6236559139784943
1.696969696969697
1.7810361681329423
1.8093841642228736
1.8074291300097751
1.8514173998044965
1.9188660801564028
1.9960899315738023
2.064516129032258
2.126099706744868
2.193548387096774
2.2639296187683287
2.332355816226784
2.3949169110459434
2.450635386119257
2.498533724340176
2.5405669599217986
2.576735092864125
2.606060606060606
2.6265884652981426
2.6422287390029324
2.649071358748778
2.649071358748778
2.649071358748778
2.6471163245356792
2.643206256109482
2.635386119257087
2.622678396871945
2.6050830889540566
2.5806451612903225
2.5513196480938416
2.5190615835777126
2.4819159335288368
2.444770283479961
2.407624633431085
2.366568914956012
2.3225806451612905
2.27761485826002
2.233626588465298
2.189638318670577
2.146627565982405
2.104594330400782
2.064516129032258
2.026392961876833
1.991202346041056
1.9579667644183771
1.9305962854349952
1.9071358748778104
1.881720430107527
1.857282502443793
1.833822091886608
1.8093841642228736
1.7839687194525904
1.7575757575757576
1.7331378299120237
1.7096774193548387
1.686217008797654
1.6627565982404693
1.6441837732160314
1.6256109481915937
1.606060606060606
1.587487781036168
1.5669599217986314
1.544477028347996
1.521994134897361
1.500488758553275
1.479960899315738
1.4604105571847508
1.4418377321603129
1.4222873900293256
1.4037145650048877
1.3890518084066472
1.375366568914956
1.359726295210166
1.3450635386119256
1.3294232649071358
1.3147605083088951
1.300097751710655
1.284457478005865
1.2697947214076246
1.2551319648093842
1.2424242424242424
1.23069403714565
1.2228739002932552
1.2160312805474096
1.206256109481916
1.195503421309873
1.1837732160312806
1.1730205278592376
1.1612903225806452
1.1505376344086022
1.1407624633431086
1.1368523949169111
1.1407624633431086
1.152492668621701
1.1749755620723363
1.203323558162268
1.2394916911045943
1.2883675464320623
1.3499511241446724
1.4213098729227762
1.499511241446725
1.581622678396872
1.6666666666666667
1.75366568914956
1.839687194525904
1.9227761485826005
2.0009775171065494
2.065493646138808
2.1221896383186705
2.1808406647116323
2.236559139784946
2.2873900293255134
2.3313782991202348
2.3685239491691106
2.398826979472141
2.4242424242424243
2.442815249266862
2.455522971652004
2.463343108504399
2.464320625610948
2.4604105571847508
2.452590420332356
2.441837732160313
2.4271749755620724
2.4086021505376345
2.3851417399804498
2.357771260997068
2.3255131964809386
2.289345063538612
2.2502443792766376
2.2082111436950145
2.167155425219941
2.1300097751710654
2.0977517106549364
2.0635386119257086
2.027370478983382
1.992179863147605
1.959921798631476
1.9305962854349952
1.903225806451613
1.8758553274682308
1.8514173998044965
1.828934506353861
1.8054740957966764
1.7859237536656891
1.7673509286412512
1.7468230694037146
1.726295210166178
1.7067448680351909
1.6852394916911049
1.66177908113392
1.6363636363636365
1.611925708699902
1.5884652981427174
1.5650048875855327
1.541544477028348
1.5190615835777126
1.500488758553275
1.4838709677419355
1.466275659824047
1.4486803519061584
1.4301075268817205
1.4115347018572826
1.3919843597262953
1.3743890518084063
1.359726295210166
1.348973607038123
1.33822091886608
1.327468230694037
1.3206256109481915
1.3147605083088951
1.3049853372434017
1.2942326490713587
1.2825024437927663
1.2697947214076246
1.2561094819159335
1.2424242424242424
1.23069403714565
1.2189638318670577
1.206256109481916
1.1915933528836755
1.1749755620723363
1.1612903225806452
1.1495601173020529
1.1358748778103618
1.1221896383186705
1.110459433040078
1.1006842619745845
1.0918866080156402
1.0869990224828934
1.0879765395894427
1.096774193548387
1.1163245356793745
1.1485826001955035
1.18475073313783
1.227761485826002
1.2825024437927663
1.3470185728250244
1.4193548387096775
1.4975562072336266
1.5786901270772238
1.66177908113392
1.7438905180840665
1.8240469208211143
1.900293255131965
1.9687194525904204
2.0283479960899315
