ppg
1.0058651026392962
1.0039100684261977
1.0019550342130987
1.0009775171065494
1.0009775171065494
1.0009775171065494
1.0009775171065494
1.0009775171065494
1.0009775171065494
1.002932551319648
1.0068426197458455
1.0097751710654936
1.0117302052785924
1.013685239491691
1.0146627565982405
1.0156402737047898
1.0175953079178883
1.021505376344086
1.0312805474095796
1.0498533724340176
1.0840664711632453
1.1280547409579669
1.1867057673509287
1.2746823069403714
1.3919843597262953
1.5347018572825024
1.6979472140762464
1.8729227761485825
2.0527859237536656
2.2267839687194524
2.3870967741935485
2.527859237536657
2.6471163245356792
2.744868035190616
2.811339198435973
2.8563049853372435
2.8963831867057674
2.929618768328446
2.956011730205278
2.9745845552297165
2.986314760508309
2.9902248289345064
2.986314760508309
2.9745845552297165
2.95405669599218
2.9237536656891496
2.8856304985337244
2.838709677419355
2.780058651026393
2.7096774193548385
2.6285434995112413
2.539589442815249
2.447702834799609
2.3548387096774195
2.264907135874878
2.1808406647116323
2.104594330400782
2.0391006842619745
1.9833822091886608
1.9403714565004888
1.9071358748778104
1.878787878787879
1.8563049853372435
1.8377321603128052
1.822091886608016
1.8084066471163245
1.7947214076246334
1.7810361681329423
1.7673509286412512
1.7526881720430108
1.737047898338221
1.7223851417399805
1.70772238514174
1.6920821114369502
1.675464320625611
1.6598240469208212
1.643206256109482
1.6265884652981428
1.6099706744868034
1.595307917888563
1.581622678396872
1.5679374389051808
1.5542521994134897
1.541544477028348
1.5317693059628543
1.5249266862170088
1.5161290322580645
1.5063538611925709
1.4946236559139785
1.482893450635386
1.469208211143695
1.4535679374389052
1.436950146627566
1.4193548387096775
1.3998044965786902
1.380254154447703
1.3636363636363635
1.3479960899315735
1.3284457478005864
1.3049853372434017
1.278592375366569
1.2502443792766371
1.219941348973607
1.187683284457478
1.155425219941349
1.1231671554252198
1.0928641251221896
1.0664711632453567
1.043010752688172
1.0283479960899315
1.0195503421309873
1.0117302052785924
1.0058651026392962
1.0019550342130987
1.0
1.0
1.0
1.0
1.0
1.0
1.0
1.002932551319648
1.0058651026392962
1.0048875855327468
1.002932551319648
1.0009775171065494
0.997067448680352
0.9921798631476052
0.9863147605083088
0.978494623655914
0.9687194525904204
0.959921798631476
0.95405669599218
0.9560117302052786
0.967741935483871
0.9941348973607038
1.0410557184750733
1.1114369501466277
1.2101661779081134
1.3362658846529814
1.4848484848484849
1.6500488758553276
1.825024437927664
1.9980449657869013
2.163245356793744
2.312805474095797
2.4271749755620724
2.5161290322580645
2.5992179863147604
2.6695992179863146
2.727272727272727
2.7722385141739982
2.806451612903226
2.832844574780059
2.8514173998044967
2.863147605083089
2.8670576735092865
2.863147605083089
2.849462365591398
2.8269794721407626
2.7966764418377323
2.7565982404692084
2.704789833822092
2.6422287390029324
2.56891495601173
2.4858260019550342
2.396871945259042
2.3059628543499517
2.2160312805474094
2.1309872922776147
2.053763440860215
1.9902248289345064
1.93841642228739
1.8905180840664717
1.8484848484848484
1.8113391984359728
1.7790811339198436
1.7497556207233629
1.7223851417399805
1.6959921798631477
1.6686217008797657
1.640273704789834
1.6109481915933528
1.58455522971652
1.5581622678396871
1.525904203323558
1.490713587487781
1.4545454545454546
1.4173998044965788
1.3822091886608017
1.3479960899315735
1.3157380254154447
1.2864125122189638
1.2590420332355816
1.2336265884652982
1.2111436950146628
1.1945259042033236
1.181818181818182
1.1681329423264908
1.1544477028347997
1.141739980449658
1.130987292277615
1.1221896383186705
1.1133919843597262
1.1055718475073313
1.0987292277614855
1.0928641251221896
1.086021505376344
1.0821114369501466
1.0791788856304985
1.0733137829912025
1.0664711632453567
1.0606060606060606
1.0547409579667644
1.0498533724340176
1.0449657869012707
1.040078201368524
1.035190615835777
1.029325513196481
1.0234604105571847
1.0175953079178883
1.0146627565982405
1.013685239491691
1.0097751710654936
1.0058651026392962
1.002932551319648
1.0
0.9980449657869012
0.997067448680352
0.9960899315738024
0.9960899315738024
0.9960899315738024
0.997067448680352
1.0
1.0039100684261977
1.0058651026392962
1.0068426197458455
1.007820136852395
1.007820136852395
1.007820136852395
1.007820136852395
1.007820136852395
1.007820136852395
1.007820136852395
1.007820136852395
1.007820136852395
1.010752688172043
1.0156402737047898
1.0224828934506354
1.035190615835777
1.0596285434995112
1.1026392961876832
1.1681329423264908
1.260019550342131
1.3792766373411536
1.5239491691104594
1.689149560117302
1.8670576735092863
2.0234604105571847
2.1652003910068425
2.314760508308896
2.4565004887585533
2.5806451612903225
2.6852394916911044
2.76930596285435
2.8377321603128056
2.889540566959922
2.9266862170087977
2.95405669599218
2.973607038123167
2.986314760508309
2.988269794721408
2.981427174975562
2.970674486803519
2.95405669599218
2.930596285434995
2.897360703812317
2.852394916911046
2.795698924731183
2.7282502443792764
2.6510263929618767
2.5669599217986314
2.47702834799609
2.3949169110459434
2.318670576735093
2.2404692082111435
2.1652003910068425
2.096774193548387
2.037145650048876
1.9853372434017595
1.9403714565004888
1.903225806451613
1.8699902248289344
1.8406647116324533
1.812316715542522
1.7849462365591398
1.7595307917888563
1.7360703812316716
1.7086999022482894
1.6793743890518085
1.6471163245356797
1.6148582600195502
1.581622678396872
1.5493646138807429
1.5180840664711632
1.4887585532746823
1.4613880742913
1.4349951124144673
1.414467253176931
1.3978494623655917
1.380254154447703
1.3636363636363635
1.3479960899315735
1.3343108504398826
1.321603128054741
1.3098729227761483
1.2981427174975562
1.2864125122189638
1.2746823069403714
1.2639296187683284
1.2531769305962854
1.2443792766373412
1.2375366568914956
1.2297165200391007
1.219941348973607
1.2101661779081134
1.1994134897360704
1.1886608015640274
1.176930596285435
1.166177908113392
1.155425219941349
1.1466275659824048
1.1397849462365592
1.1378299120234605
1.13880742913001
1.1397849462365592
1.1407624633431086
1.141739980449658
1.1407624633431086
1.1397849462365592
1.1378299120234605
1.1358748778103618
1.133919843597263
1.1329423264907137
1.133919843597263
1.1368523949169111
1.1407624633431086
1.1436950146627567
1.1466275659824048
1.1485826001955035
1.1505376344086022
1.152492668621701
1.1544477028347997
1.1564027370478984
1.1583577712609971
1.1593352883675463
1.1593352883675463
1.1593352883675463
1.1612903225806452
1.164222873900293
1.1652003910068427
1.166177908113392
1.1681329423264908
1.173998044965787
1.187683284457478
1.2150537634408602
1.2619745845552297
1.3313782991202343
1.426197458455523
1.547409579667644
1.667644183773216
1.7917888563049853
1.9413489736070384
2.1006842619745845
2.2580645161290325
2.404692082111437
2.535679374389052
2.64613880742913
2.736070381231672
2.807429130009776
2.86217008797654
2.902248289345064
2.9315738025415445
2.946236559139785
2.951124144672532
2.956011730205278
2.956011730205278
2.951124144672532
2.9393939393939394
2.918866080156403
2.8885630498533725
2.8484848484848486
2.7976539589442817
2.736070381231672
2.6637341153470184
2.590420332355816
2.515151515151515
2.4301075268817205
2.3411534701857284
2.2531769305962857
2.1710654936461387
2.0957966764418376
2.0303030303030303
1.975562072336266
1.9305962854349952
1.8944281524926687
1.865102639296188
1.839687194525904
1.8191593352883677
1.801564027370479
1.782991202346041
1.7624633431085044
1.7409579667644184
1.7174975562072337
1.6920821114369502
1.6637341153470186
1.6344086021505375
1.603128054740958
1.5698924731182795
1.5376344086021505
1.509286412512219
1.4838709677419355
1.455522971652004
1.4252199413489737
1.3949169110459434
1.3655913978494625
1.3391984359726294
1.3147605083088951
1.2932551319648091
1.273704789833822
1.2570869990224829
1.2424242424242424
1.2316715542521994
1.224828934506354
1.2218963831867058
1.2179863147605083
1.2130987292277615
1.2082111436950147
1.2023460410557183
1.195503421309873
1.1867057673509287
1.176930596285435
1.1671554252199414
1.1583577712609971
1.1485826001955035
1.142717497556207
1.13880742913001
1.130987292277615
1.1221896383186705
1.1124144672531768
1.1016617790811338
1.0899315738025417
1.0772238514173995
1.064516129032258
1.053763440860215
1.0439882697947214
1.0342130987292275
1.0254154447702837
1.021505376344086
1.0205278592375366
1.018572825024438
1.0166177908113392
1.0146627565982405
1.0127077223851415
1.0117302052785924
1.0117302052785924
1.013685239491691
1.0175953079178883
1.0224828934506354
1.0273704789833822
1.0342130987292275
1.0420332355816226
1.0478983382209188
1.0518084066471165
1.053763440860215
1.0547409579667644
1.0557184750733135
1.0606060606060606
1.0733137829912025
1.0987292277614855
1.142717497556207
1.209188660801564
1.3010752688172045
1.3998044965786902
1.5102639296187683
1.651026392961877
1.8113391984359728
1.9794721407624636
2.146627565982405
2.304985337243402
2.4486803519061584
2.573802541544477
2.679374389051808
2.764418377321604
2.83088954056696
2.8729227761485827
2.900293255131965
2.9257086999022484
2.945259042033236
2.959921798631476
2.970674486803519
2.975562072336266
2.9745845552297165
2.9657869012707723
2.9501466275659824
2.9257086999022484
2.8914956011730206
2.84652981427175
2.7947214076246336
2.7370478983382207
2.670576735092864
2.598240469208211
2.5239491691104594
2.4516129032258065
2.383186705767351
2.321603128054741
2.267839687194526
2.220918866080156
2.1808406647116323
2.147605083088954
2.120234604105572
2.0948191593352883
2.0684261974584555
2.0410557184750733
2.0127077223851417
1.981427174975562
1.9472140762463344
1.911045943304008
1.871945259042033
1.83088954056696
1.7888563049853372
1.7468230694037146
1.7067448680351909
1.672531769305963
1.6422287390029326
1.6099706744868034
1.5786901270772238
1.5483870967741935
1.520039100684262
1.4916911045943304
1.4643206256109482
1.4389051808406648
1.41544477028348
1.393939393939394
1.3724340175953078
1.3558162267839686
1.3411534701857282
1.324535679374389
1.3088954056695992
1.2942326490713587
1.2795698924731185
1.2658846529814272
1.2531769305962854
1.2394916911045943
1.2267839687194526
1.2150537634408602
1.203323558162268
1.1915933528836755
1.1827956989247312
1.1759530791788857
1.166177908113392
1.155425219941349
1.144672531769306
1.133919843597263
1.121212121212121
1.1094819159335287
1.0977517106549364
1.0850439882697946
1.0713587487781036
1.0576735092864125
1.0488758553274682
1.0420332355816226
1.032258064516129
1.021505376344086
1.010752688172043
1.0
0.9912023460410556
0.981427174975562
0.9716520039100685
0.9618768328445748
0.9530791788856304
0.9442815249266864
0.93841642228739
0.935483870967742
0.9296187683284456
0.9217986314760508
0.9130009775171064
0.9042033235581622
0.8973607038123167
0.8924731182795699
0.8934506353861192
0.906158357771261
0.935483870967742
0.9863147605083088
1.064516129032258
1.152492668621701
1.2551319648093842
1.391006842619746
1.5483870967741935
1.7165200391006843
1.8866080156402736
2.048875855327468
2.1974584555229715
2.3274682306940373
2.436950146627566
2.525904203323558
2.595307917888563
2.641251221896383
2.670576735092864
2.696969696969697
2.716520039100684
2.730205278592375
2.73802541544477
2.739980449657869
2.7341153470185726
2.720430107526881
2.6989247311827955
2.667644183773216
2.625610948191593
2.572825024437928
2.5161290322580645
2.455522971652004
2.3841642228739004
2.304985337243402
2.222873900293255
2.1417399804496577
2.064516129032258
1.994134897360704
1.932551319648094
1.8797653958944285
1.835777126099707
1.7996089931573802
1.7712609970674489
1.7468230694037146
1.7223851417399805
1.6989247311827955
1.675464320625611
1.651026392961877
1.624633431085044
1.598240469208211
1.5708699902248289
1.543499511241447
1.5151515151515151
1.4858260019550342
1.456500488758553
1.43108504398827
1.4086021505376345
1.3841642228739004
1.3587487781036167
1.3343108504398826
1.310850439882698
1.2883675464320623
1.2688172043010753
1.2502443792766371
1.2336265884652982
1.217008797653959
1.2013685239491692
1.1906158357771262
1.181818181818182
1.1730205278592376
1.163245356793744
1.1534701857282503
1.1436950146627567
1.133919843597263
1.1231671554252198
1.1133919843597262
1.104594330400782
1.0957966764418376
1.0879765395894427
1.0791788856304985
1.0742913000977516
1.0713587487781036
1.0664711632453567
1.0606060606060606
1.053763440860215
1.0478983382209188
1.043010752688172
1.0391006842619743
1.0361681329423265
1.0342130987292275
1.032258064516129
1.0303030303030305
1.0303030303030305
1.032258064516129
1.032258064516129
1.032258064516129
1.032258064516129
1.0332355816226784
1.0342130987292275
1.035190615835777
1.0361681329423265
1.0371456500488758
1.0381231671554252
1.0391006842619743
1.040078201368524
1.043010752688172
1.04594330400782
1.04594330400782
1.0449657869012707
1.0439882697947214
1.0439882697947214
1.0469208211143697
1.0586510263929618
1.0840664711632453
1.1290322580645162
1.198435972629521
1.295210166177908
1.3978494623655917
1.5131964809384164
1.6608015640273706
1.8269794721407624
2.0
2.1700879765395893
2.3284457478005867
2.4711632453567938
2.592375366568915
2.6930596285435
2.773216031280548
2.835777126099707
2.8836754643206257
2.913000977517106
2.929618768328446
2.946236559139785
2.959921798631476
2.9687194525904204
2.9716520039100685
2.967741935483871
2.956011730205278
2.935483870967742
2.9042033235581624
2.8611925708699903
2.806451612903226
2.7468230694037143
2.681329423264907
2.6041055718475072
2.5190615835777126
2.429130009775171
2.3382209188660803
2.249266862170088
2.1652003910068425
2.0879765395894427
2.0195503421309877
1.9618768328445748
1.9130009775171064
1.871945259042033
1.839687194525904
1.8132942326490715
1.7869012707722385
1.7605083088954057
1.7331378299120237
1.7057673509286413
1.6774193548387095
1.6490713587487782
1.619745845552297
1.5884652981427174
1.5571847507331378
1.5249266862170088
1.4975562072336266
1.4721407624633431
1.444770283479961
1.4164222873900294
1.3890518084066472
1.3636363636363635
1.3401759530791788
1.3196480938416422
1.3010752688172045
1.2854349951124144
1.270772238514174
1.2570869990224829
1.2443792766373412
1.2355816226783969
1.227761485826002
1.2179863147605083
1.2072336265884651
1.1945259042033236
1.181818181818182
1.1700879765395895
1.18475073313783
1.2130987292277615
1.2228739002932552
1.2238514173998043
1.2218963831867058
1.2209188660801564
1.219941348973607
1.217008797653959
1.2130987292277615
1.209188660801564
1.2052785923753666
1.2013685239491692
1.1974584555229717
1.1935483870967742
1.1906158357771262
1.1867057673509287
1.1827956989247312
1.1798631476050832
1.1798631476050832
1.181818181818182
1.181818181818182
1.181818181818182
1.181818181818182
1.181818181818182
1.181818181818182
1.181818181818182
1.181818181818182
1.181818181818182
1.181818181818182
1.181818181818182
1.1837732160312806
1.187683284457478
1.1896383186705768
1.1906158357771262
1.1915933528836755
1.1935483870967742
1.1974584555229717
1.2072336265884651
1.2267839687194526
1.2609970674486803
1.3157380254154447
1.393939393939394
1.479960899315738
1.5777126099706744
1.7057673509286413
1.8533724340175952
2.0117302052785924
2.1710654936461387
2.3225806451612905
2.4604105571847508
2.5806451612903225
2.6803519061583576
2.7595307917888565
2.822091886608016
2.8690127077223853
2.897360703812317
2.913978494623656
2.929618768328446
2.9423264907135875
2.951124144672532
2.9550342130987293
2.952101661779081
2.9423264907135875
2.9237536656891496
2.8963831867057674
2.8582600195503423
2.8084066471163247
2.7546432062561097
2.6940371456500487
2.621700879765396
2.5405669599217986
2.455522971652004
2.36950146627566
2.286412512218964
2.209188660801564
2.1407624633431084
2.081133919843597
2.03128054740958
1.989247311827957
1.9550342130987293
1.9286412512218964
1.906158357771261
1.8826979472140764
1.8592375366568916
1.833822091886608
1.8064516129032255
1.7781036168132942
1.747800586510264
1.7165200391006843
1.6852394916911049
1.6529814271749756
1.6217008797653958
1.595307917888563
1.5708699902248289
1.544477028347996
1.517106549364614
1.490713587487781
1.4652981427174976
1.4408602150537635
1.418377321603128
1.396871945259042
1.3782991202346042
1.3607038123167154
1.3440860215053765
1.327468230694037
1.3157380254154447
1.3069403714565004
1.295210166177908
1.281524926686217
1.2688172043010753
1.2561094819159335
1.2453567937438903
1.2355816226783969
1.2258064516129032
1.217008797653959
1.2101661779081134
1.2052785923753666
1.203323558162268
1.203323558162268
1.2013685239491692
1.198435972629521
1.195503421309873
1.1925708699902249
1.1886608015640274
1.1827956989247312
1.176930596285435
1.1700879765395895
1.163245356793744
1.155425219941349
1.1485826001955035
1.1456500488758554
1.144672531769306
1.141739980449658
1.13880742913001
1.1368523949169111
1.1348973607038124
1.1329423264907137
1.130987292277615
1.1290322580645162
1.1280547409579669
1.1280547409579669
1.1290322580645162
1.1319648093841643
1.1368523949169111
1.1397849462365592
1.141739980449658
1.1436950146627567
1.1466275659824048
1.1544477028347997
1.1720430107526882
1.203323558162268
1.2551319648093842
1.3304007820136852
1.43108504398827
1.5562072336265884
1.6793743890518085
1.8054740957966764
1.9550342130987293
2.112414467253177
2.2658846529814274
2.4056695992179864
2.527859237536657
2.6295210166177907
2.7116324535679373
2.776148582600196
2.825024437927664
2.86217008797654
2.8836754643206257
2.8963831867057674
2.90811339198436
2.917888563049853
2.9237536656891496
2.9237536656891496
2.916911045943304
2.9012707722385143
2.875855327468231
2.8406647116324537
2.7947214076246336
2.736070381231672
2.6666666666666665
2.595307917888563
2.5219941348973607
2.4389051808406648
2.350928641251222
2.2629521016617797
2.1788856304985336
2.103616813294233
2.037145650048876
1.981427174975562
1.9345063538611929
1.895405669599218
1.86119257086999
1.8347996089931573
1.8113391984359728
1.7869012707722385
1.7624633431085044
1.737047898338221
1.710654936461388
1.683284457478006
1.653958944281525
1.6236559139784943
1.5933528836754642
1.564027370478983
1.5347018572825024
1.5073313782991202
1.4848484848484849
1.4652981427174976
1.4428152492668622
1.4203323558162269
1.3978494623655917
1.3763440860215057
1.3558162267839686
1.3362658846529814
1.3176930596285434
1.300097751710655
1.2834799608993157
1.2688172043010753
1.2590420332355816
1.2512218963831867
1.2404692082111437
1.2297165200391007
1.2189638318670577
1.2101661779081134
1.2023460410557183
1.195503421309873
1.1906158357771262
1.1867057673509287
1.1837732160312806
1.181818181818182
1.1788856304985338
1.1779081133919844
1.1788856304985338
1.176930596285435
1.1720430107526882
1.166177908113392
1.1593352883675463
1.1534701857282503
1.1495601173020529
1.1466275659824048
1.1436950146627567
1.142717497556207
1.142717497556207
1.144672531769306
1.147605083088954
1.1485826001955035
1.1495601173020529
1.1495601173020529
1.1495601173020529
1.1495601173020529
1.1495601173020529
1.1495601173020529
1.1485826001955035
1.1485826001955035
1.1485826001955035
1.1485826001955035
1.1485826001955035
1.1485826001955035
1.1485826001955035
1.0606060606060606
1.0664711632453567
1.0928641251221896
1.141739980449658
1.2179863147605083
1.3225806451612905
1.4545454545454546
1.6109481915933528
1.7839687194525904
1.9393939393939397
2.0840664711632453
2.2404692082111435
2.3919843597262958
2.5288367546432062
2.64613880742913
2.742913000977517
2.820136852394917
2.8797653958944283
2.9257086999022484
2.960899315738025
2.9872922776148583
2.99902248289345
3.002932551319648
3.006842619745845
3.006842619745845
3.0009775171065494
2.986314760508309
2.962854349951124
2.927663734115347
2.8807429130009776
2.8211143695014664
2.7497556207233624
2.6666666666666665
2.575757575757576
2.489736070381232
2.406647116324536
2.318670576735093
2.232649071358749
2.15347018572825
2.0821114369501466
2.0195503421309877
1.9667644183773216
1.9227761485826005
1.8856304985337244
1.8533724340175952
1.823069403714565
1.7976539589442817
1.7741935483870968
1.747800586510264
1.7174975562072337
1.6842619745845553
1.6490713587487782
1.611925708699902
1.573802541544477
1.5356793743890518
1.499511241446725
1.4643206256109482
1.4320625610948192
1.4007820136852396
1.375366568914956
1.35386119257087
1.3304007820136852
1.305962854349951
1.2825024437927663
1.2609970674486803
1.241446725317693
1.2238514173998043
1.2082111436950147
1.1945259042033236
1.181818181818182
1.1700879765395895
1.1612903225806452
1.155425219941349
1.1485826001955035
1.1397849462365592
1.130987292277615
1.121212121212121
1.1114369501466277
1.1016617790811338
1.0928641251221896
1.0840664711632453
1.0762463343108504
1.0684261974584557
1.0606060606060606
1.056695992179863
1.053763440860215
1.0488758553274682
1.0420332355816226
1.035190615835777
1.029325513196481
1.0254154447702837
1.0224828934506354
1.0195503421309873
1.0175953079178883
1.0156402737047898
1.0156402737047898
1.018572825024438
1.0224828934506354
1.024437927663734
1.0254154447702837
1.0254154447702837
1.0254154447702837
1.0254154447702837
1.0254154447702837
1.024437927663734
1.0234604105571847
1.0234604105571847
1.024437927663734
1.029325513196481
1.0391006842619743
1.0586510263929618
1.0928641251221896
1.147605083088954
1.2287390029325511
1.3391984359726294
1.47702834799609
1.6373411534701858
1.8132942326490715
1.9960899315738023
2.175953079178885
2.345063538611926
2.4780058651026398
2.58455522971652
2.686217008797654
2.774193548387097
2.84652981427175
2.9042033235581624
2.949169110459433
2.983382209188661
3.007820136852395
3.0254154447702835
3.0361681329423265
3.0391006842619745
3.034213098729228
3.0195503421309877
2.9960899315738025
2.9657869012707723
2.9266862170087977
2.87683284457478
2.814271749755621
2.739980449657869
2.656891495601173
2.5650048875855327
2.4682306940371457
2.3714565004887587
2.2766373411534704
2.1945259042033234
2.12316715542522
2.0547409579667644
1.992179863147605
1.9374389051808407
1.8905180840664717
1.8504398826979471
1.81524926686217
1.7839687194525904
1.75366568914956
1.7233626588465298
1.6920821114369502
1.6598240469208212
1.6304985337243405
1.603128054740958
1.5708699902248289
1.5356793743890518
1.501466275659824
1.4672531769305963
1.434017595307918
1.401759530791789
1.3714565004887584
1.3421309872922775
1.313782991202346
1.2873900293255132
1.267839687194526
1.252199413489736
1.2336265884652982
1.2150537634408602
1.198435972629521
1.181818181818182
1.1671554252199414
1.1534701857282503
1.1407624633431086
1.1280547409579669
1.115347018572825
1.1026392961876832
1.0899315738025417
1.0811339198435972
1.0742913000977516
1.0654936461388074
1.0557184750733135
1.0449657869012707
1.035190615835777
1.0273704789833822
1.0205278592375366
1.0146627565982405
1.0097751710654936
1.0068426197458455
1.0039100684261977
1.0048875855327468
1.0068426197458455
1.0068426197458455
1.0058651026392962
1.0048875855327468
1.002932551319648
1.0009775171065494
1.0
1.0
1.0009775171065494
1.0019550342130987
1.0039100684261977
1.0058651026392962
1.0097751710654936
1.0146627565982405
1.0166177908113392
1.0166177908113392
1.0156402737047898
1.0146627565982405
