ppg
1.3919843597262953
1.380254154447703
1.3665689149560116
1.3519061583577712
1.3362658846529814
1.321603128054741
1.3079178885630498
1.2942326490713587
1.2825024437927663
1.2756598240469208
1.2717497556207231
1.2658846529814272
1.2590420332355816
1.2502443792766371
1.2394916911045943
1.2287390029325511
1.2189638318670577
1.2111436950146628
1.2052785923753666
1.2003910068426198
1.1974584555229717
1.1974584555229717
1.2003910068426198
1.2023460410557183
1.203323558162268
1.2043010752688172
1.206256109481916
1.209188660801564
1.2121212121212122
1.2130987292277615
1.2140762463343109
1.2160312805474096
1.2189638318670577
1.2228739002932552
1.227761485826002
1.2316715542521994
1.2336265884652982
1.2336265884652982
1.23069403714565
1.224828934506354
1.219941348973607
1.224828934506354
1.2482893450635386
1.300097751710655
1.388074291300098
1.5141739980449658
1.6480938416422288
1.793743890518084
1.9726295210166176
2.1622678396871944
2.345063538611926
2.509286412512219
2.6480938416422286
2.7565982404692084
2.8367546432062563
2.8914956011730206
2.9257086999022484
2.9423264907135875
2.946236559139785
2.936461388074292
2.917888563049853
2.8963831867057674
2.8699902248289346
2.8406647116324537
2.809384164222874
2.776148582600196
2.7390029325513194
2.697947214076246
2.6529814271749754
2.603128054740958
2.5454545454545454
2.487781036168133
2.4252199413489737
2.3519061583577714
2.269794721407625
2.1837732160312804
2.0948191593352883
2.006842619745845
1.9237536656891496
1.847507331378299
1.780058651026393
1.7341153470185728
1.7057673509286413
1.6774193548387095
1.6549364613880744
1.6363636363636365
1.6177908113391983
1.5992179863147604
1.5796676441837731
1.560117302052786
1.541544477028348
1.521994134897361
1.5034213098729228
1.4848484848484849
1.4682306940371457
1.4516129032258065
1.4379276637341154
1.4252199413489737
1.4086021505376345
1.3900293255131966
1.370478983382209
1.3519061583577712
1.3333333333333333
1.3157380254154447
1.2991202346041055
1.2854349951124144
1.273704789833822
1.262952101661779
1.2561094819159335
1.2512218963831867
1.2434017595307918
1.2346041055718475
1.224828934506354
1.2111436950146628
1.195503421309873
1.1798631476050832
1.1652003910068427
1.1564027370478984
1.1593352883675463
1.18475073313783
1.241446725317693
1.3147605083088951
1.4105571847507332
1.5464320625610948
1.7086999022482894
1.8836754643206255
2.058651026392962
2.219941348973607
2.3597262952101663
2.4731182795698925
2.5591397849462365
2.621700879765396
2.66177908113392
2.681329423264907
2.687194525904203
2.686217008797654
2.678396871945259
2.664711632453568
2.6471163245356792
2.6265884652981426
2.6021505376344085
2.573802541544477
2.5405669599217986
2.5024437927663734
2.4594330400782014
2.4115347018572826
2.364613880742913
2.313782991202346
2.2531769305962857
2.1837732160312804
2.10752688172043
2.024437927663734
1.9364613880742916
1.847507331378299
1.7605083088954057
1.678396871945259
1.6041055718475072
1.5395894428152492
1.490713587487781
1.4535679374389052
1.4193548387096775
1.3890518084066472
1.3636363636363635
1.3421309872922775
1.3225806451612905
1.3040078201368523
1.2864125122189638
1.2688172043010753
1.252199413489736
1.2365591397849462
1.2189638318670577
1.203323558162268
1.1906158357771262
1.1749755620723363
1.1573802541544478
1.13880742913001
1.1202346041055715
1.1016617790811338
1.0840664711632453
1.0694037145650048
1.0557184750733135
1.0420332355816226
1.0283479960899315
1.018572825024438
1.010752688172043
0.9990224828934506
0.9853372434017597
0.9736070381231672
0.9648093841642228
0.956989247311828
0.9501466275659824
0.9433040078201368
0.9374389051808406
0.9305962854349952
0.9247311827956988
0.919843597262952
0.9208211143695014
0.9247311827956988
0.9247311827956988
0.9217986314760508
0.9188660801564028
0.9159335288367546
0.9130009775171064
0.9110459433040078
0.9100684261974584
0.9090909090909092
0.9090909090909092
0.9090909090909092
0.9120234604105572
0.9178885630498532
0.9217986314760508
0.9237536656891496
0.9247311827956988
0.927663734115347
0.9325513196480938
0.93841642228739
0.9442815249266864
0.9511241446725318
0.9579667644183774
0.9638318670576737
0.967741935483871
0.9726295210166178
0.978494623655914
0.9902248289345064
1.018572825024438
1.075268817204301
1.1710654936461389
1.310850439882698
1.490713587487781
1.7008797653958945
1.9266862170087975
2.1515151515151514
2.361681329423265
2.525904203323558
2.653958944281525
2.771260997067449
2.8690127077223853
2.9442815249266863
2.997067448680352
3.03128054740958
3.050830889540567
3.058651026392962
3.056695992179863
3.048875855327468
3.035190615835777
3.016617790811339
2.992179863147605
2.963831867057673
2.932551319648094
2.898338220918866
2.860215053763441
2.81622678396872
2.7653958944281527
2.7096774193548385
2.6471163245356792
2.5747800586510263
2.495601173020528
2.409579667644184
2.329423264907136
2.251221896383187
2.166177908113392
2.081133919843597
2.0
1.924731182795699
1.8592375366568916
1.8035190615835777
1.7575757575757576
1.7204301075268815
1.6901270772238517
1.6656891495601174
1.6451612903225807
1.629521016617791
1.6158357771260996
1.6001955034213098
1.58455522971652
1.56891495601173
1.5532746823069403
1.5376344086021505
1.521016617790811
1.5053763440860215
1.4897360703812317
1.474095796676442
1.458455522971652
1.4457478005865103
1.434017595307918
1.4203323558162269
1.4056695992179864
1.391006842619746
1.3763440860215057
1.3636363636363635
1.3519061583577712
1.3401759530791788
1.3294232649071358
1.3196480938416422
1.3098729227761483
1.3010752688172045
1.295210166177908
1.2913000977517106
1.2864125122189638
1.281524926686217
1.2766373411534702
1.2717497556207231
1.267839687194526
1.2619745845552297
1.2570869990224829
1.2531769305962854
1.249266862170088
1.2453567937438903
1.2453567937438903
1.2482893450635386
1.2512218963831867
1.2551319648093842
1.2580645161290325
1.2609970674486803
1.2609970674486803
1.2580645161290325
1.252199413489736
1.2453567937438903
1.2424242424242424
1.252199413489736
1.2834799608993157
1.3313782991202343
1.4037145650048877
1.517106549364614
1.6637341153470186
1.835777126099707
2.0175953079178885
2.196480938416422
2.360703812316716
2.5004887585532747
2.6129032258064515
2.6989247311827955
2.760508308895406
2.7947214076246336
2.811339198435973
2.819159335288368
2.8181818181818183
2.7966764418377323
2.7624633431085046
2.7341153470185726
2.7067448680351904
2.677419354838709
2.6471163245356792
2.613880742913001
2.5777126099706744
2.541544477028348
2.5024437927663734
2.4565004887585533
2.404692082111437
2.345063538611926
2.27761485826002
2.204301075268817
2.1251221896383186
2.0439882697947214
1.962854349951124
1.884652981427175
1.812316715542522
1.7458455522971652
1.694037145650049
1.651026392961877
1.6099706744868034
1.5728250244379276
1.541544477028348
1.5141739980449658
1.4916911045943304
1.4731182795698925
1.456500488758553
1.4408602150537635
1.4252199413489737
1.4086021505376345
1.3949169110459434
1.383186705767351
1.367546432062561
1.3499511241446724
1.3333333333333333
1.3157380254154447
1.2991202346041055
1.281524926686217
1.2639296187683284
1.2482893450635386
1.2326490713587488
1.2160312805474096
1.1994134897360704
1.1867057673509287
1.1779081133919844
1.1671554252199414
1.1564027370478984
1.1466275659824048
1.1368523949169111
1.1280547409579669
1.1192570869990224
1.110459433040078
1.1006842619745845
1.0909090909090908
1.0811339198435972
1.0762463343108504
1.072336265884653
1.067448680351906
1.064516129032258
1.0635386119257086
1.0625610948191593
1.0625610948191593
1.0625610948191593
1.0625610948191593
1.0635386119257086
1.0635386119257086
1.0625610948191593
1.0606060606060606
1.0596285434995112
1.0586510263929618
1.0547409579667644
1.0557184750733135
1.0713587487781036
1.110459433040078
1.181818181818182
1.2883675464320623
1.4281524926686218
1.5943304007820136
1.7741935483870968
1.95405669599218
2.103616813294233
2.2277614858260018
2.346041055718475
2.44672531769306
2.5268817204301075
2.5855327468230693
2.625610948191593
2.652003910068426
2.6666666666666665
2.670576735092864
2.665689149560117
2.654936461388074
2.6392961876832843
2.619745845552297
2.5972629521016617
2.572825024437928
2.544477028347996
2.5141739980449658
2.4789833822091887
2.4389051808406648
2.393939393939394
2.3440860215053765
2.2873900293255134
2.2248289345063537
2.155425219941349
2.089931573802541
2.0234604105571847
1.945259042033236
1.8631476050830889
1.7820136852394917
1.7038123167155426
1.6304985337243405
1.565982404692082
1.5102639296187683
1.4633431085043989
1.426197458455523
1.396871945259042
1.3724340175953078
1.3548387096774193
1.3421309872922775
1.3284457478005864
1.313782991202346
1.2991202346041055
1.284457478005865
1.2688172043010753
1.2512218963831867
1.2336265884652982
1.2179863147605083
1.203323558162268
1.1867057673509287
1.173998044965787
1.164222873900293
1.1515151515151516
1.1378299120234605
1.1241446725317692
1.1094819159335287
1.0948191593352885
1.0811339198435972
1.0684261974584557
1.056695992179863
1.0449657869012707
1.0332355816226784
1.021505376344086
1.0156402737047898
1.0127077223851415
1.0068426197458455
1.0009775171065494
0.9941348973607038
0.9872922776148584
0.9804496578690128
0.9745845552297164
0.9716520039100685
0.9706744868035192
0.9706744868035192
0.9726295210166178
0.978494623655914
0.9853372434017597
0.9902248289345064
0.9951124144672532
0.9990224828934506
1.0009775171065494
1.0009775171065494
0.9990224828934506
0.9960899315738024
0.9960899315738024
1.0058651026392962
1.0342130987292275
1.0899315738025417
1.1612903225806452
1.2551319648093842
1.3900293255131966
1.5532746823069403
1.7331378299120237
1.916911045943304
2.09188660801564
2.2482893450635384
2.380254154447703
2.4858260019550342
2.5669599217986314
2.624633431085044
2.6578690127077222
2.675464320625611
2.686217008797654
2.6911045943304006
2.6901270772238512
2.684261974584555
2.673509286412512
2.6578690127077222
2.6392961876832843
2.618768328445748
2.595307917888563
2.56891495601173
2.536656891495601
2.5034213098729228
2.4672531769305963
2.4222873900293256
2.3685239491691106
2.3059628543499517
2.2346041055718477
2.158357771260997
2.0791788856304985
1.9990224828934504
1.920821114369501
1.8484848484848484
1.7849462365591398
1.7360703812316716
1.6979472140762464
1.6627565982404693
1.6334310850439884
1.6099706744868034
1.5923753665689149
1.5777126099706744
1.5669599217986314
1.5581622678396871
1.5483870967741935
1.5376344086021505
1.5268817204301075
1.517106549364614
1.5102639296187683
1.504398826979472
1.4975562072336266
1.4897360703812317
1.4809384164222874
1.4711632453567938
1.458455522971652
1.4467253176930597
1.435972629521017
1.4242424242424243
1.412512218963832
1.4007820136852396
1.3919843597262953
1.3851417399804498
1.3763440860215057
1.367546432062561
1.359726295210166
1.3519061583577712
1.3440860215053765
1.33822091886608
1.3333333333333333
1.3304007820136852
1.3294232649071358
1.3284457478005864
1.3294232649071358
1.3313782991202343
1.3313782991202343
1.3313782991202343
1.332355816226784
1.3333333333333333
1.3333333333333333
1.3333333333333333
1.3333333333333333
1.332355816226784
1.3304007820136852
1.3479960899315735
1.3743890518084063
1.388074291300098
1.393939393939394
1.3958944281524928
1.4007820136852396
1.4164222873900294
1.4545454545454546
1.5249266862170088
1.6334310850439884
1.7790811339198436
1.9530791788856303
2.1436950146627565
2.337243401759531
2.498533724340176
2.631476050830889
2.758553274682307
2.8670576735092865
2.9530791788856305
3.0146627565982405
3.0547409579667644
3.0762463343108504
3.0821114369501466
3.075268817204301
3.060606060606061
3.040078201368524
3.0146627565982405
2.9872922776148583
2.9579667644183774
2.9257086999022484
2.8914956011730206
2.854349951124145
2.812316715542522
2.763440860215054
2.710654936461388
2.6510263929618767
2.582600195503421
2.506353861192571
2.4222873900293256
2.3421309872922778
2.264907135874878
2.1788856304985336
2.090909090909091
2.006842619745845
1.9305962854349952
1.8631476050830889
1.804496578690127
1.7546432062561097
1.7135874877810362
1.6793743890518085
1.651026392961877
1.6285434995112416
1.6129032258064515
1.5992179863147604
1.58455522971652
1.5679374389051808
1.5483870967741935
1.5288367546432062
1.509286412512219
1.490713587487781
1.4731182795698925
1.456500488758553
1.439882697947214
1.4242424242424243
1.412512218963832
1.4037145650048877
1.391006842619746
1.3763440860215057
1.3607038123167154
1.3440860215053765
1.3264907135874875
1.3098729227761483
1.2932551319648091
1.2776148582600195
1.262952101661779
1.2473118279569892
1.23069403714565
1.2189638318670577
1.2111436950146628
1.203323558162268
1.2013685239491692
1.2140762463343109
1.2512218963831867
1.3186705767350928
1.4222873900293256
1.560117302052786
1.7253176930596286
1.902248289345064
2.078201368523949
2.2238514173998043
2.343108504398827
2.4545454545454546
2.547409579667644
2.6177908113391983
2.668621700879765
2.701857282502444
2.720430107526881
2.7262952101661777
2.7223851417399803
2.7116324535679373
2.6940371456500487
2.6725317693059627
2.6480938416422286
2.621700879765396
2.590420332355816
2.5542521994134897
2.512218963831867
2.466275659824047
2.4144672531769307
2.3548387096774195
2.286412512218964
2.2111436950146626
2.1300097751710654
2.0439882697947214
1.9657869012707725
1.8934506353861196
1.81524926686217
1.7390029325513197
1.6686217008797657
1.607038123167155
1.555229716520039
1.5141739980449658
1.4819159335288368
1.455522971652004
1.4330400782013686
1.41544477028348
1.4007820136852396
1.391006842619746
1.3822091886608017
1.370478983382209
1.356793743890518
1.343108504398827
1.3284457478005864
1.3147605083088951
1.300097751710655
1.2834799608993157
1.267839687194526
1.2590420332355816
1.2619745845552297
1.278592375366569
1.3118279569892473
1.3714565004887584
1.4594330400782014
1.5718475073313782
1.7018572825024438
1.8406647116324533
1.975562072336266
2.0987292277614857
2.2023460410557183
2.2825024437927666
2.3411534701857284
2.378299120234604
2.396871945259042
2.39980449657869
2.3919843597262958
2.372434017595308
2.3440860215053765
2.304985337243402
2.2561094819159337
2.198435972629521
2.132942326490713
2.0625610948191597
1.988269794721408
1.9130009775171064
1.847507331378299
1.7869012707722385
1.721407624633431
1.6578690127077225
1.6011730205278591
1.5542521994134897
1.5190615835777126
1.4965786901270772
1.4848484848484849
1.479960899315738
1.4809384164222874
1.4868035190615836
1.495601173020528
1.5034213098729228
1.5102639296187683
1.5151515151515151
1.5190615835777126
1.520039100684262
1.5180840664711632
1.5131964809384164
1.5073313782991202
1.499511241446725
1.490713587487781
1.4819159335288368
1.4721407624633431
1.466275659824047
1.4613880742913
1.4545454545454546
1.4467253176930597
1.4379276637341154
1.4301075268817205
1.423264907135875
1.4173998044965788
1.412512218963832
1.4086021505376345
1.404692082111437
1.401759530791789
1.4007820136852396
1.4007820136852396
1.4007820136852396
1.4027370478983383
1.4056695992179864
1.4086021505376345
1.4105571847507332
1.412512218963832
1.4164222873900294
1.4203323558162269
1.4222873900293256
1.4213098729227762
1.4164222873900294
1.412512218963832
1.409579667644184
1.409579667644184
1.4252199413489737
1.4701857282502444
1.5542521994134897
1.683284457478006
1.8543499511241448
2.0557184750733137
2.270772238514174
2.482893450635386
2.677419354838709
2.8260019550342133
2.9374389051808407
3.034213098729228
3.10850439882698
3.160312805474096
3.1915933528836757
3.2052785923753664
3.2052785923753664
3.193548387096774
3.172043010752688
3.1436950146627565
3.110459433040078
3.0733137829912023
3.034213098729228
2.994134897360704
2.951124144672532
2.905180840664712
2.854349951124145
2.7966764418377323
2.730205278592375
2.654936461388074
2.570869990224829
2.479960899315738
2.3822091886608017
2.281524926686217
2.1925708699902247
2.113391984359726
2.0332355816226784
1.956989247311828
1.889540566959922
1.782991202346041
1.66177908113392
1.587487781036168
1.5395894428152492
1.504398826979472
1.4750733137829912
1.4486803519061584
1.4252199413489737
1.4066471163245358
1.391006842619746
1.3734115347018572
1.3548387096774193
1.335288367546432
1.3157380254154447
1.2971652003910068
1.2756598240469208
1.2531769305962854
1.23069403714565
1.2072336265884651
1.1857282502443791
1.1700879765395895
1.1573802541544478
1.141739980449658
1.126099706744868
1.1094819159335287
1.0928641251221896
1.0772238514173995
1.06158357771261
1.0469208211143697
0.9257086999022482
0.9247311827956988
0.9217986314760508
0.916911045943304
0.9159335288367546
0.919843597262952
0.9345063538611924
0.9736070381231672
1.0478983382209188
1.163245356793744
1.321603128054741
1.5151515151515151
1.7302052785923754
1.9521016617790807
2.163245356793744
2.3528836754643208
2.495601173020528
2.60019550342131
2.6911045943304006
2.7614858260019552
2.811339198435973
2.843597262952102
2.86217008797654
2.8690127077223853
2.8670576735092865
2.8582600195503423
2.8426197458455524
2.823069403714565
2.7996089931573804
2.7722385141739982
2.740957966764418
2.705767350928641
2.6666666666666665
2.6207233626588464
2.567937438905181
2.5083088954056696
2.4389051808406648
2.361681329423265
2.27761485826002
2.1867057673509285
2.089931573802541
2.002932551319648
1.921798631476051
1.833822091886608
1.7468230694037146
1.664711632453568
1.5923753665689149
1.5298142717497556
1.478005865102639
1.435972629521017
1.401759530791789
1.3743890518084063
1.3528836754643203
1.3343108504398826
1.3225806451612905
1.3128054740957966
1.3010752688172045
1.289345063538612
1.2766373411534702
1.2639296187683284
1.2512218963831867
1.238514173998045
1.2267839687194526
1.2160312805474096
1.2052785923753666
1.1945259042033236
1.1857282502443791
1.1788856304985338
1.1700879765395895
1.1593352883675463
1.147605083088954
1.1368523949169111
1.1270772238514175
1.1202346041055715
1.115347018572825
1.110459433040078
1.10752688172043
1.1065493646138806
1.1055718475073313
1.10752688172043
1.1114369501466277
1.1133919843597262
1.1143695014662756
1.1143695014662756
1.115347018572825
1.1163245356793745
1.118279569892473
1.1192570869990224
1.1192570869990224
1.121212121212121
1.1231671554252198
1.1280547409579669
1.133919843597263
1.1407624633431086
1.147605083088954
1.1534701857282503
1.1573802541544478
1.1612903225806452
1.163245356793744
1.1622678396871946
1.160312805474096
1.1612903225806452
1.173998044965787
1.2082111436950147
1.2590420332355816
1.335288367546432
1.4535679374389052
1.608993157380254
1.793743890518084
1.9931573802541545
2.1925708699902247
2.377321603128055
2.5386119257087
2.6715542521994133
2.7751710654936463
2.8514173998044967
2.8963831867057674
2.919843597262952
2.9345063538611926
2.940371456500489
2.93841642228739
2.929618768328446
2.913978494623656
2.89345063538612
2.8690127077223853
2.8406647116324537
2.809384164222874
2.7751710654936463
2.7390029325513194
2.6989247311827955
2.6529814271749754
2.60019550342131
2.539589442815249
2.469208211143695
2.391006842619746
2.3059628543499517
2.2140762463343107
2.120234604105572
2.0283479960899315
1.943304007820137
1.8670576735092863
1.8054740957966764
1.7546432062561097
1.70772238514174
1.667644183773216
1.6344086021505375
1.606060606060606
1.5826001955034212
1.563049853372434
1.544477028347996
1.5278592375366569
1.512218963831867
1.4946236559139785
1.478983382209189
1.4643206256109482
1.447702834799609
1.4301075268817205
1.4134897360703813
1.3958944281524928
1.3763440860215057
1.3548387096774193
1.3343108504398826
1.313782991202346
1.2942326490713587
1.2756598240469208
1.260019550342131
1.249266862170088
1.2404692082111437
1.23069403714565
1.2209188660801564
1.2111436950146628
1.2013685239491692
1.1915933528836755
1.181818181818182
1.1720430107526882
1.1622678396871946
1.152492668621701
1.142717497556207
1.1368523949169111
1.1329423264907137
1.1270772238514175
1.121212121212121
1.118279569892473
1.1163245356793745
1.115347018572825
1.115347018572825
1.115347018572825
1.115347018572825
1.115347018572825
1.1163245356793745
1.1173020527859236
1.1192570869990224
1.1202346041055715
1.1173020527859236
1.1124144672531768
1.10752688172043
1.1094819159335287
1.1290322580645162
1.176930596285435
1.2619745845552297
1.388074291300098
1.552297165200391
1.7605083088954057
1.9608993157380252
2.132942326490713
2.3088954056695994
2.4701857282502444
2.606060606060606
2.713587487781036
2.795698924731183
2.854349951124145
2.8914956011730206
2.913000977517106
2.920821114369501
2.917888563049853
2.9071358748778104
2.889540566959922
2.8670576735092865
2.8426197458455524
2.81622678396872
2.787878787878788
2.755620723362659
2.720430107526881
2.6803519061583576
2.634408602150537
2.581622678396872
2.5219941348973607
2.4545454545454546
2.388074291300098
2.3196480938416424
2.239491691104594
2.1524926686217007
2.06158357771261
1.9696969696969695
1.8807429130009776
1.7976539589442817
1.7243401759530792
1.6598240469208212
1.6050830889540566
1.560117302052786
1.5249266862170088
1.500488758553275
1.4809384164222874
1.4613880742913
1.4418377321603129
1.4222873900293256
1.4027370478983383
1.383186705767351
1.364613880742913
1.3440860215053765
1.3225806451612905
1.3020527859237536
1.2825024437927663
1.2668621700879763
1.2531769305962854
1.2365591397849462
1.2189638318670577
1.2003910068426198
1.181818181818182
1.163245356793744
1.1436950146627567
1.1251221896383188
1.1085043988269794
1.0918866080156402
1.075268817204301
1.0596285434995112
1.0488758553274682
1.0420332355816226
1.0332355816226784
1.024437927663734
1.0156402737047898
1.007820136852395
1.0009775171065494
0.9951124144672532
0.9902248289345064
0.9853372434017597
0.9804496578690128
0.9765395894428152
0.9775171065493646
0.981427174975562
0.9833822091886608
0.9843597262952102
0.9853372434017597
0.9882697947214076
0.9912023460410556
0.9931573802541545
0.9921798631476052
0.9882697947214076
0.9833822091886608
0.9794721407624634
0.9863147605083088
1.0058651026392962
1.04594330400782
1.1202346041055715
1.2326490713587488
1.383186705767351
1.563049853372434
1.761485826001955
1.9657869012707725
2.160312805474096
2.334310850439883
2.4819159335288368
2.601173020527859
2.6832844574780057
2.73802541544477
2.782013685239492
2.814271749755621
2.835777126099707
2.8475073313782997
2.8514173998044967
2.8475073313782997
2.8377321603128056
2.823069403714565
2.803519061583578
2.780058651026393
2.7536656891495603
2.724340175953079
2.69208211143695
2.653958944281525
2.6099706744868034
2.5591397849462365
2.5004887585532747
2.434017595307918
2.3597262952101663
2.278592375366569
2.1925708699902247
2.1055718475073317
2.021505376344086
1.949169110459433
1.8885630498533723
1.8299120234604105
1.7781036168132942
1.7341153470185728
1.6989247311827955
1.6715542521994136
1.6500488758553276
1.6344086021505375
1.6217008797653958
1.6109481915933528
1.6001955034213098
1.5913978494623655
1.5835777126099706
1.5728250244379276
1.5610948191593352
1.547409579667644
1.5317693059628543
1.5180840664711632
1.5063538611925709
1.495601173020528
1.4848484848484849
1.4750733137829912
1.4643206256109482
1.452590420332356
1.4437927663734116
1.4349951124144673
1.423264907135875
1.412512218963832
1.4027370478983383
1.3949169110459434
1.388074291300098
1.3812316715542523
1.3743890518084063
1.367546432062561
1.3616813294232648
1.3577712609970674
1.3558162267839686
1.3558162267839686
1.3548387096774193
1.3528836754643203
1.3519061583577712
1.3519061583577712
1.3519061583577712
