ppg
2.7673509286412514
2.687194525904203
2.603128054740958
2.50733137829912
2.403714565004888
2.2952101661779083
2.182795698924731
2.067448680351906
1.9501466275659824
1.83088954056696
1.710654936461388
1.5923753665689149
1.478005865102639
1.3841642228739004
1.3049853372434017
1.2267839687194526
1.1583577712609971
1.1055718475073313
1.0703812316715542
1.053763440860215
1.0557184750733135
1.072336265884653
1.1006842619745845
1.1378299120234605
1.1788856304985338
1.2218963831867058
1.2609970674486803
1.2961876832844574
1.3304007820136852
1.359726295210166
1.3822091886608017
1.3978494623655917
1.4056695992179864
1.4056695992179864
1.3988269794721409
1.3851417399804498
1.3655913978494625
1.3421309872922775
1.3206256109481915
1.2991202346041055
1.2727272727272727
1.2434017595307918
1.2130987292277615
1.1798631476050832
1.144672531769306
1.1094819159335287
1.0791788856304985
1.0606060606060606
1.0654936461388074
1.1065493646138806
1.1935483870967742
1.303030303030303
1.4428152492668622
1.6383186705767352
1.868035190615836
2.1114369501466275
2.347996089931574
2.558162267839687
2.730205278592375
2.8563049853372435
2.935483870967742
2.9716520039100685
2.970674486803519
2.9442815249266863
2.897360703812317
2.831867057673509
2.7517106549364616
2.66177908113392
2.5650048875855327
2.462365591397849
2.356793743890518
2.2482893450635384
2.136852394916911
2.0234604105571847
1.9071358748778104
1.804496578690127
1.7086999022482894
1.6041055718475072
1.4975562072336266
1.3958944281524928
1.303030303030303
1.2228739002932552
1.1583577712609971
1.1124144672531768
1.0850439882697946
1.0762463343108504
1.083088954056696
1.1036168132942326
1.130987292277615
1.164222873900293
1.203323558162268
1.2443792766373412
1.2854349951124144
1.3225806451612905
1.35386119257087
1.3792766373411536
1.3958944281524928
1.404692082111437
1.4056695992179864
1.3988269794721409
1.3890518084066472
1.3763440860215057
1.356793743890518
1.332355816226784
1.3040078201368523
1.273704789833822
1.2424242424242424
1.2111436950146628
1.1779081133919844
1.1436950146627567
1.10752688172043
1.0742913000977516
1.0488758553274682
1.0391006842619743
1.0518084066471165
1.0977517106549364
1.1896383186705768
1.3313782991202343
1.520039100684262
1.7448680351906158
1.9902248289345064
2.2355816226783967
2.4613880742913
2.6529814271749754
2.80058651026393
2.89345063538612
2.9423264907135875
2.961876832844575
2.952101661779081
2.9159335288367547
2.8582600195503423
2.7839687194525906
2.697947214076246
2.6041055718475072
2.504398826979472
2.40078201368524
2.294232649071359
2.185728250244379
2.088954056695992
1.9960899315738023
1.8914956011730208
1.7810361681329423
1.6686217008797657
1.5571847507331378
1.4506353861192571
1.3519061583577712
1.2649071358748778
1.1935483870967742
1.1397849462365592
1.1036168132942326
1.086021505376344
1.0840664711632453
1.093841642228739
1.1143695014662756
1.144672531769306
1.1808406647116323
1.2218963831867058
1.262952101661779
1.303030303030303
1.3391984359726294
1.3695014662756595
1.392961876832845
1.4086021505376345
1.418377321603128
1.4213098729227762
1.4173998044965788
1.4056695992179864
1.388074291300098
1.3655913978494625
1.3401759530791788
1.3118279569892473
1.281524926686217
1.2502443792766371
1.2179863147605083
1.18475073313783
1.155425219941349
1.1290322580645162
1.1006842619745845
1.0791788856304985
1.075268817204301
1.1036168132942326
1.1749755620723363
1.2961876832844574
1.466275659824047
1.678396871945259
1.916911045943304
2.161290322580645
2.3929618768328447
2.5747800586510263
2.710654936461388
2.8260019550342133
2.905180840664712
2.945259042033236
2.949169110459433
2.921798631476051
2.8699902248289346
2.7996089931573804
2.7155425219941347
2.6236559139784945
2.5249266862170088
2.4330400782013686
2.3440860215053765
2.2404692082111435
2.129032258064516
2.016617790811339
1.903225806451613
1.7888563049853372
1.675464320625611
1.5650048875855327
1.4604105571847508
1.364613880742913
1.2805474095796676
1.2101661779081134
1.1622678396871946
1.130987292277615
1.1114369501466277
1.104594330400782
1.1114369501466277
1.1290322580645162
1.155425219941349
1.1886608015640274
1.2258064516129032
1.262952101661779
1.2981427174975562
1.3294232649071358
1.3548387096774193
1.375366568914956
1.3900293255131966
1.3998044965786902
1.401759530791789
1.396871945259042
1.3861192570869991
1.3685239491691104
1.346041055718475
1.3196480938416422
1.2903225806451613
1.2590420332355816
1.2258064516129032
1.198435972629521
1.173998044965787
1.1436950146627567
1.110459433040078
1.0762463343108504
1.0488758553274682
1.035190615835777
1.0478983382209188
1.0987292277614855
1.1974584555229717
1.3479960899315735
1.544477028347996
1.739980449657869
1.9364613880742916
2.161290322580645
2.383186705767351
2.578690127077224
2.735092864125122
2.8455522971652005
2.9100684261974585
2.9335288367546437
2.920821114369501
2.878787878787879
2.81622678396872
2.7370478983382207
2.6559139784946235
2.572825024437928
2.4780058651026398
2.376344086021505
2.270772238514174
2.1622678396871944
2.0498533724340176
1.935483870967742
1.8191593352883677
1.7038123167155426
1.590420332355816
1.4809384164222874
1.391006842619746
1.3147605083088951
1.2394916911045943
1.173998044965787
1.1231671554252198
1.0879765395894427
1.0703812316715542
1.0684261974584557
1.0811339198435972
1.104594330400782
1.1368523949169111
1.173998044965787
1.2140762463343109
1.2502443792766371
1.2834799608993157
1.3147605083088951
1.3421309872922775
1.364613880742913
1.3792766373411536
1.3870967741935485
1.3870967741935485
1.380254154447703
1.367546432062561
1.348973607038123
1.324535679374389
1.303030303030303
1.281524926686217
1.2541544477028348
1.2238514173998043
1.1915933528836755
1.1583577712609971
1.1241446725317692
1.0879765395894427
1.0547409579667644
1.0312805474095796
1.0254154447702837
1.0498533724340176
1.099706744868035
1.1837732160312806
1.321603128054741
1.5073313782991202
1.7311827956989247
1.9745845552297163
2.2160312805474094
2.436950146627566
2.622678396871945
2.764418377321604
2.859237536656892
2.90811339198436
2.9159335288367547
2.8944281524926687
2.850439882697948
2.7859237536656893
2.705767350928641
2.613880742913001
2.5141739980449658
2.409579667644184
2.302052785923754
2.1915933528836757
2.0791788856304985
1.964809384164223
1.8484848484848484
1.7468230694037146
1.6529814271749756
1.5503421309872922
1.4467253176930597
1.348973607038123
1.2609970674486803
1.1857282502443791
1.1270772238514175
1.086021505376344
1.06158357771261
1.053763440860215
1.0606060606060606
1.0801564027370478
1.1055718475073313
1.1358748778103618
1.1710654936461389
1.2082111436950147
1.2443792766373412
1.2776148582600195
1.305962854349951
1.3284457478005864
1.3450635386119256
1.35386119257087
1.356793743890518
1.3528836754643203
1.346041055718475
1.3362658846529814
1.3176930596285434
1.2942326490713587
1.2658846529814272
1.2355816226783969
1.2043010752688172
1.1720430107526882
1.1397849462365592
1.1065493646138806
1.072336265884653
1.0371456500488758
1.0058651026392962
0.9853372434017597
0.981427174975562
0.9980449657869012
1.050830889540567
1.1495601173020529
1.2991202346041055
1.4946236559139785
1.7243401759530792
1.9716520039100685
2.2140762463343107
2.434017595307918
2.6158357771261
2.740957966764418
2.8181818181818183
2.866080156402737
2.8797653958944283
2.86217008797654
2.817204301075269
2.750733137829912
2.6695992179863146
2.576735092864125
2.4760508308895406
2.36950146627566
2.259042033235582
2.145650048875855
2.0439882697947214
1.9472140762463344
1.8377321603128052
1.7233626588465298
1.607038123167155
1.4926686217008798
1.3822091886608017
1.2805474095796676
1.1906158357771262
1.115347018572825
1.0576735092864125
1.018572825024438
1.0
0.9980449657869012
1.007820136852395
1.0312805474095796
1.064516129032258
1.1055718475073313
1.1505376344086022
1.1964809384164223
1.2404692082111437
1.2795698924731185
1.313782991202346
1.3401759530791788
1.3587487781036167
1.370478983382209
1.3763440860215057
1.3743890518084063
1.3655913978494625
1.3499511241446724
1.3284457478005864
1.3020527859237536
1.2717497556207231
1.2394916911045943
1.206256109481916
1.1730205278592376
1.1397849462365592
1.1114369501466277
1.086021505376344
1.0547409579667644
1.0224828934506354
0.9941348973607038
0.978494623655914
0.9872922776148584
1.0332355816226784
1.126099706744868
1.270772238514174
1.4633431085043989
1.6920821114369502
1.9393939393939397
2.155425219941349
2.3411534701857284
2.5239491691104594
2.678396871945259
2.792766373411535
2.863147605083089
2.89247311827957
2.884652981427175
2.854349951124145
2.803519061583578
2.7311827956989245
2.644183773216031
2.558162267839687
2.4701857282502444
2.3704789833822093
2.2629521016617797
2.150537634408602
2.034213098729228
1.9149560117302051
1.7947214076246334
1.675464320625611
1.5581622678396871
1.4467253176930597
1.343108504398827
1.2512218963831867
1.1827956989247312
1.133919843597263
1.093841642228739
1.0684261974584557
1.0586510263929618
1.0654936461388074
1.086021505376344
1.118279569892473
1.1583577712609971
1.2023460410557183
1.2473118279569892
1.2903225806451613
1.3264907135874875
1.3577712609970674
1.3841642228739004
1.404692082111437
1.4173998044965788
1.423264907135875
1.4213098729227762
1.412512218963832
1.3978494623655917
1.3773216031280548
1.3519061583577712
1.3235581622678396
1.2932551319648091
1.267839687194526
1.2443792766373412
1.2160312805474096
1.1857282502443791
1.1534701857282503
1.1202346041055715
1.0879765395894427
1.0606060606060606
1.0469208211143697
1.0586510263929618
1.10752688172043
1.203323558162268
1.321603128054741
1.4682306940371457
1.6695992179863148
1.903225806451613
2.147605083088954
2.3812316715542523
2.5855327468230693
2.748778103616813
2.866080156402737
2.936461388074292
2.963831867057673
2.95405669599218
2.9149560117302054
2.860215053763441
2.792766373411535
2.70772238514174
2.611925708699902
2.5083088954056696
2.39980449657869
2.2883675464320627
2.1739980449657867
2.0576735092864125
1.9393939393939397
1.8211143695014664
1.7018572825024438
1.5992179863147604
1.5073313782991202
1.4105571847507332
1.3176930596285434
1.2355816226783969
1.1681329423264908
1.1192570869990224
1.088954056695992
1.078201368523949
1.0840664711632453
1.104594330400782
1.1368523949169111
1.1720430107526882
1.2101661779081134
1.2531769305962854
1.2961876832844574
1.3362658846529814
1.3714565004887584
1.4007820136852396
1.423264907135875
1.4379276637341154
1.4437927663734116
1.4428152492668622
1.434017595307918
1.418377321603128
1.401759530791789
1.3841642228739004
1.359726295210166
1.3313782991202343
1.3010752688172045
1.2688172043010753
1.2365591397849462
1.203323558162268
1.1691104594330402
1.133919843597263
1.099706744868035
1.0713587487781036
1.056695992179863
1.06158357771261
1.0957966764418376
1.1710654936461389
1.295210166177908
1.4682306940371457
1.6823069403714566
1.9227761485826005
2.16911045943304
2.401759530791789
2.6050830889540566
2.766373411534702
2.881720430107527
2.946236559139785
2.9696969696969697
2.9657869012707723
2.935483870967742
2.8826979472140764
2.811339198435973
2.727272727272727
2.632453567937439
2.5317693059628543
2.426197458455523
2.317693059628544
2.207233626588465
2.10752688172043
2.0127077223851417
1.906158357771261
1.7947214076246334
1.6813294232649072
1.5708699902248289
1.4652981427174976
1.3685239491691104
1.284457478005865
1.2150537634408602
1.1622678396871946
1.1270772238514175
1.110459433040078
1.1085043988269794
1.1192570869990224
1.1407624633431086
1.1710654936461389
1.2082111436950147
1.2473118279569892
1.2873900293255132
1.3255131964809383
1.359726295210166
1.3890518084066472
1.4115347018572826
1.426197458455523
1.4349951124144673
1.4379276637341154
1.4330400782013686
1.4213098729227762
1.4037145650048877
1.3812316715542523
1.3548387096774193
1.3255131964809383
1.2942326490713587
1.262952101661779
1.23069403714565
1.1974584555229717
1.163245356793744
1.1348973607038124
1.110459433040078
1.0840664711632453
1.064516129032258
1.064516129032258
1.096774193548387
1.1720430107526882
1.2981427174975562
1.4731182795698925
1.6881720430107527
1.9286412512218964
2.174975562072336
2.380254154447703
2.547409579667644
2.701857282502444
2.825024437927664
2.9071358748778104
2.948191593352884
2.9530791788856305
2.9257086999022484
2.873900293255132
2.8044965786901277
2.720430107526881
2.627565982404692
2.5268817204301075
2.4330400782013686
2.3421309872922778
2.239491691104594
2.1309872922776147
2.0175953079178885
1.900293255131965
1.7820136852394917
1.6637341153470186
1.5483870967741935
1.4389051808406648
1.33822091886608
1.249266862170088
1.1837732160312806
1.1378299120234605
1.1006842619745845
1.0772238514173995
1.0703812316715542
1.0801564027370478
1.1036168132942326
1.1368523949169111
1.176930596285435
1.2209188660801564
1.2649071358748778
1.3069403714565004
1.3440860215053765
1.3734115347018572
1.396871945259042
1.414467253176931
1.426197458455523
1.43108504398827
1.4281524926686218
1.418377321603128
1.4037145650048877
1.383186705767351
1.3577712609970674
1.3304007820136852
1.3010752688172045
1.2756598240469208
1.2531769305962854
1.2258064516129032
1.1945259042033236
1.160312805474096
1.1251221896383188
1.0928641251221896
1.0713587487781036
1.0703812316715542
1.1016617790811338
1.176930596285435
1.303030303030303
1.478005865102639
1.6598240469208212
1.8514173998044965
2.0733137829912023
2.2981427174975564
2.5083088954056696
2.686217008797654
2.820136852394917
2.909090909090909
2.95405669599218
2.959921798631476
2.9345063538611926
2.8826979472140764
2.819159335288368
2.7468230694037143
2.659824046920821
2.5640273704789838
2.462365591397849
2.355816226783969
2.24633431085044
2.133919843597263
2.0195503421309877
1.903225806451613
1.7869012707722385
1.6705767350928642
1.5562072336265884
1.4604105571847508
1.3773216031280548
1.2942326490713587
1.2189638318670577
1.1564027370478984
1.1114369501466277
1.0850439882697946
1.0762463343108504
1.083088954056696
1.1036168132942326
1.133919843597263
1.1720430107526882
1.2101661779081134
1.24633431085044
1.284457478005865
1.321603128054741
1.35386119257087
1.3812316715542523
1.4007820136852396
1.412512218963832
1.4164222873900294
1.412512218963832
1.401759530791789
1.3851417399804498
1.3626588465298142
1.3421309872922775
1.3225806451612905
1.2971652003910068
1.2688172043010753
1.238514173998045
1.2072336265884651
1.173998044965787
1.1397849462365592
1.1055718475073313
1.0742913000977516
1.0547409579667644
1.056695992179863
1.0801564027370478
1.1358748778103618
1.2394916911045943
1.392961876832845
1.5923753665689149
1.8240469208211143
2.070381231671554
2.3098729227761488
2.5249266862170088
2.701857282502444
2.832844574780059
2.916911045943304
2.956011730205278
2.9589442815249267
2.935483870967742
2.8885630498533725
2.823069403714565
2.7419354838709675
2.6510263929618767
2.552297165200391
2.4486803519061584
2.3421309872922778
2.233626588465298
2.12316715542522
2.010752688172043
1.911045943304008
1.8172043010752688
1.7126099706744868
1.6050830889540566
1.499511241446725
1.4007820136852396
1.3118279569892473
1.2365591397849462
1.176930596285435
1.1348973607038124
1.110459433040078
1.1036168132942326
1.1094819159335287
1.1270772238514175
1.1544477028347997
1.1896383186705768
1.2297165200391007
1.270772238514174
1.310850439882698
1.3470185728250244
1.3792766373411536
1.404692082111437
1.4222873900293256
1.4330400782013686
1.435972629521017
1.434017595307918
1.4281524926686218
1.414467253176931
1.3949169110459434
1.370478983382209
1.3421309872922775
1.3118279569892473
1.2805474095796676
1.2482893450635386
1.2160312805474096
1.181818181818182
1.1466275659824048
1.1173020527859236
1.0928641251221896
1.0703812316715542
1.0625610948191593
1.0821114369501466
1.1407624633431086
1.249266862170088
1.4076246334310851
1.6109481915933528
1.8455522971652003
2.09188660801564
2.329423264907136
2.541544477028348
2.697947214076246
2.8054740957966766
2.887585532746823
2.9335288367546437
2.9442815249266863
2.9237536656891496
2.87683284457478
2.809384164222874
2.7282502443792764
2.6373411534701856
2.539589442815249
2.436950146627566
2.343108504398827
2.2521994134897363
2.150537634408602
2.043010752688172
1.9315738025415443
1.818181818181818
1.704789833822092
1.5933528836754642
1.4868035190615836
1.3890518084066472
1.303030303030303
1.23069403714565
1.173998044965787
1.1378299120234605
1.1192570869990224
1.1124144672531768
1.118279569892473
1.1368523949169111
1.164222873900293
1.198435972629521
1.2365591397849462
1.2766373411534702
1.3147605083088951
1.348973607038123
1.3782991202346042
1.401759530791789
1.418377321603128
1.4291300097751711
1.434017595307918
1.4320625610948192
1.423264907135875
1.4086021505376345
1.388074291300098
1.3626588465298142
1.3343108504398826
1.303030303030303
1.270772238514174
1.2375366568914956
1.2101661779081134
1.18475073313783
1.1544477028347997
1.1202346041055715
1.0879765395894427
1.0635386119257086
1.056695992179863
1.0801564027370478
1.144672531769306
1.2580645161290325
1.4213098729227762
1.6275659824046922
1.827956989247312
2.0234604105571847
2.2404692082111435
2.449657869012708
2.6285434995112413
2.766373411534702
2.859237536656892
2.90811339198436
2.916911045943304
2.89247311827957
2.841642228739003
2.7722385141739982
2.6881720430107525
2.6041055718475072
2.520039100684262
2.4242424242424243
2.321603128054741
2.21505376344086
2.1055718475073317
1.994134897360704
1.8807429130009776
1.7673509286412512
1.6549364613880744
1.5464320625610948
1.4437927663734116
1.3616813294232648
1.2942326490713587
1.23069403714565
1.1779081133919844
1.1397849462365592
1.1173020527859236
1.110459433040078
1.1173020527859236
1.1368523949169111
1.1652003910068427
1.1994134897360704
1.2375366568914956
1.2756598240469208
1.3098729227761483
1.3391984359726294
1.3665689149560116
1.3890518084066472
1.4056695992179864
1.41544477028348
1.418377321603128
1.4134897360703813
1.401759530791789
1.3841642228739004
1.3616813294232648
1.3343108504398826
1.3088954056695992
1.284457478005865
1.2541544477028348
1.2209188660801564
1.187683284457478
1.152492668621701
1.1163245356793745
1.0791788856304985
1.0449657869012707
1.0205278592375366
1.0146627565982405
1.0391006842619743
1.104594330400782
1.195503421309873
1.3186705767350928
1.4965786901270772
1.7145650048875856
1.9530791788856303
2.190615835777126
2.4086021505376345
2.590420332355816
2.729227761485826
2.820136852394917
2.866080156402737
2.8729227761485827
2.8514173998044967
2.8084066471163247
2.744868035190616
2.6666666666666665
2.576735092864125
2.4789833822091887
2.376344086021505
2.269794721407625
2.160312805474096
2.047898338220919
1.9335288367546437
1.818181818181818
1.7174975562072337
1.624633431085044
1.5239491691104594
1.4222873900293256
1.3264907135874875
1.2404692082111437
1.1681329423264908
1.1124144672531768
1.0733137829912025
1.0527859237536656
1.0488758553274682
1.0596285434995112
1.083088954056696
1.1114369501466277
1.1436950146627567
1.181818181818182
1.2228739002932552
1.2619745845552297
1.2981427174975562
1.3304007820136852
1.3558162267839686
1.3734115347018572
1.3841642228739004
1.388074291300098
1.3841642228739004
1.3773216031280548
1.367546432062561
1.348973607038123
1.3255131964809383
1.2981427174975562
1.2668621700879763
1.2346041055718475
1.2013685239491692
1.1671554252199414
1.133919843597263
1.099706744868035
1.064516129032258
1.0312805474095796
1.0087976539589445
0.9990224828934506
1.0068426197458455
1.0469208211143697
1.130987292277615
1.2639296187683284
1.4437927663734116
1.6608015640273706
1.900293255131965
2.1407624633431084
2.363636363636364
2.5532746823069403
2.687194525904203
2.774193548387097
2.832844574780059
2.857282502443793
2.849462365591398
2.8132942326490715
2.7536656891495603
2.677419354838709
2.5884652981427174
2.4916911045943304
2.388074291300098
2.2795698924731185
2.1681329423264906
2.067448680351906
1.9716520039100685
1.865102639296188
1.7526881720430108
1.6383186705767352
1.525904203323558
1.4193548387096775
1.3206256109481915
1.2346041055718475
1.1622678396871946
1.10752688172043
1.0703812316715542
1.0527859237536656
1.050830889540567
1.06158357771261
1.0840664711632453
1.115347018572825
1.1534701857282503
1.195503421309873
1.238514173998045
1.2795698924731185
1.3157380254154447
1.3470185728250244
1.3724340175953078
1.3900293255131966
1.401759530791789
1.4066471163245358
1.404692082111437
1.3958944281524928
1.3812316715542523
1.3607038123167154
1.3362658846529814
1.3088954056695992
1.278592375366569
1.24633431085044
1.2140762463343109
1.181818181818182
1.1544477028347997
1.1300097751710656
1.099706744868035
1.0684261974584557
1.0391006842619743
1.0205278592375366
1.0234604105571847
1.0606060606060606
1.141739980449658
1.2727272727272727
1.4516129032258065
1.6686217008797657
1.90811339198436
2.120234604105572
2.3069403714565007
2.49266862170088
2.6529814271749754
2.774193548387097
2.852394916911046
2.8885630498533725
2.887585532746823
2.855327468230694
2.798631476050831
2.724340175953079
2.636363636363636
2.550342130987292
2.463343108504399
2.3655913978494625
2.260997067448681
2.1515151515151514
2.038123167155425
1.9227761485826005
1.8064516129032255
1.6901270772238517
1.5757575757575757
1.466275659824047
1.3636363636363635
1.2727272727272727
1.2052785923753666
1.155425219941349
1.1143695014662756
1.0869990224828934
1.075268817204301
1.0791788856304985
1.0977517106549364
1.1280547409579669
1.166177908113392
1.2082111436950147
1.252199413489736
1.295210166177908
1.3313782991202343
1.3616813294232648
1.3890518084066472
1.409579667644184
1.423264907135875
1.4301075268817205
1.4291300097751711
1.4222873900293256
1.4076246334310851
1.3870967741935485
1.3626588465298142
1.3343108504398826
1.303030303030303
1.2756598240469208
1.2512218963831867
1.2218963831867058
1.1915933528836755
1.1593352883675463
1.1251221896383188
1.0918866080156402
1.06158357771261
1.043010752688172
1.0478983382209188
1.0869990224828934
1.1710654936461389
1.278592375366569
1.41544477028348
1.607038123167155
1.833822091886608
2.126099706744868
2.3851417399804498
2.5532746823069403
2.702834799608993
2.81622678396872
2.8885630498533725
2.919843597262952
2.9159335288367547
2.881720430107527
2.83088954056696
2.7673509286412514
2.6881720430107525
2.598240469208211
2.5004887585532747
2.3978494623655915
2.29227761485826
2.1837732160312804
2.072336265884653
1.9589442815249267
1.8435972629521016
1.7272727272727273
1.6275659824046922
1.5376344086021505
1.4428152492668622
1.3519061583577712
1.270772238514174
1.203323558162268
1.152492668621701
1.1202346041055715
1.104594330400782
1.104594330400782
1.118279569892473
1.1436950146627567
1.176930596285435
1.2111436950146628
1.24633431085044
1.284457478005865
1.321603128054741
1.3548387096774193
1.3822091886608017
1.4037145650048877
1.418377321603128
1.4252199413489737
1.4242424242424243
1.4164222873900294
1.401759530791789
1.3861192570869991
1.367546432062561
1.3421309872922775
1.3176930596285434
1.2942326490713587
1.2658846529814272
1.2355816226783969
1.203323558162268
1.1700879765395895
1.1358748778103618
1.1016617790811338
1.0733137829912025
1.0586510263929618
1.0625610948191593
1.093841642228739
1.1671554252199414
1.289345063538612
1.4604105571847508
1.672531769305963
1.911045943304008
2.157380254154448
2.3900293255131966
2.593352883675464
2.7546432062561097
2.8699902248289346
2.935483870967742
2.960899315738025
