ppg
1.732160312805474
1.732160312805474
1.729227761485826
1.7223851417399805
1.7116324535679377
1.6950146627565983
1.6774193548387095
1.6608015640273706
1.640273704789834
1.6148582600195502
1.5884652981427174
1.5620723362658846
1.5376344086021505
1.5141739980449658
1.490713587487781
1.4672531769305963
1.4467253176930597
1.4281524926686218
1.4115347018572826
1.3998044965786902
1.3900293255131966
1.3763440860215057
1.359726295210166
1.3421309872922775
1.324535679374389
1.3079178885630498
1.29227761485826
1.2776148582600195
1.262952101661779
1.2473118279569892
1.2316715542521994
1.219941348973607
1.2111436950146628
1.1994134897360704
1.1857282502443791
1.1720430107526882
1.160312805474096
1.1564027370478984
1.166177908113392
1.1974584555229717
1.2561094819159335
1.3470185728250244
1.469208211143695
1.6207233626588464
1.76930596285435
1.9188660801564028
2.09188660801564
2.2688172043010755
2.436950146627566
2.5865102639296187
2.7126099706744866
2.812316715542522
2.887585532746823
2.940371456500489
2.972629521016618
2.986314760508309
2.9853372434017595
2.972629521016618
2.9501466275659824
2.916911045943304
2.873900293255132
2.8211143695014664
2.7565982404692084
2.681329423264907
2.598240469208211
2.5083088954056696
2.4164222873900294
2.3255131964809386
2.2375366568914954
2.163245356793744
2.1006842619745845
2.0410557184750733
1.9902248289345064
1.948191593352884
1.9149560117302051
1.889540566959922
1.8729227761485825
1.86119257086999
1.8514173998044965
1.8406647116324533
1.827956989247312
1.81524926686217
1.801564027370479
1.782991202346041
1.7702834799608993
1.758553274682307
1.737047898338221
1.7116324535679377
1.683284457478006
1.6529814271749756
1.6207233626588464
1.5865102639296187
1.552297165200391
1.5161290322580645
1.4858260019550342
1.4613880742913
1.4349951124144673
1.4086021505376345
1.3822091886608017
1.356793743890518
1.3333333333333333
1.3128054740957966
1.2932551319648091
1.273704789833822
1.2561094819159335
1.2404692082111437
1.2297165200391007
1.2228739002932552
1.2150537634408602
1.2072336265884651
1.1994134897360704
1.1925708699902249
1.1857282502443791
1.176930596285435
1.1652003910068427
1.1534701857282503
1.1407624633431086
1.126099706744868
1.110459433040078
1.1006842619745845
1.0977517106549364
1.1006842619745845
1.118279569892473
1.160312805474096
1.2355816226783969
1.3470185728250244
1.4946236559139785
1.6705767350928642
1.866080156402737
2.069403714565005
2.267839687194526
2.43108504398827
2.5669599217986314
2.6989247311827955
2.814271749755621
2.9100684261974585
2.983382209188661
3.037145650048876
3.071358748778104
3.089931573802541
3.093841642228739
3.0840664711632453
3.0635386119257086
3.032258064516129
2.9931573802541545
2.946236559139785
2.8885630498533725
2.8181818181818183
2.7390029325513194
2.6529814271749754
2.563049853372434
2.4701857282502444
2.378299120234604
2.291300097751711
2.212121212121212
2.142717497556207
2.0879765395894427
2.0449657869012707
2.007820136852395
1.9765395894428155
1.9501466275659824
1.9286412512218964
1.9100684261974583
1.8934506353861196
1.87683284457478
1.8592375366568916
1.839687194525904
1.8191593352883677
1.8005865102639296
1.7820136852394917
1.7595307917888563
1.7341153470185728
1.7057673509286413
1.6744868035190617
1.6412512218963833
1.6080156402737047
1.5747800586510263
1.5405669599217986
1.5073313782991202
1.4760508308895406
1.4457478005865103
1.4193548387096775
1.396871945259042
1.3724340175953078
1.348973607038123
1.327468230694037
1.3079178885630498
1.289345063538612
1.2717497556207231
1.2570869990224829
1.2443792766373412
1.2326490713587488
1.2228739002932552
1.2179863147605083
1.2150537634408602
1.2082111436950147
1.198435972629521
1.187683284457478
1.1759530791788857
1.1622678396871946
1.1466275659824048
1.1300097751710656
1.115347018572825
1.1036168132942326
1.0977517106549364
1.104594330400782
1.1251221896383188
1.166177908113392
1.2375366568914956
1.343108504398827
1.4819159335288368
1.6480938416422288
1.833822091886608
2.029325513196481
2.2238514173998043
2.404692082111437
2.565982404692082
2.7038123167155423
2.801564027370479
2.8719452590420333
2.9315738025415445
2.975562072336266
3.003910068426197
3.018572825024438
3.018572825024438
3.005865102639296
2.9804496578690127
2.943304007820137
2.895405669599218
2.8377321603128056
2.768328445747801
2.696969696969697
2.622678396871945
2.5386119257087
2.450635386119257
2.361681329423265
2.275659824046921
2.1945259042033234
2.1221896383186705
2.060606060606061
2.0097751710654936
1.967741935483871
1.935483870967742
1.9130009775171064
1.8963831867057677
1.881720430107527
1.868035190615836
1.855327468230694
1.8406647116324533
1.8240469208211143
1.8054740957966764
1.7859237536656891
1.7634408602150538
1.7380254154447703
1.7096774193548387
1.6813294232649072
1.6578690127077225
1.6363636363636365
1.608993157380254
1.5796676441837731
1.547409579667644
1.5131964809384164
1.479960899315738
1.4467253176930597
1.414467253176931
1.3851417399804498
1.3577712609970674
1.332355816226784
1.313782991202346
1.2991202346041055
1.281524926686217
1.2649071358748778
1.2502443792766371
1.2375366568914956
1.227761485826002
1.2189638318670577
1.2101661779081134
1.2003910068426198
1.1906158357771262
1.1798631476050832
1.1671554252199414
1.1583577712609971
1.1515151515151516
1.141739980449658
1.130987292277615
1.1202346041055715
1.1085043988269794
1.099706744868035
1.1016617790811338
1.1221896383186705
1.1681329423264908
1.24633431085044
1.359726295210166
1.4848484848484849
1.624633431085044
1.7976539589442817
1.9872922776148585
2.1788856304985336
2.3626588465298144
2.5288367546432062
2.6715542521994133
2.788856304985337
2.8797653958944283
2.9442815249266863
2.986314760508309
3.0087976539589443
3.0127077223851417
3.003910068426197
2.986314760508309
2.9579667644183774
2.920821114369501
2.8729227761485827
2.814271749755621
2.745845552297165
2.6666666666666665
2.5777126099706744
2.4838709677419355
2.3900293255131966
2.30791788856305
2.2355816226783967
2.163245356793744
2.0977517106549364
2.0410557184750733
1.9951124144672527
1.9579667644183771
1.9296187683284456
1.90811339198436
1.8905180840664717
1.8748778103616808
1.8602150537634408
1.8455522971652003
1.8328445747800584
1.8201368523949168
1.8035190615835777
1.7849462365591398
1.7634408602150538
1.7380254154447703
1.7096774193548387
1.6813294232649072
1.6520039100684265
1.5962854349951123
1.5288367546432062
1.479960899315738
1.444770283479961
1.4173998044965788
1.3890518084066472
1.3607038123167154
1.332355816226784
1.3049853372434017
1.2776148582600195
1.2541544477028348
1.2336265884652982
1.2150537634408602
1.1964809384164223
1.1798631476050832
1.164222873900293
1.1544477028347997
1.1466275659824048
1.1358748778103618
1.1231671554252198
1.110459433040078
1.096774193548387
1.0821114369501466
1.0684261974584557
1.0547409579667644
1.040078201368524
1.0263929618768328
1.0175953079178883
1.0195503421309873
1.0342130987292275
1.0664711632453567
1.1251221896383188
1.2140762463343109
1.3343108504398826
1.4838709677419355
1.653958944281525
1.836754643206256
2.021505376344086
2.196480938416422
2.3548387096774195
2.4780058651026398
2.570869990224829
2.653958944281525
2.718475073313783
2.764418377321604
2.791788856304985
2.80058651026393
2.793743890518084
2.774193548387097
2.7419354838709675
2.696969696969697
2.6402737047898337
2.570869990224829
2.5004887585532747
2.4281524926686218
2.345063538611926
2.2551319648093844
2.1622678396871944
2.071358748778104
1.9853372434017595
1.9071358748778104
1.839687194525904
1.782991202346041
1.7390029325513197
1.7057673509286413
1.6842619745845553
1.6695992179863148
1.656891495601173
1.64613880742913
1.6373411534701858
1.6275659824046922
1.6158357771260996
1.6011730205278591
1.58455522971652
1.565982404692082
1.544477028347996
1.5190615835777126
1.490713587487781
1.466275659824047
1.4437927663734116
1.41544477028348
1.3841642228739004
1.3509286412512218
1.3176930596285434
1.284457478005865
1.252199413489736
1.2209188660801564
1.1906158357771262
1.1612903225806452
1.1329423264907137
1.110459433040078
1.093841642228739
1.075268817204301
1.0576735092864125
1.0410557184750733
1.0263929618768328
1.0146627565982405
1.0019550342130987
0.9902248289345064
0.978494623655914
0.9657869012707724
0.95405669599218
0.9423264907135877
0.9364613880742912
0.9335288367546432
0.9286412512218964
0.9227761485826002
0.916911045943304
0.9100684261974584
0.9032258064516128
0.8963831867057673
0.8924731182795699
0.8944281524926686
0.9081133919843596
0.9423264907135877
0.9912023460410556
1.06158357771261
1.166177908113392
1.3040078201368523
1.469208211143695
1.6500488758553276
1.8377321603128052
2.0205278592375366
2.189638318670577
2.3382209188660803
2.464320625610948
2.5640273704789838
2.638318670576735
2.684261974584555
2.7096774193548385
2.724340175953079
2.724340175953079
2.710654936461388
2.684261974584555
2.6451612903225805
2.593352883675464
2.5317693059628543
2.4613880742913
2.3812316715542523
2.294232649071359
2.21505376344086
2.139784946236559
2.058651026392962
1.9804496578690127
1.90811339198436
1.8455522971652003
1.7947214076246334
1.7556207233626588
1.7272727272727273
1.7096774193548387
1.7008797653958945
1.6959921798631477
1.694037145650049
1.6930596285434996
1.6911045943304008
1.6871945259042034
1.6803519061583578
1.6695992179863148
1.6559139784946235
1.6392961876832846
1.619745845552297
1.598240469208211
1.5757575757575757
1.5513196480938416
1.5249266862170088
1.5024437927663734
1.4848484848484849
1.4652981427174976
1.4467253176930597
1.4281524926686218
1.409579667644184
1.391006842619746
1.3734115347018572
1.3577712609970674
1.343108504398827
1.327468230694037
1.310850439882698
1.295210166177908
1.281524926686217
1.2717497556207231
1.2609970674486803
1.2512218963831867
1.2394916911045943
1.2267839687194526
1.2150537634408602
1.203323558162268
1.1925708699902249
1.1798631476050832
1.1681329423264908
1.1583577712609971
1.1534701857282503
1.152492668621701
1.152492668621701
1.160312805474096
1.1837732160312806
1.2326490713587488
1.3098729227761483
1.4193548387096775
1.5610948191593352
1.7272727272727273
1.9090909090909087
2.0948191593352883
2.274682306940372
2.421309872922776
2.539589442815249
2.6529814271749754
2.7497556207233624
2.8260019550342133
2.881720430107527
2.916911045943304
2.9345063538611926
2.936461388074292
2.924731182795699
2.9012707722385143
2.865102639296188
2.822091886608016
2.771260997067449
2.708699902248289
2.635386119257087
2.5532746823069403
2.464320625610948
2.3714565004887587
2.278592375366569
2.189638318670577
2.10850439882698
2.0391006842619745
1.981427174975562
1.9364613880742916
1.9042033235581624
1.8826979472140764
1.865102639296188
1.8514173998044965
1.839687194525904
1.827956989247312
1.8162267839687196
1.8035190615835777
1.7888563049853372
1.7702834799608993
1.747800586510264
1.7243401759530792
1.7028347996089932
1.6813294232649072
1.6549364613880744
1.6265884652981428
1.5972629521016617
1.5650048875855327
1.5317693059628543
1.498533724340176
1.466275659824047
1.4349951124144673
1.404692082111437
1.375366568914956
1.3470185728250244
1.324535679374389
1.3069403714565004
1.2873900293255132
1.2942326490713587
1.3147605083088951
1.316715542521994
1.3118279569892473
1.3020527859237536
1.2903225806451613
1.2795698924731185
1.2697947214076246
1.2619745845552297
1.2580645161290325
1.2561094819159335
1.2512218963831867
1.24633431085044
1.2404692082111437
1.2336265884652982
1.2258064516129032
1.2150537634408602
1.2023460410557183
1.1886608015640274
1.1788856304985338
1.181818181818182
1.198435972629521
1.2326490713587488
1.2981427174975562
1.3978494623655917
1.530791788856305
1.6950146627565983
1.8807429130009776
2.0772238514174
2.272727272727273
2.455522971652004
2.618768328445748
2.758553274682307
2.870967741935484
2.9472140762463344
2.997067448680352
3.035190615835777
3.058651026392962
3.069403714565005
3.0664711632453567
3.050830889540567
3.0234604105571847
2.98435972629521
2.9345063538611926
2.874877810361681
2.8044965786901277
2.732160312805474
2.6559139784946235
2.567937438905181
2.4731182795698925
2.376344086021505
2.2825024437927666
2.1955034213098727
2.117302052785924
2.0498533724340176
1.994134897360704
1.948191593352884
1.9130009775171064
1.8875855327468232
1.869012707722385
1.8563049853372435
1.8455522971652003
1.8347996089931573
1.823069403714565
1.8103616813294232
1.796676441837732
1.7820136852394917
1.7644183773216031
1.7429130009775171
1.718475073313783
1.6920821114369502
1.6695992179863148
1.6471163245356797
1.619745845552297
1.5894428152492668
1.5591397849462365
1.5298142717497556
1.5034213098729228
1.47702834799609
1.452590420332356
1.4281524926686218
1.404692082111437
1.383186705767351
1.3626588465298142
1.348973607038123
1.3372434017595307
1.324535679374389
1.313782991202346
1.303030303030303
1.2913000977517106
1.278592375366569
1.267839687194526
1.2590420332355816
1.2512218963831867
1.2434017595307918
1.2346041055718475
1.2297165200391007
1.2258064516129032
1.2189638318670577
1.2101661779081134
1.198435972629521
1.1867057673509287
1.1749755620723363
1.166177908113392
1.1652003910068427
1.1788856304985338
1.2150537634408602
1.2805474095796676
1.3812316715542523
1.4926686217008798
1.6177908113391983
1.7781036168132942
1.9579667644183771
2.142717497556207
2.321603128054741
2.482893450635386
2.622678396871945
2.7370478983382207
2.8260019550342133
2.8905180840664717
2.9345063538611926
2.9550342130987293
2.959921798631476
2.9550342130987293
2.93841642228739
2.913000977517106
2.877810361681329
2.832844574780059
2.777126099706745
2.7126099706744866
2.641251221896383
2.5640273704789838
2.482893450635386
2.40078201368524
2.3284457478005867
2.2629521016617797
2.196480938416422
2.134897360703812
2.081133919843597
2.0361681329423265
2.0019550342130987
1.9775171065493649
1.9608993157380252
1.949169110459433
1.9403714565004888
1.9315738025415443
1.9227761485826005
1.913978494623656
1.902248289345064
1.8875855327468232
1.870967741935484
1.8523949169110456
1.8299120234604105
1.8054740957966764
1.7771260997067448
1.7458455522971652
1.7126099706744868
1.6793743890518085
1.6451612903225807
1.616813294232649
1.5933528836754642
1.5679374389051808
1.542521994134897
1.5161290322580645
1.490713587487781
1.466275659824047
1.4418377321603129
1.4193548387096775
1.3988269794721409
1.3792766373411536
1.3626588465298142
1.3528836754643203
1.3450635386119256
1.3343108504398826
1.321603128054741
1.3069403714565004
1.2913000977517106
1.2756598240469208
1.2619745845552297
1.249266862170088
1.2394916911045943
1.2297165200391007
1.2189638318670577
1.206256109481916
1.1974584555229717
1.1906158357771262
1.181818181818182
1.1749755620723363
1.1798631476050832
1.2052785923753666
1.2570869990224829
1.3411534701857282
1.457478005865103
1.603128054740958
1.7712609970674489
1.9521016617790807
2.1114369501466275
2.2551319648093844
2.4056695992179864
2.547409579667644
2.670576735092864
2.7722385141739982
2.850439882697948
2.906158357771261
2.941348973607038
2.9589442815249267
2.962854349951124
2.9550342130987293
2.936461388074292
2.909090909090909
2.873900293255132
2.8289345063538613
2.774193548387097
2.708699902248289
2.633431085043988
2.550342130987292
2.4613880742913
2.3714565004887587
2.2854349951124147
2.204301075268817
2.1309872922776147
2.070381231671554
2.021505376344086
1.9765395894428155
1.9403714565004888
1.9130009775171064
1.8934506353861196
1.878787878787879
1.868035190615836
1.8592375366568916
1.8504398826979471
1.839687194525904
1.825024437927664
1.8103616813294232
1.7947214076246334
1.7761485826001957
1.75366568914956
1.726295210166178
1.6959921798631477
1.6637341153470186
1.6314760508308896
1.5992179863147604
1.5669599217986314
1.5347018572825024
1.5034213098729228
1.4721407624633431
1.447702834799609
1.4252199413489737
1.4007820136852396
1.3773216031280548
1.35386119257087
1.3313782991202343
1.3118279569892473
1.2942326490713587
1.2805474095796676
1.267839687194526
1.2179863147605083
1.1495601173020529
1.1143695014662756
1.093841642228739
1.0772238514173995
1.06158357771261
1.0469208211143697
1.032258064516129
1.018572825024438
1.0058651026392962
0.9931573802541545
0.9794721407624634
0.9667644183773216
0.9560117302052786
0.9501466275659824
0.95405669599218
0.9706744868035192
1.0048875855327468
1.0654936461388074
1.1573802541544478
1.281524926686217
1.4330400782013686
1.607038123167155
1.7927663734115349
1.9794721407624636
2.156402737047898
2.315738025415445
2.436950146627566
2.5288367546432062
2.610948191593353
2.674486803519061
2.719452590420332
2.744868035190616
2.7536656891495603
2.747800586510264
2.7282502443792764
2.696969696969697
2.653958944281525
2.5992179863147604
2.532746823069404
2.4652981427174976
2.3949169110459434
2.312805474095797
2.2238514173998043
2.1309872922776147
2.0391006842619745
1.951124144672532
1.871945259042033
1.8025415444770283
1.7448680351906158
1.7008797653958945
1.6686217008797657
1.6480938416422288
1.6344086021505375
1.6226783968719452
1.6129032258064515
1.6021505376344083
1.5923753665689149
1.581622678396872
1.5698924731182795
1.555229716520039
1.5376344086021505
1.517106549364614
1.4926686217008798
1.4643206256109482
1.439882697947214
1.4173998044965788
1.3890518084066472
1.3577712609970674
1.324535679374389
1.2913000977517106
1.2580645161290325
1.2267839687194526
1.1964809384164223
1.1691104594330402
1.1436950146627567
1.1202346041055715
1.1036168132942326
1.0899315738025417
1.0742913000977516
1.056695992179863
1.0391006842619743
1.0234604105571847
1.0097751710654936
0.997067448680352
0.9853372434017597
0.9745845552297164
0.9638318670576737
0.9521016617790812
0.9393939393939394
0.9296187683284456
0.9208211143695014
0.9090909090909092
0.8973607038123167
0.8895405669599218
0.8875855327468231
0.8993157380254154
0.9325513196480938
0.9931573802541545
1.0850439882697946
1.2082111436950147
1.359726295210166
1.5063538611925709
1.6520039100684265
1.818181818181818
1.986314760508309
2.1436950146627565
2.2825024437927666
2.3978494623655915
2.487781036168133
2.5542521994134897
2.595307917888563
2.6158357771261
2.619745845552297
2.608993157380254
2.5865102639296187
2.555229716520039
2.5141739980449658
2.463343108504399
2.401759530791789
2.3284457478005867
2.24633431085044
2.158357771260997
2.069403714565005
1.9833822091886608
1.902248289345064
1.8318670576735088
1.7781036168132942
1.7380254154447703
1.7067448680351909
1.6852394916911049
1.6744868035190617
1.6735092864125125
1.6803519061583578
1.6901270772238517
1.7018572825024438
1.7135874877810362
1.721407624633431
1.7233626588465298
1.7204301075268815
1.715542521994135
1.70772238514174
1.6950146627565983
1.6774193548387095
1.656891495601173
1.6344086021505375
1.6080156402737047
1.5796676441837731
1.552297165200391
1.525904203323558
1.5024437927663734
1.479960899315738
1.4613880742913
1.444770283479961
1.426197458455523
1.4086021505376345
1.391006842619746
1.3734115347018572
1.3558162267839686
1.3391984359726294
1.324535679374389
1.3118279569892473
1.3010752688172045
1.2913000977517106
1.2825024437927663
1.2756598240469208
1.2697947214076246
1.2619745845552297
1.2531769305962854
1.241446725317693
1.2297165200391007
1.2179863147605083
1.2072336265884651
1.1964809384164223
1.1857282502443791
1.1749755620723363
1.1612903225806452
1.1505376344086022
1.141739980449658
1.1329423264907137
1.130987292277615
1.144672531769306
1.1827956989247312
1.2512218963831867
1.35386119257087
1.490713587487781
1.656891495601173
1.844574780058651
2.0410557184750733
2.2355816226783967
2.3958944281524928
2.529814271749756
2.6608015640273703
2.776148582600196
2.8699902248289346
2.940371456500489
2.988269794721408
3.01564027370479
3.026392961876833
3.0234604105571847
3.005865102639296
2.9775171065493646
2.9423264907135875
2.898338220918866
2.844574780058651
2.782991202346041
2.710654936461388
2.63049853372434
2.544477028347996
2.455522971652004
2.366568914956012
2.281524926686217
2.203323558162268
2.133919843597263
2.078201368523949
2.034213098729228
1.9960899315738023
1.9657869012707725
1.9423264907135875
1.9237536656891496
1.90811339198436
1.8944281524926687
1.8807429130009776
1.866080156402737
1.8494623655913975
1.8299120234604105
1.8064516129032255
1.7839687194525904
1.761485826001955
1.7360703812316716
1.70772238514174
1.6774193548387095
1.6471163245356797
1.6158357771260996
1.58455522971652
1.552297165200391
1.5190615835777126
1.4868035190615836
1.457478005865103
1.434017595307918
1.414467253176931
1.3919843597262953
1.3685239491691104
1.346041055718475
1.3235581622678396
1.300097751710655
1.2756598240469208
1.2502443792766371
1.224828934506354
1.2013685239491692
1.1798631476050832
1.160312805474096
1.1466275659824048
1.1348973607038124
1.121212121212121
1.10752688172043
1.1192570869990224
1.142717497556207
1.1495601173020529
1.1515151515151516
1.1593352883675463
1.1837732160312806
1.2326490713587488
1.310850439882698
1.4007820136852396
1.5083088954056696
1.6490713587487782
1.8093841642228736
1.978494623655914
2.144672531769306
2.297165200391007
2.4301075268817205
2.5405669599217986
2.625610948191593
2.687194525904203
2.7253176930596283
2.7438905180840663
2.7438905180840663
2.730205278592375
2.7067448680351904
2.6725317693059627
2.6285434995112413
2.575757575757576
2.5161290322580645
2.449657869012708
2.378299120234604
2.303030303030303
2.2248289345063537
2.145650048875855
2.075268817204301
2.0117302052785924
1.945259042033236
1.8826979472140764
1.8269794721407624
1.780058651026393
1.7429130009775171
1.715542521994135
1.6959921798631477
1.6823069403714566
1.6715542521994136
1.6627565982404693
1.6529814271749756
1.6451612903225807
1.6363636363636365
1.624633431085044
1.6109481915933528
1.5943304007820136
1.5757575757575757
1.5542521994134897
1.5317693059628543
1.5083088954056696
1.482893450635386
1.455522971652004
1.4281524926686218
1.404692082111437
1.3841642228739004
1.359726295210166
1.3343108504398826
1.310850439882698
1.2873900293255132
1.2649071358748778
1.2434017595307918
1.2228739002932552
1.203323558162268
1.18475073313783
1.1681329423264908
1.1534701857282503
1.1436950146627567
1.1358748778103618
1.1270772238514175
1.1173020527859236
1.1085043988269794
1.1016617790811338
1.096774193548387
1.0909090909090908
1.0840664711632453
1.0772238514173995
1.0684261974584557
1.0596285434995112
1.053763440860215
1.0488758553274682
1.0381231671554252
1.0254154447702837
1.0156402737047898
1.0117302052785924
1.021505376344086
1.0518084066471165
1.110459433040078
1.2023460410557183
1.3284457478005864
1.4838709677419355
1.6608015640273706
1.822091886608016
1.970674486803519
2.1300097751710654
2.283479960899316
2.420332355816227
2.535679374389052
2.6295210166177907
2.701857282502444
2.7536656891495603
2.78494623655914
2.798631476050831
2.7966764418377323
2.782991202346041
2.7595307917888565
2.7282502443792764
2.6881720430107525
2.6402737047898337
2.5835777126099706
2.5161290322580645
2.439882697947214
2.356793743890518
2.269794721407625
2.1837732160312804
2.103616813294233
2.0303030303030303
1.9716520039100685
1.924731182795699
1.8826979472140764
1.847507331378299
1.8201368523949168
1.7996089931573802
1.7839687194525904
1.772238514173998
1.761485826001955
1.7497556207233629
1.737047898338221
1.7233626588465298
1.7116324535679377
1.6979472140762464
1.6803519061583578
1.6598240469208212
1.6363636363636365
1.6099706744868034
1.5826001955034212
1.5542521994134897
1.525904203323558
