ppg
1.426197458455523
1.4115347018572826
1.393939393939394
1.375366568914956
1.3558162267839686
1.335288367546432
1.313782991202346
1.2961876832844574
1.2805474095796676
1.262952101661779
1.2482893450635386
1.2434017595307918
1.2570869990224829
1.2981427174975562
1.3734115347018572
1.487781036168133
1.6392961876832846
1.822091886608016
2.024437927663734
2.206256109481916
2.3704789833822093
2.5434995112414467
2.702834799608993
2.834799608993157
2.9345063538611926
2.99902248289345
3.029325513196481
3.0283479960899315
2.99902248289345
2.9472140762463344
2.87683284457478
2.789833822091887
2.701857282502444
2.6099706744868034
2.5024437927663734
2.3851417399804498
2.260997067448681
2.132942326490713
2.003910068426197
1.87683284457478
1.75366568914956
1.6383186705767352
1.5327468230694037
1.4389051808406648
1.367546432062561
1.313782991202346
1.2668621700879763
1.23069403714565
1.2082111436950147
1.1994134897360704
1.2023460410557183
1.2150537634408602
1.2355816226783969
1.2619745845552297
1.2913000977517106
1.3206256109481915
1.3470185728250244
1.370478983382209
1.3919843597262953
1.409579667644184
1.4213098729227762
1.4281524926686218
1.4291300097751711
1.4242424242424243
1.414467253176931
1.3998044965786902
1.3812316715542523
1.3607038123167154
1.33822091886608
1.3186705767350928
1.3010752688172045
1.278592375366569
1.2531769305962854
1.2267839687194526
1.1994134897360704
1.173998044965787
1.155425219941349
1.1495601173020529
1.166177908113392
1.2140762463343109
1.300097751710655
1.4027370478983383
1.5288367546432062
1.699902248289345
1.900293255131965
2.114369501466276
2.326490713587488
2.5210166177908118
2.687194525904203
2.819159335288368
2.9149560117302054
2.973607038123167
2.9980449657869013
2.992179863147605
2.963831867057673
2.917888563049853
2.8533724340175954
2.774193548387097
2.6823069403714563
2.579667644183773
2.469208211143695
2.350928641251222
2.2277614858260018
2.101661779081134
1.9736070381231672
1.847507331378299
1.739980449657869
1.6451612903225807
1.547409579667644
1.455522971652004
1.3734115347018572
1.3049853372434017
1.2512218963831867
1.2121212121212122
1.187683284457478
1.176930596285435
1.1779081133919844
1.1896383186705768
1.209188660801564
1.2316715542521994
1.2561094819159335
1.2834799608993157
1.310850439882698
1.3362658846529814
1.3577712609970674
1.375366568914956
1.388074291300098
1.3958944281524928
1.3978494623655917
1.393939393939394
1.3851417399804498
1.375366568914956
1.3636363636363635
1.346041055718475
1.3235581622678396
1.2991202346041055
1.273704789833822
1.2473118279569892
1.2209188660801564
1.1935483870967742
1.166177908113392
1.141739980449658
1.1241446725317692
1.1202346041055715
1.130987292277615
1.164222873900293
1.23069403714565
1.3362658846529814
1.4819159335288368
1.6608015640273706
1.8641251221896384
2.078201368523949
2.2873900293255134
2.4789833822091887
2.6422287390029324
2.7722385141739982
2.8563049853372435
2.9042033235581624
2.930596285434995
2.930596285434995
2.906158357771261
2.859237536656892
2.793743890518084
2.7126099706744866
2.6177908113391983
2.5131964809384164
2.39980449657869
2.2795698924731185
2.1544477028347995
2.042033235581622
1.9374389051808407
1.823069403714565
1.7067448680351909
1.595307917888563
1.4916911045943304
1.3998044965786902
1.3206256109481915
1.2570869990224829
1.209188660801564
1.1759530791788857
1.1573802541544478
1.152492668621701
1.1573802541544478
1.1700879765395895
1.1896383186705768
1.2150537634408602
1.2434017595307918
1.2561094819159335
1.2609970674486803
1.2756598240469208
1.2932551319648091
1.3088954056695992
1.3196480938416422
1.3264907135874875
1.3294232649071358
1.3284457478005864
1.321603128054741
1.3098729227761483
1.2942326490713587
1.2746823069403714
1.252199413489736
1.227761485826002
1.2023460410557183
1.1759530791788857
1.1495601173020529
1.1231671554252198
1.1016617790811338
1.0840664711632453
1.067448680351906
1.0576735092864125
1.064516129032258
1.096774193548387
1.1612903225806452
1.2639296187683284
1.4056695992179864
1.5806451612903225
1.7790811339198436
1.9872922776148585
2.1925708699902247
2.358748778103617
2.49266862170088
2.6177908113391983
2.717497556207233
2.78494623655914
2.820136852394917
2.825024437927664
2.801564027370479
2.7536656891495603
2.686217008797654
2.6021505376344085
2.505376344086021
2.410557184750733
2.313782991202346
2.20039100684262
2.078201368523949
1.9501466275659824
1.8211143695014664
1.694037145650049
1.5728250244379276
1.4604105571847508
1.3587487781036167
1.2697947214076246
1.195503421309873
1.1368523949169111
1.0987292277614855
1.0762463343108504
1.0635386119257086
1.06158357771261
1.0703812316715542
1.0879765395894427
1.1124144672531768
1.142717497556207
1.1749755620723363
1.2082111436950147
1.2394916911045943
1.267839687194526
1.29227761485826
1.310850439882698
1.3255131964809383
1.335288367546432
1.3391984359726294
1.3362658846529814
1.3284457478005864
1.3157380254154447
1.2991202346041055
1.278592375366569
1.2561094819159335
1.2316715542521994
1.2111436950146628
1.1925708699902249
1.1700879765395895
1.144672531769306
1.118279569892473
1.093841642228739
1.0733137829912025
1.064516129032258
1.0733137829912025
1.110459433040078
1.181818181818182
1.2913000977517106
1.4379276637341154
1.5884652981427174
1.7458455522971652
1.9345063538611929
2.131964809384164
2.3196480938416424
2.484848484848485
2.6207233626588464
2.721407624633431
2.7859237536656893
2.81622678396872
2.8152492668621703
2.7869012707722387
2.7419354838709675
2.6823069403714563
2.6041055718475072
2.5112414467253177
2.4056695992179864
2.291300097751711
2.16911045943304
2.042033235581622
1.9120234604105573
1.7820136852394917
1.6559139784946235
1.5356793743890518
1.4252199413489737
1.33822091886608
1.267839687194526
1.2003910068426198
1.1436950146627567
1.1016617790811338
1.0742913000977516
1.0625610948191593
1.0635386119257086
1.0762463343108504
1.0977517106549364
1.1270772238514175
1.160312805474096
1.1925708699902249
1.2238514173998043
1.2561094819159335
1.2864125122189638
1.3128054740957966
1.3333333333333333
1.3479960899315735
1.3577712609970674
1.3607038123167154
1.356793743890518
1.3479960899315735
1.3343108504398826
1.316715542521994
1.3010752688172045
1.284457478005865
1.262952101661779
1.238514173998045
1.2130987292277615
1.1857282502443791
1.1583577712609971
1.130987292277615
1.1065493646138806
1.0899315738025417
1.0879765395894427
1.1085043988269794
1.1485826001955035
1.2140762463343109
1.3206256109481915
1.466275659824047
1.6441837732160314
1.844574780058651
2.0527859237536656
2.2551319648093844
2.439882697947214
2.5962854349951123
2.718475073313783
2.803519061583578
2.852394916911046
2.8670576735092865
2.855327468230694
2.822091886608016
2.768328445747801
2.696969696969697
2.6099706744868034
2.509286412512219
2.398826979472141
2.2795698924731185
2.15347018572825
2.024437927663734
1.8934506353861196
1.780058651026393
1.6774193548387095
1.56891495601173
1.4623655913978495
1.364613880742913
1.2776148582600195
1.2052785923753666
1.1485826001955035
1.10752688172043
1.083088954056696
1.0733137829912025
1.078201368523949
1.0948191593352885
1.1173020527859236
1.144672531769306
1.176930596285435
1.2121212121212122
1.24633431085044
1.278592375366569
1.3069403714565004
1.3313782991202343
1.3499511241446724
1.3626588465298142
1.3685239491691104
1.3685239491691104
1.3655913978494625
1.3587487781036167
1.346041055718475
1.3294232649071358
1.3088954056695992
1.2864125122189638
1.2609970674486803
1.2346041055718475
1.2082111436950147
1.1808406647116323
1.152492668621701
1.1251221896383188
1.1026392961876832
1.0909090909090908
1.0928641251221896
1.1133919843597262
1.163245356793744
1.249266862170088
1.3734115347018572
1.5347018572825024
1.7243401759530792
1.9305962854349952
2.1388074291300097
2.337243401759531
2.5131964809384164
2.643206256109482
2.735092864125122
2.8084066471163247
2.854349951124145
2.870967741935484
2.859237536656892
2.822091886608016
2.764418377321604
2.689149560117302
2.598240469208211
2.4946236559139785
2.3822091886608017
2.26197458455523
2.1515151515151514
2.04594330400782
1.927663734115347
1.804496578690127
1.6823069403714566
1.565982404692082
1.458455522971652
1.3626588465298142
1.2805474095796676
1.2140762463343109
1.163245356793744
1.1290322580645162
1.1006842619745845
1.0811339198435972
1.078201368523949
1.088954056695992
1.110459433040078
1.13880742913001
1.1720430107526882
1.2072336265884651
1.2424242424242424
1.2746823069403714
1.303030303030303
1.3264907135874875
1.343108504398827
1.35386119257087
1.359726295210166
1.3587487781036167
1.3519061583577712
1.3401759530791788
1.3225806451612905
1.300097751710655
1.2746823069403714
1.2473118279569892
1.2189638318670577
1.1896383186705768
1.1593352883675463
1.1348973607038124
1.1133919843597262
1.0869990224828934
1.0635386119257086
1.0488758553274682
1.0518084066471165
1.0821114369501466
1.1485826001955035
1.2570869990224829
1.4076246334310851
1.595307917888563
1.8103616813294232
2.038123167155425
2.233626588465298
2.403714565004888
2.5747800586510263
2.724340175953079
2.841642228739003
2.9227761485826003
2.9667644183773216
2.975562072336266
2.95405669599218
2.906158357771261
2.8367546432062563
2.7497556207233624
2.659824046920821
2.565982404692082
2.4545454545454546
2.332355816226784
2.2023460410557183
2.067448680351906
1.9296187683284456
1.7927663734115349
1.6598240469208212
1.5347018572825024
1.4193548387096775
1.3186705767350928
1.241446725317693
1.1837732160312806
1.1329423264907137
1.0948191593352885
1.0703812316715542
1.06158357771261
1.0664711632453567
1.083088954056696
1.1085043988269794
1.1397849462365592
1.1749755620723363
1.2111436950146628
1.2453567937438903
1.2746823069403714
1.2991202346041055
1.3206256109481915
1.3372434017595307
1.3479960899315735
1.3519061583577712
1.348973607038123
1.3401759530791788
1.3255131964809383
1.305962854349951
1.2825024437927663
1.2561094819159335
1.2346041055718475
1.2140762463343109
1.1886608015640274
1.160312805474096
1.1300097751710656
1.0987292277614855
1.0694037145650048
1.0469208211143697
1.0361681329423265
1.0478983382209188
1.0909090909090908
1.1730205278592376
1.2981427174975562
1.436950146627566
1.5923753665689149
1.7917888563049853
2.0127077223851417
2.2355816226783967
2.444770283479961
2.625610948191593
2.771260997067449
2.877810361681329
2.945259042033236
2.9745845552297165
2.970674486803519
2.943304007820137
2.895405669599218
2.827956989247312
2.742913000977517
2.643206256109482
2.532746823069404
2.412512218963832
2.2854349951124147
2.1524926686217007
2.0175953079178885
1.8807429130009776
1.7468230694037146
1.6187683284457477
1.512218963831867
1.4213098729227762
1.3304007820136852
1.2482893450635386
1.1788856304985338
1.1251221896383188
1.0879765395894427
1.067448680351906
1.06158357771261
1.0684261974584557
1.086021505376344
1.1114369501466277
1.1397849462365592
1.1700879765395895
1.203323558162268
1.2365591397849462
1.267839687194526
1.2942326490713587
1.3147605083088951
1.3284457478005864
1.3362658846529814
1.33822091886608
1.3333333333333333
1.3225806451612905
1.305962854349951
1.2903225806451613
1.2746823069403714
1.2531769305962854
1.227761485826002
1.2003910068426198
1.1710654936461389
1.141739980449658
1.1114369501466277
1.0821114369501466
1.0557184750733135
1.0371456500488758
1.035190615835777
1.0498533724340176
1.088954056695992
1.166177908113392
1.2854349951124144
1.4467253176930597
1.643206256109482
1.8631476050830889
2.09188660801564
2.313782991202346
2.5141739980449658
2.6832844574780057
2.8152492668621703
2.9071358748778104
2.956011730205278
2.970674486803519
2.960899315738025
2.9266862170087977
2.8699902248289346
2.793743890518084
2.701857282502444
2.5972629521016617
2.4819159335288368
2.358748778103617
2.228739002932551
2.093841642228739
1.9736070381231672
1.86119257086999
1.739980449657869
1.6177908113391983
1.500488758553275
1.3919843597262953
1.2961876832844574
1.2160312805474096
1.152492668621701
1.104594330400782
1.072336265884653
1.0557184750733135
1.0527859237536656
1.0606060606060606
1.0772238514173995
1.1006842619745845
1.1300097751710656
1.163245356793744
1.1974584555229717
1.2297165200391007
1.2590420332355816
1.2834799608993157
1.3020527859237536
1.3147605083088951
1.3206256109481915
1.3225806451612905
1.3206256109481915
1.3118279569892473
1.2971652003910068
1.278592375366569
1.2561094819159335
1.23069403714565
1.2043010752688172
1.1759530791788857
1.147605083088954
1.118279569892473
1.088954056695992
1.0606060606060606
1.040078201368524
1.0283479960899315
1.0263929618768328
1.04594330400782
1.0977517106549364
1.1896383186705768
1.324535679374389
1.498533724340176
1.7038123167155426
1.927663734115347
2.155425219941349
2.3714565004887587
2.541544477028348
2.6725317693059627
2.788856304985337
2.875855327468231
2.9286412512218964
2.948191593352884
2.936461388074292
2.898338220918866
2.8377321603128056
2.758553274682307
2.662756598240469
2.5542521994134897
2.436950146627566
2.326490713587488
2.217986314760508
2.093841642228739
1.962854349951124
1.828934506353861
1.696969696969697
1.5679374389051808
1.4457478005865103
1.33822091886608
1.2453567937438903
1.1681329423264908
1.1085043988269794
1.0694037145650048
1.0478983382209188
1.0361681329423265
1.0361681329423265
1.0469208211143697
1.0664711632453567
1.0928641251221896
1.1241446725317692
1.1573802541544478
1.1906158357771262
1.2218963831867058
1.249266862170088
1.2717497556207231
1.2883675464320623
1.300097751710655
1.3069403714565004
1.3079178885630498
1.3020527859237536
1.289345063538612
1.2717497556207231
1.2512218963831867
1.2267839687194526
1.2013685239491692
1.1749755620723363
1.147605083088954
1.1251221896383188
1.1055718475073313
1.0801564027370478
1.053763440860215
1.0303030303030305
1.0166177908113392
1.0195503421309873
1.0498533724340176
1.1163245356793745
1.224828934506354
1.375366568914956
1.563049853372434
1.7458455522971652
1.927663734115347
2.134897360703812
2.3411534701857284
2.527859237536657
2.6832844574780057
2.801564027370479
2.8807429130009776
2.9227761485826003
2.929618768328446
2.906158357771261
2.857282502443793
2.787878787878788
2.710654936461388
2.625610948191593
2.52297165200391
2.407624633431085
2.281524926686217
2.147605083088954
2.0097751710654936
1.8699902248289344
1.7302052785923754
1.5933528836754642
1.4633431085043989
1.343108504398827
1.2473118279569892
1.1700879765395895
1.096774193548387
1.0342130987292275
0.9853372434017597
0.9530791788856304
0.9364613880742912
0.9335288367546432
0.9423264907135877
0.9608993157380256
0.9872922776148584
1.018572825024438
1.0518084066471165
1.083088954056696
1.1114369501466277
1.1397849462365592
1.164222873900293
1.1837732160312806
1.1974584555229717
1.2052785923753666
1.206256109481916
1.2013685239491692
1.1896383186705768
1.173998044965787
1.1544477028347997
1.1368523949169111
1.1202346041055715
1.0987292277614855
1.0742913000977516
1.0478983382209188
1.021505376344086
0.9941348973607038
0.967741935483871
0.9442815249266864
0.9315738025415444
0.9374389051808406
0.9716520039100685
1.043010752688172
1.1358748778103618
1.2561094819159335
1.4252199413489737
1.629521016617791
1.8543499511241448
2.085043988269794
2.304985337243402
2.4995112414467253
2.659824046920821
2.7810361681329425
2.86217008797654
2.905180840664712
2.913000977517106
2.89345063538612
2.8514173998044967
2.788856304985337
2.70772238514174
2.610948191593353
2.5004887585532747
2.380254154447703
2.251221896383187
2.115347018572825
1.9745845552297163
1.8328445747800584
1.6930596285434996
1.5747800586510263
1.4701857282502444
1.3616813294232648
1.2590420332355816
1.1671554252199414
1.0909090909090908
1.032258064516129
0.9912023460410556
0.967741935483871
0.9608993157380256
0.967741935483871
0.9863147605083088
1.010752688172043
1.0391006842619743
1.0733137829912025
1.1094819159335287
1.1456500488758554
1.1788856304985338
1.2072336265884651
1.23069403714565
1.2473118279569892
1.2580645161290325
1.2619745845552297
1.2590420332355816
1.2502443792766371
1.2404692082111437
1.2297165200391007
1.2130987292277615
1.1925708699902249
1.1700879765395895
1.1466275659824048
1.1221896383186705
1.0987292277614855
1.075268817204301
1.0518084066471165
1.0312805474095796
1.018572825024438
1.0205278592375366
1.0410557184750733
1.0909090909090908
1.1779081133919844
1.3079178885630498
1.478983382209189
1.6852394916911049
1.913978494623656
2.1495601173020527
2.375366568914956
2.579667644183773
2.7517106549364616
2.884652981427175
2.9687194525904204
3.0146627565982405
3.0361681329423265
3.0303030303030303
2.99902248289345
2.9442815249266863
2.870967741935484
2.7810361681329425
2.678396871945259
2.5650048875855327
2.441837732160313
2.3118279569892475
2.1925708699902247
2.0791788856304985
1.9550342130987293
1.8269794721407624
1.7018572825024438
1.5835777126099706
1.4750733137829912
1.3792766373411536
1.2981427174975562
1.2326490713587488
1.1827956989247312
1.1495601173020529
1.130987292277615
1.126099706744868
1.1329423264907137
1.147605083088954
1.1681329423264908
1.1935483870967742
1.2209188660801564
1.2482893450635386
1.2727272727272727
1.2942326490713587
1.310850439882698
1.321603128054741
1.327468230694037
1.3304007820136852
1.3294232649071358
1.3225806451612905
1.310850439882698
1.2942326490713587
1.2746823069403714
1.252199413489736
1.227761485826002
1.2023460410557183
1.1759530791788857
1.1485826001955035
1.121212121212121
1.0928641251221896
1.072336265884653
1.0596285434995112
1.0547409579667644
1.0694037145650048
1.1133919843597262
1.1964809384164223
1.3235581622678396
1.4926686217008798
1.696969696969697
1.9237536656891496
2.157380254154448
2.3822091886608017
2.5620723362658846
2.704789833822092
2.834799608993157
2.936461388074292
3.003910068426197
3.0361681329423265
3.0361681329423265
3.0087976539589443
2.9589442815249267
2.889540566959922
2.8054740957966766
2.708699902248289
2.613880742913001
2.5102639296187683
2.391006842619746
2.269794721407625
2.145650048875855
2.021505376344086
1.8983382209188664
1.7790811339198436
1.6656891495601174
1.560117302052786
1.4643206256109482
1.3812316715542523
1.3118279569892473
1.2619745845552297
1.227761485826002
1.2003910068426198
1.1837732160312806
1.176930596285435
1.1808406647116323
1.1915933528836755
1.2082111436950147
1.2297165200391007
1.252199413489736
1.2746823069403714
1.295210166177908
1.3128054740957966
1.3264907135874875
1.3362658846529814
1.3421309872922775
1.3421309872922775
1.3372434017595307
1.3284457478005864
1.3147605083088951
1.2981427174975562
1.278592375366569
1.2561094819159335
1.2326490713587488
1.209188660801564
1.1896383186705768
1.1710654936461389
1.1485826001955035
1.1241446725317692
1.1006842619745845
1.0850439882697946
1.0821114369501466
1.1006842619745845
1.1505376344086022
1.2375366568914956
1.3655913978494625
1.5317693059628543
1.696969696969697
1.866080156402737
2.0635386119257086
2.264907135874878
2.452590420332356
2.6148582600195502
2.742913000977517
2.833822091886608
2.889540566959922
2.9120234604105573
2.905180840664712
2.8729227761485827
2.8211143695014664
2.7595307917888565
2.689149560117302
2.6041055718475072
2.50733137829912
2.40078201368524
2.286412512218964
2.167155425219941
2.0449657869012707
1.921798631476051
1.8005865102639296
1.683284457478006
1.5718475073313782
1.4809384164222874
1.4056695992179864
1.3313782991202343
1.2649071358748778
1.2101661779081134
1.1691104594330402
1.141739980449658
1.1270772238514175
1.1241446725317692
1.1300097751710656
1.1436950146627567
1.1622678396871946
1.1837732160312806
1.2052785923753666
1.2267839687194526
1.2473118279569892
1.2658846529814272
1.281524926686217
1.29227761485826
1.2981427174975562
1.300097751710655
1.2961876832844574
1.2873900293255132
1.2746823069403714
1.2580645161290325
1.2434017595307918
1.2287390029325511
1.2101661779081134
1.1886608015640274
1.1652003910068427
1.141739980449658
1.1173020527859236
1.0928641251221896
1.0703812316715542
1.0547409579667644
1.053763440860215
1.0762463343108504
1.1290322580645162
1.2003910068426198
1.2971652003910068
1.4389051808406648
1.616813294232649
1.8172043010752688
2.026392961876833
2.23069403714565
2.4164222873900294
2.5747800586510263
2.6989247311827955
2.7869012707722387
2.838709677419355
2.857282502443793
2.8484848484848486
2.819159335288368
2.7702834799608995
2.704789833822092
2.624633431085044
2.5317693059628543
2.429130009775171
2.318670576735093
2.2023460410557183
2.081133919843597
1.956989247311828
1.8328445747800584
1.7253176930596286
1.629521016617791
1.5278592375366569
1.4301075268817205
1.3411534701857282
1.262952101661779
1.1994134897360704
1.1505376344086022
1.1163245356793745
1.0957966764418376
1.0879765395894427
1.0918866080156402
1.1036168132942326
1.1221896383186705
1.1456500488758554
1.1720430107526882
1.1994134897360704
1.2258064516129032
1.2502443792766371
1.270772238514174
1.2873900293255132
1.2991202346041055
1.3049853372434017
1.305962854349951
1.3010752688172045
1.295210166177908
1.2864125122189638
1.2717497556207231
1.2531769305962854
1.2316715542521994
1.2082111436950147
1.1837732160312806
1.1583577712609971
1.1329423264907137
1.10752688172043
1.0821114369501466
1.0596285434995112
1.0478983382209188
1.0478983382209188
1.064516129032258
1.1085043988269794
1.187683284457478
1.305962854349951
1.4613880742913
1.64613880742913
1.8504398826979471
2.060606060606061
2.260997067448681
2.4408602150537635
2.591397849462365
2.6959921798631474
2.7624633431085046
2.8084066471163247
2.827956989247312
2.820136852394917
2.788856304985337
2.736070381231672
2.6666666666666665
2.582600195503421
2.4858260019550342
2.3792766373411536
2.264907135874878
2.158357771260997
2.0557184750733137
1.9413489736070384
1.822091886608016
1.7028347996089932
1.587487781036168
1.479960899315738
1.383186705767351
1.2991202346041055
1.2297165200391007
1.1759530791788857
1.1368523949169111
1.1124144672531768
1.1016617790811338
1.1026392961876832
1.1114369501466277
1.1290322580645162
1.152492668621701
1.1808406647116323
1.2111436950146628
1.2404692082111437
1.267839687194526
1.29227761485826
1.3128054740957966
1.327468230694037
1.33822091886608
1.3440860215053765
1.3440860215053765
1.3391984359726294
1.3294232649071358
1.3147605083088951
1.2961876832844574
1.2746823069403714
1.2512218963831867
1.2267839687194526
1.2013685239491692
1.1759530791788857
1.155425219941349
1.1368523949169111
1.115347018572825
1.093841642228739
1.078201368523949
1.0762463343108504
1.096774193548387
1.1485826001955035
1.2365591397849462
1.3636363636363635
1.5268817204301075
1.718475073313783
1.9257086999022484
2.10752688172043
2.267839687194526
2.432062561094819
2.578690127077224
2.697947214076246
2.782991202346041
2.833822091886608
2.865102639296188
2.8729227761485827
2.844574780058651
2.789833822091887
2.7145650048875853
2.633431085043988
2.5454545454545454
2.4408602150537635
2.324535679374389
2.20039100684262
2.071358748778104
1.9393939393939397
1.8093841642228736
1.683284457478006
1.563049853372434
1.452590420332356
1.3548387096774193
1.270772238514174
1.209188660801564
1.1652003910068427
1.1290322580645162
1.1036168132942326
1.0909090909090908
1.0909090909090908
1.1016617790811338
1.121212121212121
1.1466275659824048
1.1759530791788857
1.2072336265884651
1.238514173998045
1.2658846529814272
1.2883675464320623
1.3088954056695992
1.3255131964809383
1.3362658846529814
1.3411534701857282
1.3401759530791788
1.3343108504398826
1.3235581622678396
