ppg
2.852394916911046
2.9149560117302054
2.951124144672532
2.9696969696969697
2.9824046920821115
2.988269794721408
2.988269794721408
2.981427174975562
2.9696969696969697
2.95405669599218
2.9345063538611926
2.9120234604105573
2.887585532746823
2.8611925708699903
2.833822091886608
2.8054740957966766
2.777126099706745
2.7468230694037143
2.7126099706744866
2.674486803519061
2.632453567937439
2.5855327468230693
2.535679374389052
2.4809384164222874
2.421309872922776
2.355816226783969
2.281524926686217
2.209188660801564
2.133919843597263
2.0439882697947214
1.9442815249266865
1.8406647116324533
1.7409579667644184
1.6471163245356797
1.5650048875855327
1.4975562072336266
1.444770283479961
1.4076246334310851
1.3822091886608017
1.3665689149560116
1.356793743890518
1.3479960899315735
1.3391984359726294
1.3294232649071358
1.3176930596285434
1.3040078201368523
1.2883675464320623
1.2717497556207231
1.2551319648093842
1.2394916911045943
1.2228739002932552
1.2052785923753666
1.1915933528836755
1.1798631476050832
1.1652003910068427
1.1495601173020529
1.1329423264907137
1.115347018572825
1.0977517106549364
1.0821114369501466
1.0664711632453567
1.0518084066471165
1.0371456500488758
1.0224828934506354
1.013685239491691
1.0087976539589445
1.002932551319648
0.9960899315738024
0.989247311827957
0.981427174975562
0.9745845552297164
0.9667644183773216
0.959921798631476
0.9550342130987292
0.9521016617790812
0.9521016617790812
0.95405669599218
0.959921798631476
0.9687194525904204
0.9765395894428152
0.9843597262952102
0.9921798631476052
1.0009775171065494
1.0117302052785924
1.024437927663734
1.0391006842619743
1.056695992179863
1.0742913000977516
1.0918866080156402
1.1094819159335287
1.1280547409579669
1.1456500488758554
1.1622678396871946
1.176930596285435
1.187683284457478
1.1945259042033236
1.1974584555229717
1.2003910068426198
1.2111436950146628
1.2375366568914956
1.2883675464320623
1.3548387096774193
1.4437927663734116
1.5718475073313782
1.7331378299120237
1.913978494623656
2.101661779081134
2.281524926686217
2.4457478005865103
2.587487781036168
2.702834799608993
2.792766373411535
2.860215053763441
2.909090909090909
2.935483870967742
2.946236559139785
2.9530791788856305
2.95405669599218
2.948191593352884
2.9374389051808407
2.9227761485826003
2.905180840664712
2.884652981427175
2.8611925708699903
2.835777126099707
2.807429130009776
2.777126099706745
2.745845552297165
2.7126099706744866
2.678396871945259
2.6422287390029324
2.6041055718475072
2.5640273704789838
2.520039100684262
2.4701857282502444
2.4134897360703813
2.3489736070381237
2.2766373411534704
2.1955034213098727
2.118279569892473
2.0391006842619745
1.946236559139785
1.8455522971652003
1.7438905180840665
1.6480938416422288
1.563049853372434
1.4926686217008798
1.4389051808406648
1.3998044965786902
1.3734115347018572
1.3558162267839686
1.346041055718475
1.3391984359726294
1.3313782991202343
1.3225806451612905
1.313782991202346
1.303030303030303
1.2913000977517106
1.2795698924731185
1.2668621700879763
1.2531769305962854
1.238514173998045
1.2238514173998043
1.2072336265884651
1.1935483870967742
1.1808406647116323
1.1652003910068427
1.147605083088954
1.1290322580645162
1.1114369501466277
1.0948191593352885
1.0791788856304985
1.0635386119257086
1.0488758553274682
1.0342130987292275
1.021505376344086
1.0146627565982405
1.010752688172043
1.0048875855327468
0.9980449657869012
0.9912023460410556
0.9843597262952102
0.9775171065493646
0.9726295210166178
0.9687194525904204
0.9667644183773216
0.9667644183773216
0.967741935483871
0.9706744868035192
0.9765395894428152
0.9853372434017597
0.9941348973607038
1.002932551319648
1.0127077223851415
1.024437927663734
1.0381231671554252
1.0518084066471165
1.0664711632453567
1.083088954056696
1.099706744868035
1.1173020527859236
1.1358748778103618
1.1534701857282503
1.1691104594330402
1.1837732160312806
1.1935483870967742
1.198435972629521
1.2121212121212122
1.23069403714565
1.2473118279569892
1.2746823069403714
1.324535679374389
1.404692082111437
1.517106549364614
1.6363636363636365
1.7673509286412512
1.9296187683284456
2.104594330400782
2.2766373411534704
2.4349951124144678
2.5718475073313782
2.6852394916911044
2.776148582600196
2.843597262952102
2.89247311827957
2.9257086999022484
2.9393939393939394
2.9423264907135875
2.941348973607038
2.9335288367546437
2.920821114369501
2.905180840664712
2.886608015640274
2.865102639296188
2.841642228739003
2.81622678396872
2.788856304985337
2.760508308895406
2.729227761485826
2.696969696969697
2.662756598240469
2.625610948191593
2.5865102639296187
2.544477028347996
2.498533724340176
2.4486803519061584
2.3929618768328447
2.3313782991202348
2.26197458455523
2.1847507331378297
2.0977517106549364
2.013685239491691
1.9296187683284456
1.8328445747800584
1.732160312805474
1.635386119257087
1.5493646138807429
1.47702834799609
1.4222873900293256
1.3822091886608017
1.3548387096774193
1.335288367546432
1.3196480938416422
1.3049853372434017
1.2932551319648091
1.2825024437927663
1.2658846529814272
1.2443792766373412
1.219941348973607
1.1945259042033236
1.1691104594330402
1.142717497556207
1.1163245356793745
1.088954056695992
1.0625610948191593
1.035190615835777
1.0127077223851415
0.9931573802541545
0.9696969696969696
0.9433040078201368
0.9149560117302052
0.8856304985337243
0.8563049853372434
0.8269794721407625
0.7986314760508308
0.7712609970674487
0.7438905180840665
0.718475073313783
0.6959921798631477
0.6813294232649071
0.6715542521994134
0.656891495601173
0.6402737047898338
0.6236559139784946
0.6070381231671554
0.5904203323558163
0.5747800586510264
0.5610948191593352
0.5493646138807429
0.5405669599217986
0.533724340175953
0.533724340175953
0.5366568914956011
0.5356793743890518
0.5327468230694037
0.5288367546432062
0.5249266862170088
0.52297165200391
0.5219941348973607
0.52297165200391
0.5268817204301075
0.5327468230694037
0.5395894428152492
0.5483870967741935
0.5620723362658846
0.5777126099706745
0.5913978494623656
0.603128054740958
0.6119257086999023
0.6187683284457478
0.6265884652981427
0.6432062561094819
0.6744868035190615
0.7311827956989247
0.8211143695014663
0.9481915933528836
1.086021505376344
1.2394916911045943
1.43108504398827
1.6422287390029326
1.855327468230694
2.0576735092864125
2.239491691104594
2.3949169110459434
2.5239491691104594
2.6265884652981426
2.7067448680351904
2.768328445747801
2.807429130009776
2.83088954056696
2.8514173998044967
2.865102639296188
2.870967741935484
2.8690127077223853
2.860215053763441
2.8475073313782997
2.83088954056696
2.8103616813294234
2.7859237536656893
2.757575757575758
2.7262952101661777
2.69208211143695
2.654936461388074
2.6129032258064515
2.5640273704789838
2.5102639296187683
2.450635386119257
2.386119257086999
2.313782991202346
2.232649071358749
2.142717497556207
2.0439882697947214
1.9364613880742916
1.8387096774193548
1.747800586510264
1.6490713587487782
1.5532746823069403
1.466275659824047
1.392961876832845
1.335288367546432
1.29227761485826
1.2609970674486803
1.2375366568914956
1.219941348973607
1.2052785923753666
1.1925708699902249
1.1837732160312806
1.176930596285435
1.1681329423264908
1.1593352883675463
1.1515151515151516
1.144672531769306
1.1397849462365592
1.1378299120234605
1.1368523949169111
1.1348973607038124
1.130987292277615
1.126099706744868
1.1221896383186705
1.1173020527859236
1.1085043988269794
1.0957966764418376
1.0821114369501466
1.067448680351906
1.0527859237536656
1.0371456500488758
1.0205278592375366
1.0048875855327468
0.989247311827957
0.9745845552297164
0.959921798631476
0.9501466275659824
0.9442815249266864
0.9345063538611924
0.9247311827956988
0.9159335288367546
0.9071358748778104
0.8993157380254154
0.8924731182795699
0.8866080156402737
0.8817204301075269
0.8797653958944281
0.8797653958944281
0.8836754643206256
0.8905180840664711
0.8973607038123167
0.9042033235581622
0.9120234604105572
0.9208211143695014
0.9305962854349952
0.9433040078201368
0.9560117302052786
0.9696969696969696
0.9833822091886608
0.9980449657869012
1.0117302052785924
1.0254154447702837
1.0371456500488758
1.0439882697947214
1.0478983382209188
1.0518084066471165
1.0635386119257086
1.0909090909090908
1.144672531769306
1.2316715542521994
1.3558162267839686
1.5180840664711632
1.7096774193548387
1.889540566959922
2.06158357771261
2.2502443792766376
2.4349951124144678
2.6021505376344085
2.742913000977517
2.857282502443793
2.9472140762463344
3.0146627565982405
3.065493646138808
3.101661779081134
3.1251221896383186
3.1378299120234603
3.136852394916911
3.1280547409579667
3.117302052785924
3.103616813294233
3.0869990224828934
3.065493646138808
3.040078201368524
3.010752688172043
2.9775171065493646
2.940371456500489
2.900293255131965
2.8563049853372435
2.7976539589442817
2.7331378299120237
2.679374389051808
2.627565982404692
2.573802541544477
2.515151515151515
2.4516129032258065
2.380254154447703
2.300097751710655
2.21505376344086
2.1270772238514173
2.0391006842619745
1.9550342130987293
1.8875855327468232
1.833822091886608
1.7849462365591398
1.7458455522971652
1.715542521994135
1.6930596285434996
1.6764418377321604
1.66177908113392
1.6480938416422288
1.6344086021505375
1.6217008797653958
1.6080156402737047
1.5972629521016617
1.5865102639296187
1.573802541544477
1.5610948191593352
1.547409579667644
1.5347018572825024
1.52297165200391
1.512218963831867
1.501466275659824
1.4897360703812317
1.478005865102639
1.466275659824047
1.4545454545454546
1.4467253176930597
1.4408602150537635
1.4320625610948192
1.4222873900293256
1.4115347018572826
1.401759530791789
1.3919843597262953
1.383186705767351
1.3734115347018572
1.364613880742913
1.356793743890518
1.348973607038123
1.3450635386119256
1.3421309872922775
1.3372434017595307
1.3313782991202343
1.324535679374389
1.316715542521994
1.3088954056695992
1.3020527859237536
1.2961876832844574
1.29227761485826
1.289345063538612
1.2873900293255132
1.2873900293255132
1.2903225806451613
1.2942326490713587
1.2971652003910068
1.2991202346041055
1.3020527859237536
1.305962854349951
1.3098729227761483
1.3157380254154447
1.3235581622678396
1.332355816226784
1.343108504398827
1.35386119257087
1.364613880742913
1.375366568914956
1.3841642228739004
1.3919843597262953
1.401759530791789
1.4173998044965788
1.4457478005865103
1.4936461388074291
1.5669599217986314
1.6686217008797657
1.7976539589442817
1.9472140762463344
2.110459433040078
2.254154447702835
2.3812316715542523
2.515151515151515
2.6392961876832843
2.747800586510264
2.8377321603128056
2.9100684261974585
2.967741935483871
3.0117302052785924
3.0439882697947214
3.065493646138808
3.080156402737048
3.083088954056696
3.078201368523949
3.071358748778104
3.06158357771261
3.048875855327468
3.0332355816226784
3.01564027370479
2.994134897360704
2.9696969696969697
2.941348973607038
2.9100684261974585
2.875855327468231
2.8396871945259043
2.8025415444770285
2.7624633431085046
2.718475073313783
2.670576735092864
2.618768328445748
2.5610948191593352
2.4975562072336266
2.4271749755620724
2.3489736070381237
2.264907135874878
2.174975562072336
2.081133919843597
2.0
1.927663734115347
1.8543499511241448
1.7869012707722385
1.7302052785923754
1.6852394916911049
1.6500488758553276
1.6236559139784943
1.603128054740958
1.5865102639296187
1.5718475073313782
1.5581622678396871
1.547409579667644
1.5386119257087
1.5288367546432062
1.5190615835777126
1.5102639296187683
1.501466275659824
1.4926686217008798
1.4858260019550342
1.478983382209189
1.4731182795698925
1.4672531769305963
1.4613880742913
1.4545454545454546
1.4496578690127078
1.4467253176930597
1.4418377321603129
1.435972629521017
1.4281524926686218
1.4203323558162269
1.412512218963832
1.4056695992179864
1.3978494623655917
1.3900293255131966
1.383186705767351
1.375366568914956
1.370478983382209
1.3685239491691104
1.364613880742913
1.3607038123167154
1.356793743890518
1.3528836754643203
1.3499511241446724
1.348973607038123
1.348973607038123
1.3499511241446724
1.3528836754643203
1.356793743890518
1.3616813294232648
1.3695014662756595
1.3792766373411536
1.388074291300098
1.396871945259042
1.4056695992179864
1.4134897360703813
1.4213098729227762
1.4291300097751711
1.4379276637341154
1.447702834799609
1.457478005865103
1.4672531769305963
1.47702834799609
1.4858260019550342
1.4916911045943304
1.495601173020528
1.501466275659824
1.5151515151515151
1.541544477028348
1.5894428152492668
1.6637341153470186
1.7644183773216031
1.889540566959922
2.034213098729228
2.187683284457478
2.320625610948192
2.436950146627566
2.5562072336265884
2.6666666666666665
2.7624633431085046
2.8426197458455524
2.9071358748778104
2.956989247311828
2.995112414467253
3.0234604105571847
3.043010752688172
3.0547409579667644
3.0547409579667644
3.047898338220919
3.040078201368524
3.029325513196481
3.01564027370479
3.0
2.981427174975562
2.960899315738025
2.9374389051808407
2.9120234604105573
2.8836754643206257
2.852394916911046
2.8181818181818183
2.782991202346041
2.745845552297165
2.704789833822092
2.658846529814272
2.6080156402737047
2.552297165200391
2.490713587487781
2.4222873900293256
2.347018572825025
2.264907135874878
2.1788856304985336
2.09188660801564
2.016617790811339
1.9521016617790807
1.8885630498533723
1.8328445747800584
1.7888563049853372
1.7556207233626588
1.7311827956989247
1.7145650048875856
1.7018572825024438
1.6920821114369502
1.683284457478006
1.675464320625611
1.667644183773216
1.66177908113392
1.656891495601173
1.651026392961877
1.6451612903225807
1.6392961876832846
1.6334310850439884
1.565982404692082
1.466275659824047
1.4115347018572826
1.3782991202346042
1.3558162267839686
1.3372434017595307
1.324535679374389
1.3147605083088951
1.3020527859237536
1.2873900293255132
1.273704789833822
1.2609970674486803
1.2482893450635386
1.2375366568914956
1.2267839687194526
1.2160312805474096
1.2072336265884651
1.2013685239491692
1.1964809384164223
1.1945259042033236
1.195503421309873
1.1964809384164223
1.1964809384164223
1.1974584555229717
1.1994134897360704
1.2013685239491692
1.203323558162268
1.2052785923753666
1.2082111436950147
1.2111436950146628
1.2160312805474096
1.2218963831867058
1.2297165200391007
1.2375366568914956
1.2453567937438903
1.2531769305962854
1.2590420332355816
1.2639296187683284
1.2688172043010753
1.273704789833822
1.2795698924731185
1.284457478005865
1.289345063538612
1.29227761485826
1.295210166177908
1.2961876832844574
1.2961876832844574
1.3010752688172045
1.3176930596285434
1.35386119257087
1.41544477028348
1.5053763440860215
1.624633431085044
1.76930596285435
1.9286412512218964
2.09188660801564
2.2297165200391005
2.346041055718475
2.462365591397849
2.5669599217986314
2.653958944281525
2.724340175953079
2.779081133919844
2.819159335288368
2.8475073313782997
2.865102639296188
2.873900293255132
2.875855327468231
2.8690127077223853
2.855327468230694
2.8396871945259043
2.823069403714565
2.803519061583578
2.782991202346041
2.760508308895406
2.736070381231672
2.710654936461388
2.6832844574780057
2.652003910068426
2.6177908113391983
2.5806451612903225
2.5425219941348973
2.504398826979472
2.4613880742913
2.4144672531769307
2.3626588465298144
2.304985337243402
2.239491691104594
2.167155425219941
2.0879765395894427
2.0019550342130987
1.9120234604105573
1.822091886608016
1.7448680351906158
1.6793743890518085
1.6158357771260996
1.5610948191593352
1.5190615835777126
1.487781036168133
1.4652981427174976
1.4486803519061584
1.435972629521017
1.4242424242424243
1.412512218963832
1.4007820136852396
1.3900293255131966
1.3822091886608017
1.375366568914956
1.3655913978494625
1.3548387096774193
1.3440860215053765
1.3313782991202343
1.3196480938416422
1.3079178885630498
1.295210166177908
1.2834799608993157
1.2717497556207231
1.2590420332355816
1.249266862170088
1.2404692082111437
1.2297165200391007
1.2179863147605083
1.206256109481916
1.195503421309873
1.1867057673509287
1.1779081133919844
1.1691104594330402
1.1612903225806452
1.155425219941349
1.1505376344086022
1.1466275659824048
1.1466275659824048
1.1485826001955035
1.1505376344086022
1.152492668621701
1.1544477028347997
1.1573802541544478
1.1612903225806452
1.1652003910068427
1.1691104594330402
1.173998044965787
1.1798631476050832
1.1867057673509287
1.1945259042033236
1.2023460410557183
1.2111436950146628
1.2209188660801564
1.2316715542521994
1.2443792766373412
1.2570869990224829
1.2697947214076246
1.2825024437927663
1.2942326490713587
1.3040078201368523
1.3118279569892473
1.3157380254154447
1.3176930596285434
1.3186705767350928
1.316715542521994
1.3176930596285434
1.3294232649071358
1.3577712609970674
1.4105571847507332
1.4926686217008798
1.6041055718475072
1.7409579667644184
1.895405669599218
2.056695992179863
2.1945259042033234
2.3118279569892475
2.429130009775171
2.533724340175953
2.6207233626588464
2.689149560117302
2.740957966764418
2.7781036168132944
2.8044965786901277
2.8211143695014664
2.8299120234604107
2.83088954056696
2.825024437927664
2.8132942326490715
2.795698924731183
2.7781036168132944
2.7595307917888565
2.7390029325513194
2.717497556207233
2.6940371456500487
2.6695992179863146
2.644183773216031
2.616813294232649
2.5865102639296187
2.5532746823069403
2.520039100684262
2.484848484848485
2.4457478005865103
2.4027370478983383
2.355816226783969
2.303030303030303
2.242424242424242
2.175953079178885
2.101661779081134
2.021505376344086
1.9364613880742916
1.8504398826979471
1.7673509286412512
1.6989247311827955
1.6441837732160314
1.5933528836754642
1.552297165200391
1.521994134897361
1.501466275659824
1.487781036168133
1.47702834799609
1.4672531769305963
1.457478005865103
1.4486803519061584
1.4418377321603129
1.436950146627566
1.4330400782013686
1.426197458455523
1.418377321603128
1.4086021505376345
1.396871945259042
1.3841642228739004
1.3695014662756595
1.3528836754643203
1.3362658846529814
1.3196480938416422
1.3040078201368523
1.2873900293255132
1.2756598240469208
1.2658846529814272
1.2541544477028348
1.2434017595307918
1.2326490713587488
1.2218963831867058
1.2121212121212122
1.203323558162268
1.195503421309873
1.1896383186705768
1.1857282502443791
1.1837732160312806
1.18475073313783
1.1867057673509287
1.1886608015640274
1.1915933528836755
1.1945259042033236
1.1974584555229717
1.1994134897360704
1.2013685239491692
1.203323558162268
1.206256109481916
1.2111436950146628
1.217008797653959
1.224828934506354
1.203323558162268
1.1681329423264908
1.1573802541544478
1.1573802541544478
1.163245356793744
1.1710654936461389
1.1808406647116323
1.1896383186705768
1.198435972629521
1.2052785923753666
1.209188660801564
1.2101661779081134
1.2111436950146628
1.2101661779081134
1.2072336265884651
1.2052785923753666
1.2111436950146628
1.2336265884652982
1.2795698924731185
1.356793743890518
1.4672531769305963
1.608993157380254
1.7741935483870968
1.949169110459433
2.1221896383186705
2.2629521016617797
2.3792766373411536
2.4916911045943304
2.5884652981427174
2.6666666666666665
2.7253176930596283
2.7673509286412514
2.795698924731183
2.8132942326490715
2.822091886608016
2.823069403714565
2.8181818181818183
2.8044965786901277
2.7859237536656893
2.7673509286412514
2.747800586510264
2.727272727272727
2.704789833822092
2.6803519061583576
2.653958944281525
2.625610948191593
2.5943304007820136
2.5591397849462365
2.520039100684262
2.4809384164222874
2.4408602150537635
2.3958944281524928
2.3489736070381237
2.2981427174975564
2.242424242424242
2.179863147605083
2.1094819159335287
2.029325513196481
1.9403714565004888
1.8455522971652003
1.7487781036168133
1.6549364613880744
1.5777126099706744
1.512218963831867
1.4506353861192571
1.3988269794721409
1.359726295210166
1.3313782991202343
1.3118279569892473
1.2981427174975562
1.289345063538612
1.281524926686217
1.2746823069403714
1.2668621700879763
1.260019550342131
1.2531769305962854
1.2443792766373412
1.2336265884652982
1.2228739002932552
1.2121212121212122
1.2013685239491692
1.1896383186705768
1.176930596285435
1.164222873900293
1.1495601173020529
1.1348973607038124
1.118279569892473
1.1055718475073313
1.0948191593352885
1.0821114369501466
1.0694037145650048
1.0576735092864125
1.0478983382209188
1.0381231671554252
1.0283479960899315
1.0195503421309873
1.0127077223851415
1.0068426197458455
1.002932551319648
1.002932551319648
1.0058651026392962
1.0058651026392962
1.0048875855327468
1.0039100684261977
1.0039100684261977
1.0039100684261977
1.0058651026392962
1.0097751710654936
1.0166177908113392
1.024437927663734
1.0342130987292275
1.04594330400782
1.0596285434995112
1.072336265884653
1.0840664711632453
1.096774193548387
1.1114369501466277
1.126099706744868
1.1407624633431086
1.155425219941349
1.1691104594330402
1.181818181818182
1.1925708699902249
1.2003910068426198
1.2052785923753666
1.2082111436950147
1.2082111436950147
1.2101661779081134
1.219941348973607
1.24633431085044
1.2991202346041055
1.383186705767351
1.500488758553275
1.6471163245356797
1.8132942326490715
1.988269794721408
2.1593352883675463
2.2991202346041058
2.4115347018572826
2.520039100684262
2.613880742913001
2.689149560117302
2.7468230694037143
2.787878787878788
2.8152492668621703
2.83088954056696
2.8377321603128056
2.8367546432062563
2.8299120234604107
2.8152492668621703
2.7966764418377323
2.777126099706745
2.7565982404692084
2.7341153470185726
2.7096774193548385
2.6832844574780057
2.653958944281525
2.622678396871945
2.589442815249267
2.555229716520039
2.5180840664711632
2.4789833822091887
2.4408602150537635
2.40078201368524
2.355816226783969
2.304985337243402
2.247311827956989
2.182795698924731
2.10850439882698
2.0254154447702835
1.932551319648094
1.8328445747800584
1.7311827956989247
1.632453567937439
1.552297165200391
1.4868035190615836
1.426197458455523
1.3773216031280548
1.3421309872922775
1.3176930596285434
1.3020527859237536
1.2932551319648091
1.2873900293255132
1.281524926686217
1.2756598240469208
1.2688172043010753
1.260019550342131
1.2531769305962854
1.2453567937438903
1.2336265884652982
1.219941348973607
1.206256109481916
1.1915933528836755
1.1749755620723363
1.1583577712609971
1.142717497556207
1.126099706744868
1.110459433040078
1.093841642228739
1.0821114369501466
1.072336265884653
1.0606060606060606
1.0478983382209188
1.035190615835777
1.0234604105571847
1.0117302052785924
1.0019550342130987
0.9941348973607038
0.9863147605083088
0.9804496578690128
0.9765395894428152
0.9736070381231672
0.975562072336266
0.9794721407624634
0.9824046920821116
0.9853372434017597
0.9882697947214076
0.9902248289345064
0.9921798631476052
0.9951124144672532
0.9990224828934506
1.0048875855327468
1.0127077223851415
1.0224828934506354
1.035190615835777
1.0488758553274682
1.0635386119257086
1.0791788856304985
1.0948191593352885
1.110459433040078
1.126099706744868
1.141739980449658
1.1564027370478984
1.1710654936461389
1.1837732160312806
1.1935483870967742
1.2003910068426198
1.2043010752688172
1.2072336265884651
1.2101661779081134
1.2209188660801564
1.2482893450635386
1.3010752688172045
1.3851417399804498
1.501466275659824
1.6471163245356797
1.8142717497556209
1.9902248289345064
2.164222873900293
2.3059628543499517
2.421309872922776
2.532746823069404
2.627565982404692
2.702834799608993
2.758553274682307
2.7976539589442817
2.86217008797654
2.9345063538611926
2.9687194525904204
2.981427174975562
2.9804496578690127
2.970674486803519
2.952101661779081
2.9286412512218964
2.903225806451613
2.87683284457478
2.8484848484848486
2.8181818181818183
2.7869012707722387
2.7536656891495603
2.718475073313783
2.6803519061583576
2.6392961876832843
2.595307917888563
2.550342130987292
