ppg
2.5288367546432062
2.4760508308895406
2.421309872922776
2.3626588465298144
2.2952101661779083
2.2248289345063537
2.15347018572825
2.086021505376344
2.024437927663734
1.9687194525904204
1.921798631476051
1.8826979472140764
1.8504398826979471
1.8240469208211143
1.7996089931573802
1.7790811339198436
1.7605083088954057
1.7390029325513197
1.715542521994135
1.6901270772238517
1.66177908113392
1.632453567937439
1.6011730205278591
1.5669599217986314
1.533724340175953
1.499511241446725
1.466275659824047
1.4389051808406648
1.41544477028348
1.3890518084066472
1.3626588465298142
1.3362658846529814
1.3128054740957966
1.2903225806451613
1.267839687194526
1.2473118279569892
1.227761485826002
1.209188660801564
1.1925708699902249
1.1788856304985338
1.1700879765395895
1.164222873900293
1.1564027370478984
1.1485826001955035
1.1407624633431086
1.1329423264907137
1.1251221896383188
1.1173020527859236
1.1094819159335287
1.1016617790811338
1.093841642228739
1.0850439882697946
1.0791788856304985
1.0742913000977516
1.0694037145650048
1.064516129032258
1.056695992179863
1.0478983382209188
1.040078201368524
1.0342130987292275
1.029325513196481
1.0234604105571847
1.0175953079178883
1.0127077223851415
1.010752688172043
1.010752688172043
1.0068426197458455
1.002932551319648
0.9990224828934506
0.9941348973607038
0.9912023460410556
0.989247311827957
0.9882697947214076
0.9882697947214076
0.9882697947214076
0.9882697947214076
0.9882697947214076
0.9902248289345064
0.9941348973607038
0.9960899315738024
0.997067448680352
0.9980449657869012
0.9980449657869012
0.9980449657869012
0.9980449657869012
0.9990224828934506
1.0019550342130987
1.0058651026392962
1.0097751710654936
1.0156402737047898
1.0234604105571847
1.0283479960899315
1.0303030303030305
1.032258064516129
1.035190615835777
1.040078201368524
1.0518084066471165
1.0762463343108504
1.118279569892473
1.1857282502443791
1.2834799608993157
1.4134897360703813
1.547409579667644
1.6911045943304008
1.870967741935484
2.0684261974584555
2.270772238514174
2.4672531769305963
2.649071358748778
2.812316715542522
2.9530791788856305
3.072336265884653
3.1710654936461387
3.251221896383187
3.302052785923754
3.334310850439883
3.363636363636364
3.3870967741935485
3.4027370478983383
3.409579667644184
3.406647116324536
3.3929618768328447
3.3685239491691106
3.332355816226784
3.2844574780058653
3.2248289345063537
3.155425219941349
3.0821114369501466
3.005865102639296
2.921798631476051
2.833822091886608
2.7468230694037143
2.66177908113392
2.5835777126099706
2.5112414467253177
2.444770283479961
2.383186705767351
2.326490713587488
2.272727272727273
2.225806451612903
2.1818181818181817
2.1358748778103616
2.0879765395894427
2.040078201368524
1.991202346041056
1.9413489736070384
1.8914956011730208
1.842619745845552
1.7956989247311828
1.7497556207233629
1.7057673509286413
1.6637341153470186
1.629521016617791
1.5992179863147604
1.5679374389051808
1.5376344086021505
1.5102639296187683
1.4838709677419355
1.4604105571847508
1.4389051808406648
1.4203323558162269
1.401759530791789
1.3851417399804498
1.3685239491691104
1.356793743890518
1.3479960899315735
1.33822091886608
1.3284457478005864
1.3186705767350928
1.3088954056695992
1.300097751710655
1.2913000977517106
1.2825024437927663
1.273704789833822
1.2649071358748778
1.2561094819159335
1.2473118279569892
1.2404692082111437
1.2346041055718475
1.2258064516129032
1.2130987292277615
1.1974584555229717
1.1808406647116323
1.164222873900293
1.1456500488758554
1.126099706744868
1.10752688172043
1.088954056695992
1.0713587487781036
1.0596285434995112
1.050830889540567
1.0420332355816226
1.035190615835777
1.0312805474095796
1.029325513196481
1.029325513196481
1.0312805474095796
1.0361681329423265
1.043010752688172
1.0518084066471165
1.06158357771261
1.0713587487781036
1.083088954056696
1.0948191593352885
1.104594330400782
1.1143695014662756
1.1251221896383188
1.1397849462365592
1.1612903225806452
1.1915933528836755
1.2365591397849462
1.2991202346041055
1.3841642228739004
1.4916911045943304
1.6001955034213098
1.7145650048875856
1.8543499511241448
2.006842619745845
2.163245356793744
2.314760508308896
2.4545454545454546
2.578690127077224
2.6852394916911044
2.773216031280548
2.843597262952102
2.8963831867057674
2.935483870967742
2.9550342130987293
2.962854349951124
2.9667644183773216
2.964809384164223
2.9550342130987293
2.935483870967742
2.906158357771261
2.866080156402737
2.81622678396872
2.758553274682307
2.6940371456500487
2.6265884652981426
2.563049853372434
2.504398826979472
2.444770283479961
2.3870967741935485
2.334310850439883
2.2873900293255134
2.24633431085044
2.2111436950146626
2.179863147605083
2.1495601173020527
2.120234604105572
2.088954056695992
2.0547409579667644
2.021505376344086
1.9872922776148585
1.948191593352884
1.905180840664712
1.8592375366568916
1.8103616813294232
1.7605083088954057
1.710654936461388
1.6608015640273706
1.6109481915933528
1.5610948191593352
1.5141739980449658
1.4750733137829912
1.439882697947214
1.401759530791789
1.364613880742913
1.327468230694037
1.2932551319648091
1.2619745845552297
1.2326490713587488
1.206256109481916
1.1827956989247312
1.163245356793744
1.1456500488758554
1.1300097751710656
1.1202346041055715
1.1143695014662756
1.1085043988269794
1.1026392961876832
1.096774193548387
1.0899315738025417
1.0821114369501466
1.072336265884653
1.0606060606060606
1.0478983382209188
1.035190615835777
1.0224828934506354
1.0156402737047898
1.010752688172043
1.002932551319648
0.9931573802541545
0.9843597262952102
0.9765395894428152
0.9696969696969696
0.9628543499511242
0.9560117302052786
0.9501466275659824
0.9442815249266864
0.9393939393939394
0.9393939393939394
0.9413489736070382
0.9403714565004888
0.9374389051808406
0.935483870967742
0.9335288367546432
0.9315738025415444
0.9286412512218964
0.9266862170087976
0.9442815249266864
0.9736070381231672
0.989247311827957
0.9980449657869012
1.0068426197458455
1.018572825024438
1.032258064516129
1.0547409579667644
1.0899315738025417
1.1436950146627567
1.2179863147605083
1.313782991202346
1.4281524926686218
1.5571847507331378
1.694037145650049
1.833822091886608
1.9530791788856303
2.056695992179863
2.163245356793744
2.2639296187683287
2.35386119257087
2.43108504398827
2.495601173020528
2.549364613880743
2.592375366568915
2.625610948191593
2.6510263929618767
2.667644183773216
2.677419354838709
2.675464320625611
2.664711632453568
2.649071358748778
2.6265884652981426
2.5962854349951123
2.555229716520039
2.506353861192571
2.449657869012708
2.3870967741935485
2.321603128054741
2.2551319648093844
2.189638318670577
2.132942326490713
2.0821114369501466
2.0332355816226784
1.989247311827957
1.9501466275659824
1.9159335288367547
1.8856304985337244
1.857282502443793
1.828934506353861
1.801564027370479
1.7732160312805474
1.7438905180840665
1.7145650048875856
1.6881720430107527
1.6637341153470186
1.6363636363636365
1.6080156402737047
1.5796676441837731
1.5513196480938416
1.52297165200391
1.495601173020528
1.4682306940371457
1.4428152492668622
1.418377321603128
1.3958944281524928
1.3782991202346042
1.3636363636363635
1.3470185728250244
1.3294232649071358
1.3128054740957966
1.2961876832844574
1.2805474095796676
1.2658846529814272
1.2531769305962854
1.2404692082111437
1.227761485826002
1.2150537634408602
1.203323558162268
1.1945259042033236
1.1867057673509287
1.176930596285435
1.166177908113392
1.1564027370478984
1.147605083088954
1.13880742913001
1.1300097751710656
1.121212121212121
1.1124144672531768
1.1036168132942326
1.0957966764418376
1.0918866080156402
1.088954056695992
1.0840664711632453
1.0791788856304985
1.0742913000977516
1.0694037145650048
1.0654936461388074
1.06158357771261
1.0576735092864125
1.0547409579667644
1.050830889540567
1.0478983382209188
1.0449657869012707
1.0439882697947214
1.0449657869012707
1.0439882697947214
1.043010752688172
1.043010752688172
1.043010752688172
1.0439882697947214
1.0449657869012707
1.04594330400782
1.0478983382209188
1.0527859237536656
1.0625610948191593
1.0791788856304985
1.1055718475073313
1.1466275659824048
1.206256109481916
1.2864125122189638
1.3861192570869991
1.501466275659824
1.6275659824046922
1.7595307917888563
1.8914956011730208
2.0175953079178885
2.132942326490713
2.2346041055718477
2.310850439882698
2.36950146627566
2.4252199413489737
2.4731182795698925
2.5112414467253177
2.5405669599217986
2.5620723362658846
2.575757575757576
2.581622678396872
2.5806451612903225
2.5698924731182795
2.548387096774193
2.520039100684262
2.4858260019550342
2.441837732160313
2.3900293255131966
2.332355816226784
2.270772238514174
2.207233626588465
2.144672531769306
2.0869990224828934
2.034213098729228
1.9872922776148585
1.948191593352884
1.913978494623656
1.8856304985337244
1.86119257086999
1.836754643206256
1.8113391984359728
1.7859237536656891
1.7595307917888563
1.732160312805474
1.7038123167155426
1.675464320625611
1.64613880742913
1.6158357771260996
1.5865102639296187
1.5610948191593352
1.5386119257087
1.5131964809384164
1.4868035190615836
1.4613880742913
1.4379276637341154
1.4164222873900294
1.3958944281524928
1.3763440860215057
1.3577712609970674
1.3401759530791788
1.324535679374389
1.3098729227761483
1.2981427174975562
1.2883675464320623
1.2766373411534702
1.2658846529814272
1.2561094819159335
1.2473118279569892
1.238514173998045
1.2297165200391007
1.2209188660801564
1.2121212121212122
1.2043010752688172
1.195503421309873
1.1906158357771262
1.1867057673509287
1.1808406647116323
1.173998044965787
1.1671554252199414
1.160312805474096
1.1534701857282503
1.1466275659824048
1.1397849462365592
1.1329423264907137
1.1251221896383188
1.118279569892473
1.1114369501466277
1.1085043988269794
1.1065493646138806
1.1036168132942326
1.1006842619745845
1.0987292277614855
1.096774193548387
1.0957966764418376
1.0948191593352885
1.0948191593352885
1.0948191593352885
1.0948191593352885
1.0948191593352885
1.0957966764418376
1.0977517106549364
1.0977517106549364
1.0977517106549364
1.0987292277614855
1.1026392961876832
1.1124144672531768
1.1319648093841643
1.1652003910068427
1.2160312805474096
1.2864125122189638
1.375366568914956
1.4652981427174976
1.560117302052786
1.6764418377321604
1.8035190615835777
1.9345063538611929
2.060606060606061
2.176930596285435
2.281524926686217
2.3714565004887587
2.4457478005865103
2.505376344086021
2.5532746823069403
2.589442815249267
2.610948191593353
2.622678396871945
2.631476050830889
2.636363636363636
2.634408602150537
2.6236559139784945
2.6041055718475072
2.5747800586510263
2.535679374389052
2.4887585532746823
2.434017595307918
2.372434017595308
2.313782991202346
2.2561094819159337
2.1955034213098727
2.1847507331378297
2.20039100684262
2.182795698924731
2.1515151515151514
2.117302052785924
2.0840664711632453
2.0518084066471163
2.0205278592375366
1.989247311827957
1.9579667644183771
1.9286412512218964
1.9012707722385145
1.8699902248289344
1.836754643206256
1.8025415444770283
1.7683284457478006
1.7331378299120237
1.6979472140762464
1.6637341153470186
1.629521016617791
1.5972629521016617
1.5650048875855327
1.5386119257087
1.5151515151515151
1.490713587487781
1.466275659824047
1.4428152492668622
1.4203323558162269
1.3998044965786902
1.3812316715542523
1.3626588465298142
1.3440860215053765
1.3264907135874875
1.3088954056695992
1.2932551319648091
1.281524926686217
1.2727272727272727
1.2609970674486803
1.2482893450635386
1.2365591397849462
1.2258064516129032
1.2150537634408602
1.203323558162268
1.1925708699902249
1.181818181818182
1.1720430107526882
1.163245356793744
1.1593352883675463
1.1573802541544478
1.1515151515151516
1.144672531769306
1.1378299120234605
1.1300097751710656
1.1221896383186705
1.1143695014662756
1.1085043988269794
1.1036168132942326
1.0987292277614855
1.0957966764418376
1.093841642228739
1.0957966764418376
1.0987292277614855
1.1006842619745845
1.1016617790811338
1.1006842619745845
1.0987292277614855
1.0957966764418376
1.093841642228739
1.0918866080156402
1.0909090909090908
1.0909090909090908
1.0909090909090908
1.093841642228739
1.099706744868035
1.1085043988269794
1.1251221896383188
1.1564027370478984
1.2052785923753666
1.2756598240469208
1.370478983382209
1.487781036168133
1.6256109481915937
1.7781036168132942
1.93841642228739
2.099706744868035
2.2346041055718477
2.3499511241446727
2.4682306940371457
2.578690127077224
2.675464320625611
2.757575757575758
2.8240469208211145
2.87683284457478
2.917888563049853
2.9472140762463344
2.9667644183773216
2.9765395894428157
2.973607038123167
2.960899315738025
2.9423264907135875
2.9159335288367547
2.8797653958944283
2.832844574780059
2.776148582600196
2.7116324535679373
2.6392961876832843
2.5620723362658846
2.484848484848485
2.4115347018572826
2.343108504398827
2.2844574780058653
2.233626588465298
2.185728250244379
2.142717497556207
2.103616813294233
2.069403714565005
2.037145650048876
2.005865102639296
1.975562072336266
1.943304007820137
1.9100684261974583
1.8748778103616808
1.842619745845552
1.8113391984359728
1.7771260997067448
1.7419354838709675
1.7057673509286413
1.6705767350928642
1.6363636363636365
1.603128054740958
1.5708699902248289
1.5405669599217986
1.5131964809384164
1.4868035190615836
1.4623655913978495
1.4428152492668622
1.4252199413489737
1.4056695992179864
1.3851417399804498
1.3665689149560116
1.348973607038123
1.332355816226784
1.3157380254154447
1.3010752688172045
1.2873900293255132
1.273704789833822
1.2609970674486803
1.2531769305962854
1.24633431085044
1.2375366568914956
1.227761485826002
1.217008797653959
1.2072336265884651
1.1964809384164223
1.1867057673509287
1.1779081133919844
1.1700879765395895
1.163245356793744
1.1564027370478984
1.1505376344086022
1.147605083088954
1.1456500488758554
1.141739980449658
1.1368523949169111
1.130987292277615
1.126099706744868
1.121212121212121
1.1173020527859236
1.1143695014662756
1.1124144672531768
1.110459433040078
1.1094819159335287
1.1114369501466277
1.1143695014662756
1.1173020527859236
1.1192570869990224
1.1202346041055715
1.121212121212121
1.1221896383186705
1.1221896383186705
1.1231671554252198
1.1241446725317692
1.1280547409579669
1.1358748778103618
1.1485826001955035
1.1691104594330402
1.203323558162268
1.2561094819159335
1.3304007820136852
1.4291300097751711
1.5503421309872922
1.6901270772238517
1.8435972629521016
2.002932551319648
2.1593352883675463
2.3069403714565007
2.4408602150537635
2.5434995112414467
2.622678396871945
2.697947214076246
2.763440860215054
2.817204301075269
2.859237536656892
2.8914956011730206
2.913978494623656
2.9286412512218964
2.9335288367546437
2.929618768328446
2.913978494623656
2.887585532746823
2.8514173998044967
2.8044965786901277
2.745845552297165
2.678396871945259
2.6041055718475072
2.525904203323558
2.4486803519061584
2.3734115347018574
2.303030303030303
2.241446725317693
2.188660801564027
2.1436950146627565
2.1065493646138806
2.075268817204301
2.04594330400782
2.0175953079178885
1.989247311827957
1.9608993157380252
1.932551319648094
1.902248289345064
1.8699902248289344
1.8347996089931573
1.7976539589442817
1.7605083088954057
1.7282502443792769
1.6989247311827955
1.667644183773216
1.635386119257087
1.603128054740958
1.5718475073313782
1.541544477028348
1.5131964809384164
1.4868035190615836
1.4623655913978495
1.4389051808406648
1.4164222873900294
1.3949169110459434
1.3782991202346042
1.3655913978494625
1.3509286412512218
1.335288367546432
1.3206256109481915
1.3069403714565004
1.2932551319648091
1.2795698924731185
1.2649071358748778
1.2316715542521994
1.1896383186705768
1.164222873900293
1.1505376344086022
1.144672531769306
1.13880742913001
1.1329423264907137
1.126099706744868
1.118279569892473
1.1094819159335287
1.099706744868035
1.088954056695992
1.078201368523949
1.067448680351906
1.0586510263929618
1.050830889540567
1.0469208211143697
1.0449657869012707
1.0420332355816226
1.0391006842619743
1.0361681329423265
1.0342130987292275
1.0312805474095796
1.0273704789833822
1.0224828934506354
1.018572825024438
1.0156402737047898
1.013685239491691
1.0146627565982405
1.0175953079178883
1.018572825024438
1.0195503421309873
1.0205278592375366
1.021505376344086
1.0254154447702837
1.0342130987292275
1.0518084066471165
1.0840664711632453
1.1358748778103618
1.2130987292277615
1.3157380254154447
1.4222873900293256
1.5376344086021505
1.6823069403714566
1.844574780058651
2.013685239491691
2.179863147605083
2.3362658846529816
2.4780058651026398
2.6021505376344085
2.70772238514174
2.795698924731183
2.866080156402737
2.913000977517106
2.9442815249266863
2.9745845552297165
2.99902248289345
3.0146627565982405
3.021505376344086
3.018572825024438
3.005865102639296
2.981427174975562
2.9442815249266863
2.8944281524926687
2.833822091886608
2.763440860215054
2.69208211143695
2.619745845552297
2.5405669599217986
2.4594330400782014
2.3792766373411536
2.304007820136853
2.2355816226783967
2.1739980449657867
2.1192570869990224
2.071358748778104
2.0283479960899315
1.989247311827957
1.9560117302052784
1.924731182795699
1.8905180840664717
1.8543499511241448
1.8162267839687196
1.7771260997067448
1.737047898338221
1.696969696969697
1.6559139784946235
1.6158357771260996
1.576735092864125
1.5405669599217986
1.5073313782991202
1.479960899315738
1.457478005865103
1.434017595307918
1.412512218963832
1.3919843597262953
1.3734115347018572
1.356793743890518
1.3411534701857282
1.3255131964809383
1.310850439882698
1.2961876832844574
1.2825024437927663
1.2727272727272727
1.2658846529814272
1.2570869990224829
1.2482893450635386
1.2394916911045943
1.2297165200391007
1.2189638318670577
1.2082111436950147
1.1974584555229717
1.18475073313783
1.1691104594330402
1.152492668621701
1.133919843597263
1.118279569892473
1.1055718475073313
1.0899315738025417
1.0733137829912025
1.056695992179863
1.0410557184750733
1.0283479960899315
1.0175953079178883
1.0087976539589445
1.002932551319648
1.0
0.9990224828934506
1.002932551319648
1.0097751710654936
1.0166177908113392
1.0234604105571847
1.029325513196481
1.0361681329423265
1.043010752688172
1.0488758553274682
1.0557184750733135
1.0625610948191593
1.0684261974584557
1.075268817204301
1.0801564027370478
1.086021505376344
1.0909090909090908
1.093841642228739
1.0977517106549364
1.10752688172043
1.1270772238514175
1.1622678396871946
1.2179863147605083
1.2961876832844574
1.3988269794721409
1.5239491691104594
1.667644183773216
1.8005865102639296
1.9286412512218964
2.072336265884653
2.217986314760508
2.356793743890518
2.482893450635386
2.5943304007820136
2.689149560117302
2.7673509286412514
2.8299120234604107
2.878787878787879
2.916911045943304
2.9374389051808407
2.946236559139785
2.9530791788856305
2.952101661779081
2.940371456500489
2.917888563049853
2.8826979472140764
2.834799608993157
2.776148582600196
2.7067448680351904
2.6295210166177907
2.548387096774193
2.466275659824047
2.3929618768328447
2.326490713587488
2.260997067448681
2.20039100684262
2.146627565982405
2.0987292277614857
2.056695992179863
2.018572825024438
1.9833822091886608
1.948191593352884
1.9130009775171064
1.8778103616813293
1.844574780058651
1.8132942326490715
1.7771260997067448
1.7390029325513197
1.7008797653958945
1.6627565982404693
1.6256109481915937
1.590420332355816
1.5581622678396871
1.5268817204301075
1.495601173020528
1.4652981427174976
1.436950146627566
1.414467253176931
1.393939393939394
1.3714565004887584
1.3499511241446724
1.3294232649071358
1.3098729227761483
1.2913000977517106
1.273704789833822
1.2580645161290325
1.2434017595307918
1.2297165200391007
1.217008797653959
1.2072336265884651
1.1994134897360704
1.1886608015640274
1.176930596285435
1.164222873900293
1.152492668621701
1.1407624633431086
1.1290322580645162
1.1173020527859236
1.1055718475073313
1.093841642228739
1.0821114369501466
1.0713587487781036
1.0635386119257086
1.0586510263929618
1.050830889540567
1.0410557184750733
1.0312805474095796
1.0234604105571847
1.0175953079178883
1.0127077223851415
1.007820136852395
1.0048875855327468
1.0039100684261977
1.002932551319648
1.0048875855327468
1.0087976539589445
1.010752688172043
1.0117302052785924
1.0127077223851415
1.0156402737047898
1.018572825024438
1.0205278592375366
1.0234604105571847
1.0254154447702837
1.0283479960899315
1.032258064516129
1.0391006842619743
1.050830889540567
1.0694037145650048
1.099706744868035
1.147605083088954
1.2189638318670577
1.3157380254154447
1.435972629521017
1.5786901270772238
1.7380254154447703
1.905180840664712
2.071358748778104
2.231671554252199
2.360703812316716
2.4652981427174976
2.5698924731182795
2.664711632453568
2.745845552297165
2.8132942326490715
2.866080156402737
2.906158357771261
2.935483870967742
2.956011730205278
2.967741935483871
2.9696969696969697
2.962854349951124
2.9442815249266863
2.917888563049853
2.8690127077223853
2.8181818181818183
2.776148582600196
2.718475073313783
2.650048875855328
2.5747800586510263
2.496578690127077
2.418377321603128
2.343108504398827
2.271749755620724
2.2130987292277613
2.163245356793744
2.115347018572825
2.072336265884653
2.034213098729228
2.0
1.9687194525904204
1.93841642228739
1.9071358748778104
1.8758553274682308
1.842619745845552
1.8084066471163245
1.772238514173998
1.739980449657869
1.7086999022482894
1.6744868035190617
1.6392961876832846
1.603128054740958
1.5679374389051808
1.5347018572825024
1.5034213098729228
1.474095796676442
1.4467253176930597
1.4193548387096775
1.392961876832845
1.3724340175953078
1.3548387096774193
1.335288367546432
1.3157380254154447
1.2971652003910068
1.2795698924731185
1.2619745845552297
1.2453567937438903
1.2297165200391007
1.2150537634408602
1.2023460410557183
1.1886608015640274
1.1749755620723363
1.1652003910068427
1.1593352883675463
1.1505376344086022
1.1407624633431086
1.1319648093841643
1.1241446725317692
1.1173020527859236
1.1114369501466277
1.104594330400782
1.0987292277614855
1.0918866080156402
1.086021505376344
1.083088954056696
1.0811339198435972
1.0762463343108504
1.0703812316715542
1.0654936461388074
1.06158357771261
1.0586510263929618
1.056695992179863
1.0547409579667644
1.0527859237536656
1.050830889540567
1.0478983382209188
1.0449657869012707
1.0449657869012707
1.04594330400782
1.0449657869012707
1.043010752688172
1.0410557184750733
1.0391006842619743
1.0381231671554252
1.0391006842619743
1.043010752688172
1.053763440860215
1.0742913000977516
1.1094819159335287
1.1544477028347997
1.2150537634408602
1.303030303030303
1.4164222873900294
1.552297165200391
1.7038123167155426
1.865102639296188
2.0283479960899315
2.185728250244379
2.3304007820136854
2.458455522971652
2.56891495601173
2.649071358748778
2.70772238514174
2.7624633431085046
2.8084066471163247
2.844574780058651
2.8719452590420333
2.889540566959922
2.898338220918866
2.898338220918866
2.8885630498533725
2.8670576735092865
2.833822091886608
2.788856304985337
2.7390029325513194
2.6823069403714563
2.6158357771261
2.5405669599217986
2.4613880742913
2.3822091886608017
2.30791788856305
2.239491691104594
2.179863147605083
2.1280547409579667
2.083088954056696
2.0439882697947214
2.0117302052785924
1.9833822091886608
1.9550342130987293
1.9257086999022484
1.895405669599218
1.8621700879765395
1.8172043010752688
1.7741935483870968
1.7419354838709675
1.7038123167155426
1.664711632453568
1.6256109481915937
1.587487781036168
1.5562072336265884
1.5298142717497556
1.5024437927663734
1.4760508308895406
1.4516129032258065
1.4291300097751711
1.4086021505376345
1.3900293255131966
1.3724340175953078
1.3548387096774193
1.3372434017595307
1.3186705767350928
1.3040078201368523
