ppg
2.5131964809384164
2.5698924731182795
2.6158357771261
2.6529814271749754
2.6832844574780057
2.701857282502444
2.7126099706744866
2.724340175953079
2.7331378299120237
2.73802541544477
2.736070381231672
2.727272727272727
2.710654936461388
2.6852394916911044
2.649071358748778
2.603128054740958
2.548387096774193
2.49266862170088
2.434017595307918
2.366568914956012
2.2952101661779083
2.222873900293255
2.15347018572825
2.088954056695992
2.0303030303030303
1.9794721407624636
1.9345063538611929
1.8963831867057677
1.8631476050830889
1.833822091886608
1.8093841642228736
1.7869012707722385
1.7644183773216031
1.7409579667644184
1.7174975562072337
1.6920821114369502
1.6666666666666667
1.640273704789834
1.6129032258064515
1.585532746823069
1.5581622678396871
1.530791788856305
1.5083088954056696
1.487781036168133
1.4652981427174976
1.4428152492668622
1.4203323558162269
1.3988269794721409
1.3792766373411536
1.3607038123167154
1.343108504398827
1.3264907135874875
1.310850439882698
1.2961876832844574
1.2825024437927663
1.2727272727272727
1.2658846529814272
1.2570869990224829
1.2473118279569892
1.238514173998045
1.2297165200391007
1.2218963831867058
1.2150537634408602
1.209188660801564
1.2043010752688172
1.198435972629521
1.1925708699902249
1.1886608015640274
1.1857282502443791
1.1788856304985338
1.1700879765395895
1.1593352883675463
1.147605083088954
1.1368523949169111
1.1270772238514175
1.1202346041055715
1.115347018572825
1.1133919843597262
1.1143695014662756
1.1173020527859236
1.1221896383186705
1.1026392961876832
1.0703812316715542
1.053763440860215
1.0439882697947214
1.0381231671554252
1.0332355816226784
1.0283479960899315
1.0234604105571847
1.0175953079178883
1.013685239491691
1.0127077223851415
1.0195503421309873
1.0361681329423265
1.067448680351906
1.1173020527859236
1.1906158357771262
1.2883675464320623
1.4105571847507332
1.552297165200391
1.7057673509286413
1.8631476050830889
2.018572825024438
2.1652003910068425
2.2825024437927666
2.378299120234604
2.472140762463343
2.558162267839687
2.633431085043988
2.697947214076246
2.7536656891495603
2.801564027370479
2.841642228739003
2.87683284457478
2.905180840664712
2.927663734115347
2.9423264907135875
2.946236559139785
2.940371456500489
2.929618768328446
2.911045943304008
2.8826979472140764
2.8426197458455524
2.790811339198436
2.7282502443792764
2.656891495601173
2.5777126099706744
2.493646138807429
2.409579667644184
2.334310850439883
2.2658846529814274
2.1974584555229715
2.133919843597263
2.0772238514174
2.029325513196481
1.988269794721408
1.95405669599218
1.9237536656891496
1.8963831867057677
1.869012707722385
1.8406647116324533
1.8103616813294232
1.7820136852394917
1.7546432062561097
1.7233626588465298
1.6901270772238517
1.6559139784946235
1.6207233626588464
1.5865102639296187
1.5532746823069403
1.521994134897361
1.4926686217008798
1.4652981427174976
1.4389051808406648
1.418377321603128
1.3998044965786902
1.3792766373411536
1.3577712609970674
1.3372434017595307
1.3176930596285434
1.2991202346041055
1.2805474095796676
1.2619745845552297
1.2443792766373412
1.2258064516129032
1.2072336265884651
1.1886608015640274
1.1759530791788857
1.1652003910068427
1.1544477028347997
1.1456500488758554
1.13880742913001
1.1348973607038124
1.1329423264907137
1.1319648093841643
1.1319648093841643
1.130987292277615
1.1290322580645162
1.126099706744868
1.1251221896383188
1.1241446725317692
1.1192570869990224
1.1124144672531768
1.104594330400782
1.0957966764418376
1.088954056695992
1.083088954056696
1.0791788856304985
1.0762463343108504
1.075268817204301
1.0762463343108504
1.0791788856304985
1.083088954056696
1.088954056695992
1.0918866080156402
1.093841642228739
1.093841642228739
1.093841642228739
1.0948191593352885
1.1006842619745845
1.115347018572825
1.144672531769306
1.1925708699902249
1.2639296187683284
1.343108504398827
1.434017595307918
1.552297165200391
1.6901270772238517
1.839687194525904
1.991202346041056
2.1378299120234603
2.274682306940372
2.3978494623655915
2.504398826979472
2.5943304007820136
2.668621700879765
2.729227761485826
2.76930596285435
2.7966764418377323
2.823069403714565
2.84652981427175
2.866080156402737
2.8807429130009776
2.8905180840664717
2.89345063538612
2.889540566959922
2.877810361681329
2.8563049853372435
2.8240469208211145
2.7839687194525906
2.735092864125122
2.674486803519061
2.6041055718475072
2.525904203323558
2.442815249266862
2.357771260997068
2.274682306940372
2.196480938416422
2.1251221896383186
2.06158357771261
2.005865102639296
1.9579667644183771
1.919843597262952
1.8885630498533723
1.858260019550342
1.828934506353861
1.8005865102639296
1.7712609970674489
1.7409579667644184
1.7096774193548387
1.6774193548387095
1.6441837732160314
1.6109481915933528
1.5777126099706744
1.5503421309872922
1.5239491691104594
1.4946236559139785
1.4652981427174976
1.435972629521017
1.4076246334310851
1.380254154447703
1.35386119257087
1.3284457478005864
1.3049853372434017
1.2834799608993157
1.2639296187683284
1.2453567937438903
1.2326490713587488
1.2218963831867058
1.209188660801564
1.195503421309873
1.1808406647116323
1.166177908113392
1.1515151515151516
1.13880742913001
1.1270772238514175
1.1163245356793745
1.10752688172043
1.099706744868035
1.0948191593352885
1.0928641251221896
1.0899315738025417
1.086021505376344
1.0811339198435972
1.0762463343108504
1.0703812316715542
1.0654936461388074
1.0596285434995112
1.053763440860215
1.0469208211143697
1.040078201368524
1.032258064516129
1.0283479960899315
1.0273704789833822
1.024437927663734
1.0224828934506354
1.0205278592375366
1.0195503421309873
1.0195503421309873
1.0195503421309873
1.0195503421309873
1.018572825024438
1.0166177908113392
1.0146627565982405
1.0156402737047898
1.0205278592375366
1.0283479960899315
1.0439882697947214
1.0742913000977516
1.1231671554252198
1.1945259042033236
1.289345063538612
1.4076246334310851
1.544477028347996
1.694037145650049
1.8494623655913975
1.9833822091886608
2.101661779081134
2.2248289345063537
2.3411534701857284
2.444770283479961
2.535679374389052
2.6129032258064515
2.677419354838709
2.7311827956989245
2.7781036168132944
2.819159335288368
2.854349951124145
2.8836754643206257
2.900293255131965
2.909090909090909
2.917888563049853
2.919843597262952
2.913000977517106
2.8963831867057674
2.8690127077223853
2.8299120234604107
2.787878787878788
2.73802541544477
2.6695992179863146
2.590420332355816
2.5131964809384164
2.4379276637341154
2.356793743890518
2.275659824046921
2.19941348973607
2.1300097751710654
2.069403714565005
2.0175953079178885
1.9726295210166176
1.9345063538611929
1.900293255131965
1.868035190615836
1.8377321603128052
1.8103616813294232
1.7839687194525904
1.7546432062561097
1.7243401759530792
1.694037145650049
1.6637341153470186
1.635386119257087
1.607038123167155
1.5786901270772238
1.5503421309872922
1.521016617790811
1.4916911045943304
1.4672531769305963
1.444770283479961
1.418377321603128
1.3919843597262953
1.3655913978494625
1.3401759530791788
1.3157380254154447
1.2932551319648091
1.273704789833822
1.2561094819159335
1.241446725317693
1.227761485826002
1.2160312805474096
1.2082111436950147
1.2023460410557183
1.1964809384164223
1.1896383186705768
1.181818181818182
1.1749755620723363
1.1671554252199414
1.1593352883675463
1.1515151515151516
1.142717497556207
1.1358748778103618
1.1290322580645162
1.126099706744868
1.126099706744868
1.1241446725317692
1.121212121212121
1.1173020527859236
1.1124144672531768
1.1065493646138806
1.099706744868035
1.0928641251221896
1.0869990224828934
1.0821114369501466
1.0791788856304985
1.0772238514173995
1.0772238514173995
1.078201368523949
1.078201368523949
1.078201368523949
1.0772238514173995
1.0762463343108504
1.0742913000977516
1.0733137829912025
1.0733137829912025
1.0772238514173995
1.0899315738025417
1.1163245356793745
1.1534701857282503
1.2052785923753666
1.2825024437927663
1.3841642228739004
1.5073313782991202
1.64613880742913
1.7947214076246334
1.9442815249266865
2.089931573802541
2.225806451612903
2.347996089931574
2.455522971652004
2.547409579667644
2.613880742913001
2.664711632453568
2.7145650048875853
2.760508308895406
2.80058651026393
2.8367546432062563
2.868035190615836
2.8944281524926687
2.913978494623656
2.9257086999022484
2.927663734115347
2.919843597262952
2.9012707722385143
2.870967741935484
2.8289345063538613
2.7751710654936463
2.710654936461388
2.634408602150537
2.549364613880743
2.458455522971652
2.366568914956012
2.2766373411534704
2.189638318670577
2.110459433040078
2.0410557184750733
1.9853372434017595
1.9403714565004888
1.8993157380254155
1.8621700879765395
1.827956989247312
1.7956989247311828
1.7634408602150538
1.7311827956989247
1.6979472140762464
1.6627565982404693
1.6256109481915937
1.5865102639296187
1.5513196480938416
1.5190615835777126
1.482893450635386
1.444770283479961
1.4066471163245358
1.3695014662756595
1.335288367546432
1.303030303030303
1.2746823069403714
1.2482893450635386
1.224828934506354
1.2043010752688172
1.1857282502443791
1.1720430107526882
1.1612903225806452
1.147605083088954
1.133919843597263
1.121212121212121
1.1094819159335287
1.0977517106549364
1.0869990224828934
1.0791788856304985
1.072336265884653
1.0684261974584557
1.0684261974584557
1.0713587487781036
1.0772238514173995
1.0840664711632453
1.0909090909090908
1.0977517106549364
1.1036168132942326
1.10752688172043
1.110459433040078
1.1114369501466277
1.1114369501466277
1.1094819159335287
1.1065493646138806
1.1026392961876832
1.1016617790811338
1.1016617790811338
1.0977517106549364
1.0918866080156402
1.0850439882697946
1.078201368523949
1.0713587487781036
1.0654936461388074
1.06158357771261
1.0596285434995112
1.0576735092864125
1.0557184750733135
1.056695992179863
1.0586510263929618
1.0576735092864125
1.0576735092864125
1.0596285434995112
1.0684261974584557
1.0909090909090908
1.1329423264907137
1.198435972629521
1.289345063538612
1.4056695992179864
1.542521994134897
1.672531769305963
1.7996089931573802
1.943304007820137
2.088954056695992
2.2277614858260018
2.3548387096774195
2.4672531769305963
2.5650048875855327
2.6471163245356792
2.716520039100684
2.7751710654936463
2.823069403714565
2.863147605083089
2.8885630498533725
2.9042033235581624
2.921798631476051
2.9374389051808407
2.949169110459433
2.95405669599218
2.9501466275659824
2.9374389051808407
2.913000977517106
2.875855327468231
2.8260019550342133
2.763440860215054
2.696969696969697
2.625610948191593
2.544477028347996
2.4574780058651027
2.36950146627566
2.283479960899316
2.203323558162268
2.1309872922776147
2.0684261974584555
2.013685239491691
1.9667644183773216
1.9266862170087975
1.8905180840664717
1.86119257086999
1.8347996089931573
1.8064516129032255
1.7771260997067448
1.7468230694037146
1.715542521994135
1.683284457478006
1.651026392961877
1.6177908113391983
1.58455522971652
1.552297165200391
1.520039100684262
1.4936461388074291
1.4701857282502444
1.4437927663734116
1.4164222873900294
1.3900293255131966
1.364613880742913
1.3411534701857282
1.3196480938416422
1.2991202346041055
1.2805474095796676
1.2639296187683284
1.2473118279569892
1.2316715542521994
1.2209188660801564
1.2111436950146628
1.187683284457478
1.1583577712609971
1.1378299120234605
1.1221896383186705
1.110459433040078
1.1006842619745845
1.093841642228739
1.0879765395894427
1.0821114369501466
1.0762463343108504
1.0742913000977516
1.0733137829912025
1.0694037145650048
1.0635386119257086
1.056695992179863
1.0478983382209188
1.0381231671554252
1.029325513196481
1.021505376344086
1.0146627565982405
1.0087976539589445
1.0039100684261977
1.0019550342130987
1.0048875855327468
1.010752688172043
1.0166177908113392
1.0224828934506354
1.0273704789833822
1.0303030303030305
1.0312805474095796
1.029325513196481
1.0263929618768328
1.021505376344086
1.0166177908113392
1.013685239491691
1.0166177908113392
1.029325513196481
1.056695992179863
1.1036168132942326
1.1759530791788857
1.273704789833822
1.396871945259042
1.541544477028348
1.699902248289345
1.865102639296188
2.029325513196481
2.185728250244379
2.329423264907136
2.4408602150537635
2.5288367546432062
2.613880742913001
2.689149560117302
2.7536656891495603
2.8084066471163247
2.854349951124145
2.89345063538612
2.9257086999022484
2.9530791788856305
2.9745845552297165
2.9902248289345064
2.994134897360704
2.989247311827957
2.9804496578690127
2.963831867057673
2.936461388074292
2.898338220918866
2.849462365591398
2.788856304985337
2.716520039100684
2.636363636363636
2.5513196480938416
2.463343108504399
2.376344086021505
2.300097751710655
2.231671554252199
2.163245356793744
2.1006842619745845
2.0449657869012707
1.9980449657869013
1.956989247311828
1.920821114369501
1.8885630498533723
1.857282502443793
1.825024437927664
1.7927663734115349
1.7634408602150538
1.7350928641251222
1.7018572825024438
1.6666666666666667
1.6314760508308896
1.5962854349951123
1.563049853372434
1.5298142717497556
1.498533724340176
1.4672531769305963
1.436950146627566
1.4076246334310851
1.3782991202346042
1.3548387096774193
1.3343108504398826
1.310850439882698
1.2873900293255132
1.2649071358748778
1.2434017595307918
1.2258064516129032
1.2111436950146628
1.1974584555229717
1.18475073313783
1.1730205278592376
1.163245356793744
1.1564027370478984
1.1515151515151516
1.144672531769306
1.1368523949169111
1.1280547409579669
1.1192570869990224
1.1133919843597262
1.1143695014662756
1.1251221896383188
1.1515151515151516
1.1964809384164223
1.262952101661779
1.3519061583577712
1.4437927663734116
1.541544477028348
1.6608015640273706
1.7917888563049853
1.9257086999022484
2.053763440860215
2.172043010752688
2.2766373411534704
2.367546432062561
2.443792766373412
2.506353861192571
2.558162267839687
2.592375366568915
2.6158357771261
2.638318670576735
2.6578690127077222
2.6715542521994133
2.679374389051808
2.679374389051808
2.670576735092864
2.6510263929618767
2.6207233626588464
2.5777126099706744
2.52297165200391
2.4565004887585533
2.3900293255131966
2.320625610948192
2.241446725317693
2.1593352883675463
2.0791788856304985
2.002932551319648
1.9345063538611929
1.873900293255132
1.8211143695014664
1.7771260997067448
1.7390029325513197
1.7057673509286413
1.6793743890518085
1.656891495601173
1.632453567937439
1.606060606060606
1.5786901270772238
1.5493646138807429
1.5190615835777126
1.487781036168133
1.455522971652004
1.423264907135875
1.3900293255131966
1.3577712609970674
1.3313782991202343
1.3069403714565004
1.278592375366569
1.249266862170088
1.219941348973607
1.1915933528836755
1.164222873900293
1.1397849462365592
1.118279569892473
1.1006842619745845
1.086021505376344
1.072336265884653
1.0596285434995112
1.0518084066471165
1.0449657869012707
1.0342130987292275
1.0224828934506354
1.0117302052785924
1.0019550342130987
0.9921798631476052
0.9824046920821116
0.9745845552297164
0.9687194525904204
0.9648093841642228
0.9618768328445748
0.9618768328445748
0.9638318670576737
0.9628543499511242
0.9589442815249268
0.9530791788856304
0.9452590420332356
0.9364613880742912
0.9286412512218964
0.9208211143695014
0.913978494623656
0.9100684261974584
0.9081133919843596
0.9071358748778104
0.9100684261974584
0.913978494623656
0.913978494623656
0.9120234604105572
0.9100684261974584
0.9081133919843596
0.906158357771261
0.9042033235581622
0.9022482893450636
0.9022482893450636
0.9032258064516128
0.9042033235581622
0.9081133919843596
0.9130009775171064
0.9159335288367546
0.916911045943304
0.9178885630498532
0.9188660801564028
0.9217986314760508
0.9266862170087976
0.9335288367546432
0.9403714565004888
0.9481915933528836
0.9560117302052786
0.9618768328445748
0.9687194525904204
0.9745845552297164
0.9775171065493646
0.9804496578690128
0.9872922776148584
1.002932551319648
1.0342130987292275
1.088954056695992
1.1730205278592376
1.2873900293255132
1.4301075268817205
1.5972629521016617
1.7556207233626588
1.9090909090909087
2.083088954056696
2.260019550342131
2.4271749755620724
2.578690127077224
2.710654936461388
2.823069403714565
2.916911045943304
2.9824046920821115
3.0283479960899315
3.071358748778104
3.1094819159335287
3.133919843597263
3.1495601173020527
3.167155425219941
3.1837732160312804
3.1955034213098727
3.19941348973607
3.1945259042033234
3.1788856304985336
3.150537634408602
3.110459433040078
3.0576735092864125
2.9931573802541545
2.924731182795699
2.8514173998044967
2.76930596285435
2.6803519061583576
2.589442815249267
2.5004887585532747
2.4164222873900294
2.340175953079179
2.2737047898338223
2.2160312805474094
2.1652003910068425
2.121212121212121
2.083088954056696
2.0498533724340176
2.0195503421309877
1.986314760508309
1.9521016617790807
1.9159335288367547
1.8797653958944285
1.8435972629521016
1.8084066471163245
1.7732160312805474
1.7380254154447703
1.7028347996089932
1.6686217008797657
1.6392961876832846
1.6129032258064515
1.58455522971652
1.555229716520039
1.525904203323558
1.4965786901270772
1.469208211143695
1.4418377321603129
1.41544477028348
1.3890518084066472
1.3636363636363635
1.3391984359726294
1.316715542521994
1.300097751710655
1.2873900293255132
1.2717497556207231
1.2561094819159335
1.2424242424242424
1.2316715542521994
1.2218963831867058
1.2150537634408602
1.2082111436950147
1.2023460410557183
1.1964809384164223
1.1906158357771262
1.187683284457478
1.1857282502443791
1.181818181818182
1.1779081133919844
1.173998044965787
1.1700879765395895
1.166177908113392
1.1622678396871946
1.1593352883675463
1.155425219941349
1.1515151515151516
1.1485826001955035
1.1495601173020529
1.1564027370478984
1.1710654936461389
1.1964809384164223
1.2375366568914956
1.2971652003910068
1.3782991202346042
1.479960899315738
1.598240469208211
1.7282502443792769
1.8641251221896384
1.9990224828934504
2.126099706744868
2.228739002932551
2.3118279569892475
2.393939393939394
2.4672531769305963
2.5288367546432062
2.579667644183773
2.6207233626588464
2.654936461388074
2.6823069403714563
2.7038123167155423
2.720430107526881
2.732160312805474
2.736070381231672
2.730205278592375
2.716520039100684
2.696969696969697
2.668621700879765
2.6295210166177907
2.578690127077224
2.5180840664711632
2.4486803519061584
2.3734115347018574
2.2932551319648096
2.2130987292277613
2.134897360703812
2.069403714565005
2.013685239491691
1.9608993157380252
1.913978494623656
1.873900293255132
1.839687194525904
1.804496578690127
1.775171065493646
1.75366568914956
1.7302052785923754
1.7057673509286413
1.6803519061583578
1.656891495601173
1.635386119257087
1.6099706744868034
1.581622678396872
1.552297165200391
1.52297165200391
1.4848484848484849
1.4506353861192571
1.426197458455523
1.3988269794721409
1.3616813294232648
1.327468230694037
1.3020527859237536
1.278592375366569
1.2502443792766371
1.2218963831867058
1.2013685239491692
1.1788856304985338
1.1505376344086022
1.1270772238514175
1.110459433040078
1.0948191593352885
1.0811339198435972
1.0713587487781036
1.0684261974584557
1.0694037145650048
1.0703812316715542
1.0713587487781036
1.0713587487781036
1.0713587487781036
1.0703812316715542
1.0694037145650048
1.0684261974584557
1.0664711632453567
1.0625610948191593
1.0586510263929618
1.0557184750733135
1.0518084066471165
1.0498533724340176
1.050830889540567
1.0498533724340176
1.0478983382209188
1.04594330400782
1.0449657869012707
1.0449657869012707
1.04594330400782
1.0488758553274682
1.050830889540567
1.0518084066471165
1.0527859237536656
1.0547409579667644
1.056695992179863
1.056695992179863
1.0547409579667644
1.0527859237536656
1.050830889540567
1.0498533724340176
1.0498533724340176
1.0527859237536656
1.0557184750733135
1.0586510263929618
1.06158357771261
1.0664711632453567
1.072336265884653
1.075268817204301
1.0762463343108504
1.075268817204301
1.075268817204301
1.0762463343108504
1.0801564027370478
1.110459433040078
1.1720430107526882
1.2258064516129032
1.2825024437927663
1.3988269794721409
1.5571847507331378
1.678396871945259
1.782991202346041
1.921798631476051
2.110459433040078
2.280547409579668
2.396871945259042
2.5131964809384164
2.6402737047898337
2.760508308895406
2.849462365591398
2.9071358748778104
2.946236559139785
2.98435972629521
3.018572825024438
3.042033235581622
3.06158357771261
3.081133919843597
3.0928641251221896
3.0987292277614857
3.0948191593352883
3.078201368523949
3.050830889540567
3.0117302052785924
2.963831867057673
2.90811339198436
2.8611925708699903
2.791788856304985
2.6881720430107525
2.5884652981427174
2.4946236559139785
2.4086021505376345
2.3304007820136854
2.260997067448681
2.20039100684262
2.147605083088954
2.101661779081134
2.064516129032258
2.032258064516129
2.0
1.967741935483871
1.9345063538611929
1.9012707722385145
1.8670576735092863
1.8328445747800584
1.7986314760508308
1.7653958944281525
1.732160312805474
1.699902248289345
1.672531769305963
1.64613880742913
1.616813294232649
1.565982404692082
1.5053763440860215
1.4613880742913
1.426197458455523
1.3958944281524928
1.3685239491691104
1.3440860215053765
1.321603128054741
1.300097751710655
1.2805474095796676
1.2668621700879763
1.2551319648093842
1.2424242424242424
1.2297165200391007
1.217008797653959
1.2052785923753666
1.1935483870967742
1.1837732160312806
1.173998044965787
1.1652003910068427
1.1573802541544478
1.1495601173020529
1.144672531769306
1.1407624633431086
1.133919843597263
1.126099706744868
1.118279569892473
1.110459433040078
1.1036168132942326
1.0977517106549364
1.0928641251221896
1.088954056695992
1.0869990224828934
1.086021505376344
1.086021505376344
1.0879765395894427
1.0909090909090908
1.0909090909090908
1.0899315738025417
1.0869990224828934
1.0821114369501466
1.0772238514173995
1.0733137829912025
1.0733137829912025
1.0801564027370478
1.0977517106549364
1.130987292277615
1.173998044965787
1.23069403714565
1.310850439882698
1.412512218963832
1.530791788856305
1.6598240469208212
1.793743890518084
1.9237536656891496
2.04594330400782
2.156402737047898
2.254154447702835
2.3382209188660803
2.4086021505376345
2.458455522971652
2.4946236559139785
2.529814271749756
2.5620723362658846
2.589442815249267
2.611925708699902
2.6295210166177907
2.6422287390029324
2.650048875855328
2.650048875855328
2.6422287390029324
2.624633431085044
2.5992179863147604
2.565982404692082
2.52297165200391
2.4711632453567938
2.4115347018572826
2.345063538611926
2.274682306940372
2.203323558162268
2.133919843597263
2.067448680351906
2.005865102639296
1.9501466275659824
1.9012707722385145
1.8621700879765395
1.828934506353861
1.796676441837732
1.7653958944281525
1.737047898338221
1.7086999022482894
1.6813294232649072
1.653958944281525
1.6275659824046922
1.6011730205278591
1.5747800586510263
1.5483870967741935
1.5249266862170088
1.5024437927663734
1.47702834799609
1.4496578690127078
1.4213098729227762
1.392961876832845
1.364613880742913
1.3372434017595307
1.3098729227761483
1.2834799608993157
1.2590420332355816
1.2355816226783969
1.2189638318670577
1.206256109481916
1.1925708699902249
1.1798631476050832
1.1671554252199414
1.155425219941349
1.144672531769306
1.1358748778103618
1.1270772238514175
1.1192570869990224
1.1124144672531768
1.1055718475073313
1.0987292277614855
1.0948191593352885
1.0918866080156402
1.086021505376344
1.078201368523949
1.0703812316715542
1.06158357771261
1.053763440860215
1.0449657869012707
1.0361681329423265
1.0273704789833822
1.018572825024438
1.0117302052785924
1.0087976539589445
1.0087976539589445
1.007820136852395
1.007820136852395
1.007820136852395
1.0068426197458455
1.0058651026392962
1.002932551319648
1.0
0.997067448680352
0.9941348973607038
0.9902248289345064
