ppg
2.163245356793744
2.2844574780058653
2.377321603128055
2.4486803519061584
2.5141739980449658
2.5698924731182795
2.613880742913001
2.6471163245356792
2.670576735092864
2.684261974584555
2.689149560117302
2.687194525904203
2.678396871945259
2.662756598240469
2.6422287390029324
2.616813294232649
2.5835777126099706
2.5434995112414467
2.495601173020528
2.439882697947214
2.378299120234604
2.312805474095797
2.243401759530792
2.1730205278592374
2.104594330400782
2.038123167155425
1.975562072336266
1.924731182795699
1.8807429130009776
1.835777126099707
1.793743890518084
1.7546432062561097
1.7194525904203324
1.689149560117302
1.6608015640273706
1.6344086021505375
1.6099706744868034
1.58455522971652
1.573802541544477
1.5757575757575757
1.56891495601173
1.5532746823069403
1.533724340175953
1.5131964809384164
1.4916911045943304
1.469208211143695
1.4467253176930597
1.4242424242424243
1.401759530791789
1.380254154447703
1.3587487781036167
1.3362658846529814
1.3196480938416422
1.3049853372434017
1.2864125122189638
1.2649071358748778
1.241446725317693
1.217008797653959
1.1915933528836755
1.166177908113392
1.144672531769306
1.1329423264907137
1.1358748778103618
1.1612903225806452
1.203323558162268
1.2668621700879763
1.3616813294232648
1.4838709677419355
1.6256109481915937
1.7771260997067448
1.9286412512218964
2.074291300097752
2.207233626588465
2.32355816226784
2.4222873900293256
2.5034213098729228
2.56891495601173
2.6129032258064515
2.6422287390029324
2.667644183773216
2.6852394916911044
2.6959921798631474
2.699902248289345
2.696969696969697
2.6881720430107525
2.6725317693059627
2.650048875855328
2.6207233626588464
2.5835777126099706
2.5434995112414467
2.4995112414467253
2.44672531769306
2.3870967741935485
2.3225806451612905
2.2551319648093844
2.187683284457478
2.1221896383186705
2.0576735092864125
1.9980449657869013
1.943304007820137
1.8934506353861196
1.8484848484848484
1.8132942326490715
1.7849462365591398
1.7565982404692082
1.7282502443792769
1.7018572825024438
1.6774193548387095
1.6529814271749756
1.629521016617791
1.607038123167155
1.58455522971652
1.5620723362658846
1.5405669599217986
1.5249266862170088
1.5102639296187683
1.4926686217008798
1.4731182795698925
1.452590420332356
1.4320625610948192
1.4115347018572826
1.3900293255131966
1.3695014662756595
1.348973607038123
1.3284457478005864
1.3079178885630498
1.29227761485826
1.2795698924731185
1.262952101661779
1.2434017595307918
1.2228739002932552
1.2003910068426198
1.176930596285435
1.1544477028347997
1.1358748778103618
1.1270772238514175
1.133919843597263
1.164222873900293
1.2209188660801564
1.2913000977517106
1.3792766373411536
1.495601173020528
1.6314760508308896
1.7761485826001957
1.920821114369501
2.0576735092864125
2.1808406647116323
2.2883675464320627
2.378299120234604
2.4516129032258065
2.5102639296187683
2.550342130987292
2.576735092864125
2.5992179863147604
2.6148582600195502
2.6236559139784945
2.625610948191593
2.621700879765396
2.610948191593353
2.5943304007820136
2.570869990224829
2.539589442815249
2.501466275659824
2.4565004887585533
2.4115347018572826
2.363636363636364
2.3069403714565007
2.2453567937438903
2.1818181818181817
2.118279569892473
2.056695992179863
1.9980449657869013
1.9442815249266865
1.8963831867057677
1.8523949169110456
1.8132942326490715
1.782991202346041
1.7595307917888563
1.7350928641251222
1.7116324535679377
1.6901270772238517
1.6686217008797657
1.6480938416422288
1.6275659824046922
1.607038123167155
1.5865102639296187
1.5669599217986314
1.547409579667644
1.5278592375366569
1.512218963831867
1.499511241446725
1.4838709677419355
1.466275659824047
1.4486803519061584
1.4301075268817205
1.412512218963832
1.3949169110459434
1.3763440860215057
1.3587487781036167
1.3401759530791788
1.321603128054741
1.3079178885630498
1.2961876832844574
1.2795698924731185
1.2590420332355816
1.2365591397849462
1.2130987292277615
1.1906158357771262
1.1720430107526882
1.1622678396871946
1.1671554252199414
1.1935483870967742
1.2443792766373412
1.3225806451612905
1.4105571847507332
1.5102639296187683
1.6344086021505375
1.772238514173998
1.9120234604105573
2.04594330400782
2.167155425219941
2.272727272727273
2.3626588465298144
2.4349951124144678
2.49266862170088
2.536656891495601
2.5650048875855327
2.581622678396872
2.593352883675464
2.60019550342131
2.601173020527859
2.5962854349951123
2.5855327468230693
2.56891495601173
2.544477028347996
2.5141739980449658
2.4760508308895406
2.4301075268817205
2.378299120234604
2.3284457478005867
2.278592375366569
2.2218963831867056
2.163245356793744
2.104594330400782
2.048875855327468
1.9960899315738023
1.949169110459433
1.9071358748778104
1.8699902248289344
1.8377321603128052
1.8103616813294232
1.7888563049853372
1.772238514173998
1.7546432062561097
1.7360703812316716
1.7174975562072337
1.6989247311827955
1.6803519061583578
1.66177908113392
1.643206256109482
1.6236559139784943
1.6050830889540566
1.5865102639296187
1.56891495601173
1.555229716520039
1.543499511241447
1.5288367546432062
1.5131964809384164
1.4965786901270772
1.4809384164222874
1.4643206256109482
1.4467253176930597
1.4281524926686218
1.409579667644184
1.3900293255131966
1.370478983382209
1.3558162267839686
1.3421309872922775
1.3225806451612905
1.3020527859237536
1.2825024437927663
1.2668621700879763
1.2619745845552297
1.2727272727272727
1.305962854349951
1.3636363636363635
1.4467253176930597
1.5532746823069403
1.6793743890518085
1.7976539589442817
1.911045943304008
2.0361681329423265
2.161290322580645
2.27761485826002
2.441837732160313
2.624633431085044
2.7497556207233624
2.8377321603128056
2.900293255131965
2.943304007820137
2.9716520039100685
2.98435972629521
2.986314760508309
2.98435972629521
2.9765395894428157
2.962854349951124
2.941348973607038
2.913000977517106
2.874877810361681
2.827956989247312
2.771260997067449
2.7067448680351904
2.636363636363636
2.5620723362658846
2.493646138807429
2.429130009775171
2.3597262952101663
2.290322580645161
2.2238514173998043
2.1622678396871944
2.10752688172043
2.058651026392962
2.01564027370479
1.9775171065493649
1.943304007820137
1.911045943304008
1.8856304985337244
1.8641251221896384
1.8406647116324533
1.81524926686217
1.7888563049853372
1.7624633431085044
1.7360703812316716
1.710654936461388
1.6852394916911049
1.6588465298142718
1.632453567937439
1.607038123167155
1.587487781036168
1.5708699902248289
1.5513196480938416
1.5288367546432062
1.5053763440860215
1.4819159335288368
1.458455522971652
1.4349951124144673
1.4105571847507332
1.3861192570869991
1.3607038123167154
1.3343108504398826
1.3069403714565004
1.2864125122189638
1.2697947214076246
1.2531769305962854
1.2424242424242424
1.2473118279569892
1.2756598240469208
1.3333333333333333
1.4242424242424243
1.547409579667644
1.6979472140762464
1.8670576735092863
2.0449657869012707
2.20039100684262
2.3382209188660803
2.482893450635386
2.619745845552297
2.7419354838709675
2.84652981427175
2.9335288367546437
3.003910068426197
3.058651026392962
3.099706744868035
3.129032258064516
3.147605083088954
3.156402737047898
3.15347018572825
3.142717497556207
3.1280547409579667
3.1065493646138806
3.0762463343108504
3.037145650048876
2.9902248289345064
2.9345063538611926
2.8699902248289346
2.7976539589442817
2.720430107526881
2.6402737047898337
2.567937438905181
2.5004887585532747
2.4281524926686218
2.356793743890518
2.2883675464320627
2.2248289345063537
2.166177908113392
2.114369501466276
2.0684261974584555
2.027370478983382
1.991202346041056
1.9579667644183771
1.927663734115347
1.902248289345064
1.8797653958944285
1.8533724340175952
1.825024437927664
1.7956989247311828
1.7663734115347018
1.737047898338221
1.7086999022482894
1.6813294232649072
1.6549364613880744
1.629521016617791
1.6041055718475072
1.58455522971652
1.5679374389051808
1.547409579667644
1.5239491691104594
1.499511241446725
1.4750733137829912
1.4496578690127078
1.423264907135875
1.396871945259042
1.3685239491691104
1.3391984359726294
1.3088954056695992
1.278592375366569
1.2561094819159335
1.2404692082111437
1.23069403714565
1.2365591397849462
1.2658846529814272
1.3255131964809383
1.4193548387096775
1.5464320625610948
1.699902248289345
1.870967741935484
2.0498533724340176
2.2277614858260018
2.377321603128055
2.504398826979472
2.632453567937439
2.750733137829912
2.8533724340175954
2.940371456500489
3.010752688172043
3.065493646138808
3.1065493646138806
3.1358748778103616
3.1544477028347995
3.164222873900293
3.1652003910068425
3.155425219941349
3.1378299120234603
3.113391984359726
3.081133919843597
3.038123167155425
2.9853372434017595
2.9227761485826003
2.852394916911046
2.7751710654936463
2.6940371456500487
2.610948191593353
2.5288367546432062
2.4574780058651027
2.3929618768328447
2.3255131964809386
2.260997067448681
2.201368523949169
2.147605083088954
2.099706744868035
2.056695992179863
2.0175953079178885
1.981427174975562
1.948191593352884
1.9159335288367547
1.884652981427175
1.8592375366568916
1.836754643206256
1.8113391984359728
1.7839687194525904
1.7556207233626588
1.7272727272727273
1.6989247311827955
1.6715542521994136
1.6451612903225807
1.619745845552297
1.5943304007820136
1.56891495601173
1.5493646138807429
1.5327468230694037
1.5112414467253177
1.4887585532746823
1.4652981427174976
1.4408602150537635
1.41544477028348
1.3890518084066472
1.3626588465298142
1.335288367546432
1.3069403714565004
1.278592375366569
1.249266862170088
1.2287390029325511
1.2140762463343109
1.2023460410557183
1.2023460410557183
1.2228739002932552
1.2717497556207231
1.35386119257087
1.4711632453567938
1.6187683284457477
1.7898338220918866
1.9745845552297163
2.1622678396871944
2.321603128054741
2.4594330400782014
2.60019550342131
2.7311827956989245
2.8475073313782997
2.946236559139785
3.026392961876833
3.089931573802541
3.1388074291300097
3.1739980449657867
3.196480938416422
3.209188660801564
3.2111436950146626
3.2023460410557183
3.185728250244379
3.163245356793744
3.131964809384164
3.090909090909091
3.0410557184750733
2.9804496578690127
2.9100684261974585
2.831867057673509
2.748778103616813
2.6637341153470184
2.578690127077224
2.504398826979472
2.436950146627566
2.367546432062561
2.3010752688172045
2.2385141739980448
2.1818181818181817
2.1309872922776147
2.086021505376344
2.0449657869012707
2.007820136852395
1.9716520039100685
1.9374389051808407
1.858260019550342
1.758553274682307
1.6930596285434996
1.6441837732160314
1.6050830889540566
1.5708699902248289
1.5395894428152492
1.5102639296187683
1.4819159335288368
1.4535679374389052
1.426197458455523
1.3988269794721409
1.3714565004887584
1.348973607038123
1.3313782991202343
1.3098729227761483
1.2873900293255132
1.2639296187683284
1.2404692082111437
1.2160312805474096
1.1915933528836755
1.1671554252199414
1.1407624633431086
1.1133919843597262
1.0850439882697946
1.0625610948191593
1.0439882697947214
1.0205278592375366
1.0
0.9882697947214076
0.9951124144672532
1.0273704789833822
1.0918866080156402
1.1915933528836755
1.324535679374389
1.4858260019550342
1.6656891495601174
1.855327468230694
2.0205278592375366
2.1681329423264906
2.320625610948192
2.463343108504399
2.589442815249267
2.696969696969697
2.7859237536656893
2.8563049853372435
2.911045943304008
2.952101661779081
2.979472140762464
2.997067448680352
3.0009775171065494
2.994134897360704
2.981427174975562
2.961876832844575
2.932551319648094
2.89345063538612
2.844574780058651
2.78494623655914
2.716520039100684
2.6402737047898337
2.558162267839687
2.4731182795698925
2.3870967741935485
2.3118279569892475
2.244379276637341
2.174975562072336
2.10850439882698
2.047898338220919
1.9931573802541545
1.9442815249266865
1.9012707722385145
1.8641251221896384
1.8299120234604105
1.7986314760508308
1.7683284457478006
1.7429130009775171
1.718475073313783
1.6920821114369502
1.6637341153470186
1.6344086021505375
1.6041055718475072
1.5747800586510263
1.5454545454545454
1.517106549364614
1.4887585532746823
1.4613880742913
1.434017595307918
1.4056695992179864
1.383186705767351
1.364613880742913
1.3421309872922775
1.3186705767350928
1.2942326490713587
1.2697947214076246
1.2453567937438903
1.2209188660801564
1.195503421309873
1.1691104594330402
1.141739980449658
1.1143695014662756
1.093841642228739
1.0801564027370478
1.0694037145650048
1.0713587487781036
1.093841642228739
1.1466275659824048
1.2336265884652982
1.3558162267839686
1.5112414467253177
1.6911045943304008
1.8885630498533723
2.0928641251221896
2.294232649071359
2.4604105571847508
2.5992179863147604
2.7370478983382207
2.860215053763441
2.962854349951124
3.0439882697947214
3.103616813294233
3.1436950146627565
3.16911045943304
3.1818181818181817
3.1847507331378297
3.1808406647116323
3.167155425219941
3.147605083088954
3.124144672531769
3.0928641251221896
3.0527859237536656
3.0009775171065494
2.93841642228739
2.865102639296188
2.782991202346041
2.695014662756598
2.6041055718475072
2.5141739980449658
2.4281524926686218
2.3548387096774195
2.291300097751711
2.2297165200391005
2.1730205278592374
2.1221896383186705
2.0772238514174
2.038123167155425
2.0019550342130987
1.967741935483871
1.9345063538611929
1.903225806451613
1.8699902248289344
1.8406647116324533
1.8132942326490715
1.7820136852394917
1.7487781036168133
1.7145650048875856
1.678396871945259
1.640273704789834
1.6021505376344083
1.563049853372434
1.5239491691104594
1.4848484848484849
1.4457478005865103
1.4076246334310851
1.3763440860215057
1.3479960899315735
1.3147605083088951
1.2795698924731185
1.2424242424242424
1.2043010752688172
1.1652003910068427
1.1270772238514175
1.0899315738025417
1.0596285434995112
1.0410557184750733
1.0420332355816226
1.0625610948191593
1.1085043988269794
1.1906158357771262
1.3088954056695992
1.4613880742913
1.640273704789834
1.8377321603128052
2.042033235581622
2.243401759530792
2.432062561094819
2.603128054740958
2.752688172043011
2.8797653958944283
2.970674486803519
3.0361681329423265
3.0957966764418376
3.1436950146627565
3.1788856304985336
3.203323558162268
3.2160312805474094
3.217986314760508
3.210166177908113
3.193548387096774
3.1681329423264906
3.132942326490713
3.09188660801564
3.043010752688172
2.9824046920821115
2.9120234604105573
2.83088954056696
2.742913000977517
2.650048875855328
2.555229716520039
2.4604105571847508
2.3685239491691106
2.281524926686217
2.19941348973607
2.124144672531769
2.06158357771261
2.0087976539589443
1.9550342130987293
1.9042033235581624
1.857282502443793
1.8132942326490715
1.7712609970674489
1.7302052785923754
1.6920821114369502
1.6549364613880744
1.619745845552297
1.585532746823069
1.5571847507331378
1.5327468230694037
1.504398826979472
1.4750733137829912
1.4457478005865103
1.4164222873900294
1.3861192570869991
1.3558162267839686
1.327468230694037
1.2991202346041055
1.270772238514174
1.2424242424242424
1.219941348973607
1.2003910068426198
1.1749755620723363
1.1456500488758554
1.1143695014662756
1.0821114369501466
1.0498533724340176
1.021505376344086
1.0048875855327468
1.007820136852395
1.0381231671554252
1.1026392961876832
1.2043010752688172
1.3196480938416422
1.4516129032258065
1.6207233626588464
1.8103616813294232
2.007820136852395
2.201368523949169
2.343108504398827
2.442815249266862
2.5464320625610948
2.6422287390029324
2.7253176930596283
2.792766373411535
2.8377321603128056
2.866080156402737
2.889540566959922
2.905180840664712
2.913000977517106
2.9120234604105573
2.902248289345064
2.884652981427175
2.8582600195503423
2.822091886608016
2.7781036168132944
2.7233626588465296
2.659824046920821
2.595307917888563
2.527859237536657
2.450635386119257
2.3685239491691106
2.2844574780058653
2.201368523949169
2.120234604105572
2.043010752688172
1.970674486803519
1.905180840664712
1.8455522971652003
1.7917888563049853
1.7487781036168133
1.7135874877810362
1.678396871945259
1.6451612903225807
1.6129032258064515
1.581622678396872
1.5513196480938416
1.521994134897361
1.4936461388074291
1.4652981427174976
1.436950146627566
1.4086021505376345
1.3812316715542523
1.3587487781036167
1.3401759530791788
1.3176930596285434
1.2942326490713587
1.270772238514174
1.24633431085044
1.2218963831867058
1.1974584555229717
1.173998044965787
1.1505376344086022
1.1270772238514175
1.1036168132942326
1.0850439882697946
1.0684261974584557
1.04594330400782
1.0195503421309873
0.9921798631476052
0.9667644183773216
0.9491691104594332
0.9472140762463344
0.967741935483871
1.0175953079178883
1.1016617790811338
1.219941348973607
1.3665689149560116
1.5112414467253177
1.6559139784946235
1.823069403714565
1.9960899315738023
2.163245356793744
2.3167155425219943
2.452590420332356
2.567937438905181
2.6637341153470184
2.740957966764418
2.80058651026393
2.8455522971652005
2.8719452590420333
2.884652981427175
2.8914956011730206
2.8914956011730206
2.8836754643206257
2.8670576735092865
2.8406647116324537
2.8044965786901277
2.758553274682307
2.701857282502444
2.635386119257087
2.560117302052786
2.4789833822091887
2.4027370478983383
2.329423264907136
2.2482893450635384
2.166177908113392
2.086021505376344
2.0097751710654936
1.93841642228739
1.8729227761485825
1.8142717497556209
1.761485826001955
1.7145650048875856
1.6735092864125125
1.6412512218963833
1.6148582600195502
1.5865102639296187
1.5581622678396871
1.5298142717497556
1.501466275659824
1.474095796676442
1.4467253176930597
1.418377321603128
1.3900293255131966
1.3636363636363635
1.3372434017595307
1.3118279569892473
1.29227761485826
1.2756598240469208
1.2551319648093842
1.2326490713587488
1.209188660801564
1.1857282502443791
1.1622678396871946
1.1397849462365592
1.1173020527859236
1.093841642228739
1.0703812316715542
1.0469208211143697
1.0283479960899315
1.010752688172043
0.9882697947214076
0.9628543499511242
0.9393939393939394
0.9227761485826002
0.9217986314760508
0.9442815249266864
0.997067448680352
1.0840664711632453
1.2052785923753666
1.356793743890518
1.530791788856305
1.6920821114369502
1.8455522971652003
2.013685239491691
2.1788856304985336
2.3304007820136854
2.464320625610948
2.5777126099706744
2.670576735092864
2.744868035190616
2.80058651026393
2.8406647116324537
2.8670576735092865
2.877810361681329
2.87683284457478
2.870967741935484
2.859237536656892
2.8396871945259043
2.811339198435973
2.773216031280548
2.7253176930596283
2.668621700879765
2.603128054740958
2.527859237536657
2.44672531769306
2.3626588465298144
2.286412512218964
2.21505376344086
2.1388074291300097
2.0625610948191597
1.9902248289345064
1.9237536656891496
1.865102639296188
1.8132942326490715
1.7673509286412512
1.7272727272727273
1.6911045943304008
1.6588465298142718
1.632453567937439
1.6099706744868034
1.58455522971652
1.5581622678396871
1.530791788856305
1.5034213098729228
1.4760508308895406
1.4486803519061584
1.4213098729227762
1.393939393939394
1.3665689149560116
1.3401759530791788
1.3147605083088951
1.295210166177908
1.278592375366569
1.2580645161290325
1.2365591397849462
1.2140762463343109
1.1906158357771262
1.166177908113392
1.141739980449658
1.1163245356793745
1.0909090909090908
1.064516129032258
1.0371456500488758
1.0166177908113392
0.9980449657869012
0.975562072336266
0.9550342130987292
0.9442815249266864
0.9521016617790812
0.9863147605083088
1.0527859237536656
1.1544477028347997
1.289345063538612
1.452590420332356
1.6344086021505375
1.8005865102639296
1.9550342130987293
2.120234604105572
2.280547409579668
2.4252199413489737
2.549364613880743
2.6529814271749754
2.7370478983382207
2.8025415444770285
2.8514173998044967
2.8856304985337244
2.90811339198436
2.918866080156403
2.916911045943304
2.906158357771261
2.8905180840664717
2.866080156402737
2.833822091886608
2.791788856304985
2.739980449657869
2.678396871945259
2.6080156402737047
2.529814271749756
2.44672531769306
2.360703812316716
2.2825024437927666
2.2111436950146626
2.1358748778103616
2.0625610948191597
1.994134897360704
1.932551319648094
1.87683284457478
1.827956989247312
1.7849462365591398
1.7468230694037146
1.7116324535679377
1.6793743890518085
1.6480938416422288
1.6441837732160314
1.653958944281525
1.6441837732160314
1.624633431085044
1.6011730205278591
1.5747800586510263
1.547409579667644
1.520039100684262
1.4926686217008798
1.4652981427174976
1.4389051808406648
1.412512218963832
1.3919843597262953
1.3743890518084063
1.3528836754643203
1.3304007820136852
1.3069403714565004
1.2834799608993157
1.260019550342131
1.2355816226783969
1.2101661779081134
1.1837732160312806
1.155425219941349
1.1280547409579669
1.1036168132942326
1.0909090909090908
1.0909090909090908
1.104594330400782
1.1436950146627567
1.2160312805474096
1.321603128054741
1.4594330400782014
1.6236559139784943
1.8035190615835777
1.991202346041056
2.175953079178885
2.3499511241446727
2.4887585532746823
2.601173020527859
2.7116324535679373
2.811339198435973
2.8963831867057674
2.964809384164223
3.018572825024438
3.0576735092864125
3.083088954056696
3.0957966764418376
3.0977517106549364
3.088954056695992
3.070381231671554
3.0439882697947214
3.010752688172043
2.9696969696969697
2.918866080156403
2.859237536656892
2.790811339198436
2.7145650048875853
2.631476050830889
2.5434995112414467
2.4545454545454546
2.366568914956012
2.280547409579668
2.207233626588465
2.1417399804496577
2.075268817204301
2.0127077223851417
1.9550342130987293
1.903225806451613
1.8563049853372435
1.8132942326490715
1.7741935483870968
1.7390029325513197
1.7057673509286413
1.672531769305963
1.640273704789834
1.6138807429130009
1.590420332355816
1.564027370478983
1.5356793743890518
1.5053763440860215
1.4750733137829912
1.4457478005865103
1.4164222873900294
1.388074291300098
1.3616813294232648
1.335288367546432
1.3098729227761483
1.2913000977517106
1.2746823069403714
1.2531769305962854
1.2297165200391007
1.2043010752688172
1.176930596285435
1.1485826001955035
1.118279569892473
1.0879765395894427
1.0586510263929618
1.0361681329423265
1.0273704789833822
1.040078201368524
1.072336265884653
1.1290322580645162
1.2218963831867058
1.348973607038123
1.5063538611925709
1.6842619745845553
1.871945259042033
2.060606060606061
2.2404692082111435
2.406647116324536
2.5532746823069403
2.679374389051808
2.771260997067449
2.8396871945259043
2.902248289345064
2.9530791788856305
2.992179863147605
3.0195503421309877
3.0361681329423265
3.042033235581622
3.037145650048876
3.0234604105571847
3.0
2.9667644183773216
2.9237536656891496
2.875855327468231
2.822091886608016
2.757575757575758
2.6823069403714563
2.60019550342131
2.5131964809384164
2.423264907135875
2.333333333333333
2.2453567937438903
2.160312805474096
2.081133919843597
2.007820136852395
1.948191593352884
1.8973607038123168
1.8484848484848484
1.8025415444770283
1.7595307917888563
1.721407624633431
1.686217008797654
1.6529814271749756
1.6207233626588464
1.5894428152492668
1.5591397849462365
1.5288367546432062
1.499511241446725
1.47702834799609
1.456500488758553
1.4320625610948192
1.4066471163245358
1.380254154447703
1.3548387096774193
1.3304007820136852
1.305962854349951
1.2825024437927663
1.2590420332355816
1.2346041055718475
1.209188660801564
1.1896383186705768
1.1730205278592376
1.1515151515151516
1.1280547409579669
1.1026392961876832
1.075268817204301
1.04594330400782
1.0175953079178883
0.9931573802541545
0.9765395894428152
0.9765395894428152
1.0009775171065494
1.056695992179863
1.1319648093841643
1.2316715542521994
1.370478983382209
1.5386119257087
1.7253176930596286
1.9188660801564028
2.10752688172043
2.2844574780058653
2.443792766373412
2.582600195503421
2.6989247311827955
2.7947214076246336
2.8611925708699903
