ppg
2.1915933528836757
2.177908113391984
2.164222873900293
2.1485826001955037
2.1309872922776147
2.113391984359726
2.0957966764418376
2.0791788856304985
2.06158357771261
2.0391006842619745
2.0146627565982405
1.9745845552297163
1.924731182795699
1.878787878787879
1.8328445747800584
1.7859237536656891
1.7350928641251222
1.6823069403714566
1.6285434995112416
1.5835777126099706
1.544477028347996
1.499511241446725
1.4545454545454546
1.412512218963832
1.3724340175953078
1.3333333333333333
1.2981427174975562
1.267839687194526
1.2404692082111437
1.2160312805474096
1.198435972629521
1.1925708699902249
1.2013685239491692
1.2258064516129032
1.2688172043010753
1.3333333333333333
1.4193548387096775
1.525904203323558
1.6490713587487782
1.782991202346041
1.921798631476051
2.060606060606061
2.1955034213098727
2.32355816226784
2.4281524926686218
2.515151515151515
2.6021505376344085
2.681329423264907
2.750733137829912
2.809384164222874
2.854349951124145
2.8856304985337244
2.9012707722385143
2.902248289345064
2.8905180840664717
2.865102639296188
2.827956989247312
2.78494623655914
2.7370478983382207
2.6803519061583576
2.6177908113391983
2.5542521994134897
2.4916911045943304
2.43108504398827
2.3743890518084068
2.3225806451612905
2.275659824046921
2.2346041055718477
2.19941348973607
2.1700879765395893
2.145650048875855
2.12316715542522
2.1006842619745845
2.078201368523949
2.0547409579667644
2.032258064516129
2.006842619745845
1.978494623655914
1.948191593352884
1.9188660801564028
1.8875855327468232
1.855327468230694
1.8269794721407624
1.801564027370479
1.7712609970674489
1.7360703812316716
1.696969696969697
1.653958944281525
1.607038123167155
1.5581622678396871
1.5083088954056696
1.4594330400782014
1.4115347018572826
1.3636363636363635
1.324535679374389
1.2913000977517106
1.2561094819159335
1.219941348973607
1.1857282502443791
1.1534701857282503
1.1231671554252198
1.0977517106549364
1.0811339198435972
1.0762463343108504
1.088954056695992
1.1221896383186705
1.1681329423264908
1.23069403714565
1.3157380254154447
1.4203323558162269
1.5395894428152492
1.6695992179863148
1.8035190615835777
1.9364613880742916
2.065493646138808
2.187683284457478
2.3010752688172045
2.404692082111437
2.4995112414467253
2.5718475073313782
2.6295210166177907
2.6852394916911044
2.732160312805474
2.768328445747801
2.793743890518084
2.807429130009776
2.809384164222874
2.801564027370479
2.7810361681329425
2.750733137829912
2.713587487781036
2.673509286412512
2.631476050830889
2.582600195503421
2.530791788856305
2.479960899315738
2.4301075268817205
2.3822091886608017
2.337243401759531
2.2952101661779083
2.2561094819159337
2.219941348973607
2.189638318670577
2.163245356793744
2.1388074291300097
2.1163245356793743
2.09188660801564
2.067448680351906
2.040078201368524
2.0097751710654936
1.978494623655914
1.946236559139785
1.911045943304008
1.871945259042033
1.83088954056696
1.7888563049853372
1.7517106549364614
1.7165200391006843
1.675464320625611
1.629521016617791
1.5796676441837731
1.5298142717497556
1.479960899315738
1.434017595307918
1.392961876832845
1.3577712609970674
1.3294232649071358
1.310850439882698
1.305962854349951
1.3147605083088951
1.3343108504398826
1.3655913978494625
1.4066471163245358
1.455522971652004
1.509286412512219
1.563049853372434
1.6148582600195502
1.6608015640273706
1.7008797653958945
1.7331378299120237
1.758553274682307
1.7781036168132942
1.790811339198436
1.7976539589442817
1.7996089931573802
1.7986314760508308
1.793743890518084
1.7869012707722385
1.7781036168132942
1.7683284457478006
1.7575757575757576
1.7448680351906158
1.732160312805474
1.718475073313783
1.70772238514174
1.699902248289345
1.6911045943304008
1.6852394916911049
1.683284457478006
1.6852394916911049
1.6901270772238517
1.696969696969697
1.704789833822092
1.7126099706744868
1.721407624633431
1.729227761485826
1.7350928641251222
1.7390029325513197
1.7409579667644184
1.7419354838709675
1.7419354838709675
1.739980449657869
1.7350928641251222
1.7282502443792769
1.7204301075268815
1.7116324535679377
1.7008797653958945
1.689149560117302
1.6764418377321604
1.6666666666666667
1.6588465298142718
1.64613880742913
1.629521016617791
1.6109481915933528
1.590420332355816
1.5698924731182795
1.5503421309872922
1.530791788856305
1.509286412512219
1.4838709677419355
1.4535679374389052
1.4291300097751711
1.4086021505376345
1.383186705767351
1.3558162267839686
1.327468230694037
1.2981427174975562
1.2697947214076246
1.2434017595307918
1.217008797653959
1.1915933528836755
1.1671554252199414
1.144672531769306
1.1270772238514175
1.121212121212121
1.1251221896383188
1.1368523949169111
1.1622678396871946
1.2052785923753666
1.270772238514174
1.3607038123167154
1.474095796676442
1.6080156402737047
1.758553274682307
1.920821114369501
2.0879765395894427
2.232649071358749
2.364613880742913
2.50733137829912
2.6471163245356792
2.7781036168132944
2.897360703812317
3.0
3.0869990224828934
3.1593352883675463
3.21505376344086
3.2551319648093844
3.2052785923753664
3.103616813294233
3.0439882697947214
3.0019550342130987
2.967741935483871
2.9335288367546437
2.895405669599218
2.8514173998044967
2.801564027370479
2.744868035190616
2.686217008797654
2.6265884652981426
2.565982404692082
2.506353861192571
2.452590420332356
2.404692082111437
2.356793743890518
2.310850439882698
2.2668621700879767
2.2248289345063537
2.185728250244379
2.1485826001955037
2.114369501466276
2.080156402737048
2.04594330400782
2.0117302052785924
1.9775171065493649
1.9472140762463344
1.919843597262952
1.889540566959922
1.8563049853372435
1.822091886608016
1.7888563049853372
1.7526881720430108
1.7145650048875856
1.675464320625611
1.6334310850439884
1.5894428152492668
1.543499511241447
1.5034213098729228
1.4672531769305963
1.4271749755620724
1.3841642228739004
1.3421309872922775
1.303030303030303
1.2619745845552297
1.2228739002932552
1.1857282502443791
1.1495601173020529
1.115347018572825
1.0850439882697946
1.0576735092864125
1.040078201368524
1.0312805474095796
1.0273704789833822
1.032258064516129
1.050830889540567
1.0869990224828934
1.141739980449658
1.2150537634408602
1.3020527859237536
1.401759530791789
1.5102639296187683
1.6217008797653958
1.7194525904203324
1.8064516129032255
1.8983382209188664
1.9872922776148585
2.0684261974584555
2.1417399804496577
2.204301075268817
2.2551319648093844
2.2952101661779083
2.32355816226784
2.340175953079179
2.3440860215053765
2.3382209188660803
2.32355816226784
2.2981427174975564
2.2639296187683287
2.222873900293255
2.177908113391984
2.131964809384164
2.0840664711632453
2.0361681329423265
1.991202346041056
1.9501466275659824
1.913978494623656
1.881720430107527
1.855327468230694
1.8347996089931573
1.8162267839687196
1.7996089931573802
1.7849462365591398
1.772238514173998
1.758553274682307
1.7438905180840665
1.726295210166178
1.7067448680351909
1.6842619745845553
1.66177908113392
1.643206256109482
1.6256109481915937
1.6021505376344083
1.576735092864125
1.5483870967741935
1.517106549364614
1.482893450635386
1.4457478005865103
1.4076246334310851
1.367546432062561
1.3264907135874875
1.2854349951124144
1.2453567937438903
1.2140762463343109
1.1867057673509287
1.1534701857282503
1.1192570869990224
1.0850439882697946
1.050830889540567
1.0166177908113392
0.9853372434017597
0.959921798631476
0.9393939393939394
0.9266862170087976
0.9237536656891496
0.9325513196480938
0.9550342130987292
0.9951124144672532
1.0547409579667644
1.133919843597263
1.2326490713587488
1.3450635386119256
1.4672531769305963
1.5943304007820136
1.721407624633431
1.844574780058651
1.959921798631476
2.067448680351906
2.15347018572825
2.225806451612903
2.2991202346041058
2.3685239491691106
2.429130009775171
2.4789833822091887
2.5190615835777126
2.549364613880743
2.567937438905181
2.575757575757576
2.5718475073313782
2.5562072336265884
2.532746823069404
2.5024437927663734
2.4652981427174976
2.421309872922776
2.372434017595308
2.3225806451612905
2.274682306940372
2.2297165200391005
2.187683284457478
2.1485826001955037
2.113391984359726
2.080156402737048
2.050830889540567
2.027370478983382
2.007820136852395
1.989247311827957
1.970674486803519
1.9530791788856303
1.9345063538611929
1.916911045943304
1.900293255131965
1.8807429130009776
1.858260019550342
1.8318670576735088
1.8025415444770283
1.7761485826001957
1.7487781036168133
1.7135874877810362
1.6744868035190617
1.632453567937439
1.5884652981427174
1.543499511241447
1.495601173020528
1.4486803519061584
1.4027370478983383
1.3616813294232648
1.3235581622678396
1.2873900293255132
1.2590420332355816
1.2365591397849462
1.2130987292277615
1.1896383186705768
1.1671554252199414
1.144672531769306
1.126099706744868
1.115347018572825
1.1143695014662756
1.126099706744868
1.155425219941349
1.203323558162268
1.2619745845552297
1.3313782991202343
1.4242424242424243
1.5347018572825024
1.656891495601173
1.7849462365591398
1.9120234604105573
2.034213098729228
2.1485826001955037
2.251221896383187
2.3421309872922778
2.4222873900293256
2.489736070381232
2.5376344086021505
2.570869990224829
2.5992179863147604
2.6207233626588464
2.631476050830889
2.6285434995112413
2.6148582600195502
2.591397849462365
2.557184750733138
2.5141739980449658
2.464320625610948
2.409579667644184
2.356793743890518
2.3069403714565007
2.254154447702835
2.201368523949169
2.150537634408602
2.104594330400782
2.0635386119257086
2.0283479960899315
1.997067448680352
1.9687194525904204
1.9442815249266865
1.9227761485826005
1.902248289345064
1.8836754643206255
1.868035190615836
1.8494623655913975
1.828934506353861
1.8074291300097751
1.7869012707722385
1.7663734115347018
1.7438905180840665
1.7194525904203324
1.6930596285434996
1.6637341153470186
1.6304985337243405
1.6011730205278591
1.5718475073313782
1.5356793743890518
1.4936461388074291
1.4496578690127078
1.4203323558162269
1.3978494623655917
1.3636363636363635
1.3255131964809383
1.2873900293255132
1.2502443792766371
1.2150537634408602
1.1827956989247312
1.160312805474096
1.142717497556207
1.1221896383186705
1.1026392961876832
1.0899315738025417
1.086021505376344
1.0948191593352885
1.1192570869990224
1.1612903225806452
1.2218963831867058
1.2991202346041055
1.391006842619746
1.4809384164222874
1.5708699902248289
1.675464320625611
1.7869012707722385
1.9012707722385145
2.0127077223851417
2.1192570869990224
2.2170087976539588
2.304985337243402
2.3812316715542523
2.4457478005865103
2.498533724340176
2.535679374389052
2.5591397849462365
2.578690127077224
2.590420332355816
2.590420332355816
2.579667644183773
2.558162267839687
2.525904203323558
2.4838709677419355
2.4359726295210167
2.3841642228739004
2.3313782991202348
2.280547409579668
2.2355816226783967
2.1945259042033234
2.1524926686217007
2.110459433040078
2.071358748778104
2.038123167155425
2.0087976539589443
1.981427174975562
1.956989247311828
1.9364613880742916
1.9149560117302051
1.8934506353861196
1.8748778103616808
1.8563049853372435
1.8347996089931573
1.8113391984359728
1.7859237536656891
1.7575757575757576
1.726295210166178
1.6920821114369502
1.6549364613880744
1.6158357771260996
1.5747800586510263
1.5317693059628543
1.487781036168133
1.4496578690127078
1.414467253176931
1.3734115347018572
1.3294232649071358
1.284457478005865
1.2404692082111437
1.1974584555229717
1.1573802541544478
1.121212121212121
1.0879765395894427
1.056695992179863
1.0263929618768328
1.0048875855327468
0.9872922776148584
0.967741935483871
0.9501466275659824
0.9403714565004888
0.9413489736070382
0.9579667644183774
0.9921798631476052
1.04594330400782
1.118279569892473
1.206256109481916
1.305962854349951
1.414467253176931
1.5141739980449658
1.606060606060606
1.75366568914956
1.8514173998044965
1.945259042033236
2.072336265884653
2.1436950146627565
2.2052785923753664
2.2561094819159337
2.2981427174975564
2.332355816226784
2.35386119257087
2.3655913978494625
2.3714565004887587
2.36950146627566
2.358748778103617
2.3382209188660803
2.3088954056695994
2.272727272727273
2.232649071358749
2.189638318670577
2.146627565982405
2.104594330400782
2.064516129032258
2.0303030303030303
2.0019550342130987
1.9745845552297163
1.9530791788856303
1.9374389051808407
1.9266862170087975
1.916911045943304
1.9090909090909087
1.9012707722385145
1.8934506353861196
1.884652981427175
1.873900293255132
1.865102639296188
1.855327468230694
1.8435972629521016
1.833822091886608
1.8269794721407624
1.8240469208211143
1.825024437927664
1.83088954056696
1.8455522971652003
1.869012707722385
1.900293255131965
1.935483870967742
1.9736070381231672
2.006842619745845
2.037145650048876
2.070381231671554
2.103616813294233
2.146627565982405
2.1710654936461387
2.190615835777126
2.209188660801564
2.212121212121212
2.207233626588465
2.1955034213098727
2.179863147605083
2.161290322580645
2.136852394916911
2.1065493646138806
2.071358748778104
2.0332355816226784
1.994134897360704
1.9560117302052784
1.919843597262952
1.8866080156402736
1.858260019550342
1.8377321603128052
1.822091886608016
1.8113391984359728
1.8054740957966764
1.8005865102639296
1.7956989247311828
1.7927663734115349
1.7898338220918866
1.7869012707722385
1.7839687194525904
1.7790811339198436
1.772238514173998
1.7624633431085044
1.7497556207233629
1.737047898338221
1.7243401759530792
1.70772238514174
1.689149560117302
1.6686217008797657
1.6471163245356797
1.6236559139784943
1.5992179863147604
1.5718475073313782
1.542521994134897
1.512218963831867
1.482893450635386
1.452590420332356
1.4271749755620724
1.404692082111437
1.3773216031280548
1.3470185728250244
1.3157380254154447
1.284457478005865
1.2551319648093842
1.2258064516129032
1.195503421309873
1.164222873900293
1.133919843597263
1.1055718475073313
1.0840664711632453
1.0664711632453567
1.035190615835777
1.0146627565982405
0.9931573802541545
0.9501466275659824
0.9305962854349952
0.913978494623656
0.8924731182795699
0.8817204301075269
0.8729227761485826
0.8709677419354839
0.873900293255132
0.8768328445747801
0.8797653958944281
0.8826979472140762
0.8875855327468231
0.895405669599218
0.9090909090909092
0.9335288367546432
0.9736070381231672
1.0312805474095796
1.1114369501466277
1.1994134897360704
1.2971652003910068
1.4213098729227762
1.564027370478983
1.718475073313783
1.878787878787879
2.040078201368524
2.1974584555229715
2.347018572825025
2.4858260019550342
2.611925708699902
2.7233626588465296
2.819159335288368
2.887585532746823
2.93841642228739
2.9872922776148583
3.027370478983382
3.0547409579667644
3.072336265884653
3.080156402737048
3.078201368523949
3.067448680351906
3.047898338220919
3.018572825024438
2.959921798631476
2.8885630498533725
2.8289345063538613
2.7702834799608995
2.7126099706744866
2.6559139784946235
2.5992179863147604
2.5464320625610948
2.495601173020528
2.4457478005865103
2.398826979472141
2.355816226783969
2.315738025415445
2.2825024437927666
2.251221896383187
2.217986314760508
2.1837732160312804
2.150537634408602
2.117302052785924
2.086021505376344
2.0557184750733137
2.0254154447702835
1.997067448680352
1.9687194525904204
1.9393939393939397
1.90811339198436
1.8807429130009776
1.8543499511241448
1.822091886608016
1.7869012707722385
1.7497556207233629
1.7116324535679377
1.6715542521994136
1.6304985337243405
1.590420332355816
1.5503421309872922
1.512218963831867
1.4750733137829912
1.444770283479961
1.4193548387096775
1.3919843597262953
1.3655913978494625
1.343108504398827
1.3255131964809383
1.3147605083088951
1.3157380254154447
1.3304007820136852
1.3587487781036167
1.401759530791789
1.457478005865103
1.5239491691104594
1.5884652981427174
1.653958944281525
1.729227761485826
1.8084066471163245
1.884652981427175
1.956989247311828
2.021505376344086
2.0762463343108504
2.121212121212121
2.155425219941349
2.1788856304985336
2.1915933528836757
2.1945259042033234
2.188660801564027
2.174975562072336
2.155425219941349
2.1280547409579667
2.0948191593352883
2.0576735092864125
2.0195503421309877
1.9804496578690127
1.9413489736070384
1.905180840664712
1.873900293255132
1.8455522971652003
1.8240469208211143
1.8064516129032255
1.7888563049853372
1.7732160312805474
1.7605083088954057
1.7497556207233629
1.7390029325513197
1.7272727272727273
1.7145650048875856
1.7008797653958945
1.686217008797654
1.6695992179863148
1.6549364613880744
1.640273704789834
1.6207233626588464
1.598240469208211
1.573802541544477
1.5483870967741935
1.521994134897361
1.4946236559139785
1.466275659824047
1.435972629521017
1.4037145650048877
1.3714565004887584
1.3372434017595307
1.3079178885630498
1.281524926686217
1.2502443792766371
1.2179863147605083
1.1867057673509287
1.1573802541544478
1.1290322580645162
1.1016617790811338
1.078201368523949
1.0576735092864125
1.040078201368524
1.0263929618768328
1.0195503421309873
1.021505376344086
1.029325513196481
1.0449657869012707
1.0733137829912025
1.1173020527859236
1.1779081133919844
1.2561094819159335
1.3509286412512218
1.458455522971652
1.5757575757575757
1.696969696969697
1.818181818181818
1.9237536656891496
2.0195503421309877
2.1221896383186705
2.222873900293255
2.3196480938416424
2.410557184750733
2.49266862170088
2.5650048875855327
2.6285434995112413
2.681329423264907
2.724340175953079
2.757575757575758
2.776148582600196
2.7839687194525906
2.7869012707722387
2.782991202346041
2.771260997067449
2.7517106549364616
2.7233626588465296
2.687194525904203
2.6471163245356792
2.6021505376344085
2.5542521994134897
2.505376344086021
2.4565004887585533
2.412512218963832
2.372434017595308
2.3313782991202348
2.29227761485826
2.2580645161290325
2.225806451612903
2.1974584555229715
2.1739980449657867
2.1524926686217007
2.1300097751710654
2.10752688172043
2.086021505376344
2.065493646138808
2.046920821114369
2.0254154447702835
2.0019550342130987
1.9765395894428155
1.949169110459433
1.919843597262952
1.8875855327468232
1.8543499511241448
1.8191593352883677
1.7810361681329423
1.739980449657869
1.6979472140762464
1.6608015640273706
1.6265884652981428
1.5884652981427174
1.5493646138807429
1.5112414467253177
1.474095796676442
1.439882697947214
1.4076246334310851
1.3782991202346042
1.3499511241446724
1.3235581622678396
1.300097751710655
1.2834799608993157
1.2727272727272727
1.2649071358748778
1.262952101661779
1.2688172043010753
1.2873900293255132
1.3206256109481915
1.3695014662756595
1.4349951124144673
1.5151515151515151
1.606060606060606
1.7057673509286413
1.8093841642228736
1.8993157380254155
1.9794721407624636
2.064516129032258
2.146627565982405
2.222873900293255
2.290322580645161
2.347996089931574
2.396871945259042
2.434017595307918
2.4604105571847508
2.4750733137829912
2.4780058651026398
2.472140762463343
2.4594330400782014
2.439882697947214
2.412512218963832
2.380254154447703
2.3440860215053765
2.304985337243402
2.2629521016617797
2.218963831867057
2.174975562072336
2.132942326490713
2.093841642228739
2.060606060606061
2.03128054740958
2.003910068426197
1.9794721407624636
1.9589442815249267
1.9423264907135875
1.9266862170087975
1.911045943304008
1.8944281524926687
1.878787878787879
1.8631476050830889
1.8465298142717497
1.8299120234604105
1.8142717497556209
1.7976539589442817
1.7790811339198436
1.7595307917888563
1.737047898338221
1.7116324535679377
1.6823069403714566
1.651026392961877
1.616813294232649
1.5796676441837731
1.541544477028348
1.504398826979472
1.474095796676442
1.447702834799609
1.4164222873900294
1.3841642228739004
1.3519061583577712
1.3186705767350928
1.2903225806451613
1.2649071358748778
1.2365591397849462
1.2082111436950147
1.1827956989247312
1.160312805474096
1.144672531769306
1.1407624633431086
1.147605083088954
1.163245356793744
1.1935483870967742
1.241446725317693
1.3069403714565004
1.3900293255131966
1.4887585532746823
1.5972629521016617
1.7126099706744868
1.8299120234604105
1.9442815249266865
2.0410557184750733
2.1280547409579667
2.219941348973607
2.3088954056695994
2.3900293255131966
2.463343108504399
2.5249266862170088
2.5777126099706744
2.619745845552297
2.652003910068426
2.673509286412512
2.6823069403714563
2.679374389051808
2.667644183773216
2.64613880742913
2.6158357771261
2.5777126099706744
2.533724340175953
2.4858260019550342
2.4359726295210167
2.3870967741935485
2.340175953079179
2.2961876832844577
2.2561094819159337
2.219941348973607
2.1915933528836757
2.1681329423264906
2.1436950146627565
2.1192570869990224
2.093841642228739
2.071358748778104
2.0498533724340176
2.029325513196481
2.0097751710654936
1.989247311827957
1.967741935483871
1.946236559139785
1.921798631476051
1.8993157380254155
1.8758553274682308
1.8465298142717497
1.8142717497556209
1.7781036168132942
1.7380254154447703
1.694037145650049
1.6471163245356797
1.598240469208211
1.5503421309872922
1.5034213098729228
1.456500488758553
1.4193548387096775
1.3890518084066472
1.3558162267839686
1.3225806451612905
1.2903225806451613
1.2580645161290325
1.2258064516129032
1.1964809384164223
1.1720430107526882
1.152492668621701
1.1407624633431086
1.1407624633431086
1.1515151515151516
1.1730205278592376
1.209188660801564
1.262952101661779
1.332355816226784
1.4164222873900294
1.512218963831867
1.616813294232649
1.7243401759530792
1.8328445747800584
1.9374389051808407
2.035190615835777
2.126099706744868
2.198435972629521
2.259042033235582
2.318670576735093
2.372434017595308
2.418377321603128
2.455522971652004
2.4819159335288368
2.495601173020528
2.498533724340176
2.490713587487781
2.474095796676442
2.449657869012708
2.4173998044965788
2.3841642228739004
2.3489736070381237
2.3098729227761488
2.2688172043010755
2.2267839687194524
2.1867057673509285
2.1495601173020527
2.1163245356793743
2.0869990224828934
2.0635386119257086
2.0439882697947214
2.0283479960899315
2.016617790811339
2.007820136852395
1.997067448680352
1.9843597262952104
1.970674486803519
1.956989247311828
1.9423264907135875
1.9257086999022484
1.906158357771261
1.881720430107527
1.8533724340175952
1.822091886608016
1.7869012707722385
1.7556207233626588
1.7243401759530792
1.686217008797654
1.6451612903225807
1.603128054740958
1.5620723362658846
1.52297165200391
1.4848484848484849
1.4467253176930597
1.4105571847507332
1.375366568914956
1.3421309872922775
1.316715542521994
1.2961876832844574
1.2717497556207231
1.2453567937438903
1.2189638318670577
1.195503421309873
1.176930596285435
1.166177908113392
1.1652003910068427
1.176930596285435
1.206256109481916
1.2570869990224829
1.3304007820136852
1.4086021505376345
1.495601173020528
1.6050830889540566
1.7282502443792769
1.858260019550342
1.9872922776148585
2.113391984359726
2.231671554252199
2.3391984359726297
2.436950146627566
2.5239491691104594
2.60019550342131
2.6559139784946235
2.696969696969697
2.735092864125122
2.766373411534702
2.787878787878788
2.798631476050831
2.7966764418377323
2.782991202346041
2.758553274682307
2.7253176930596283
2.686217008797654
2.644183773216031
2.598240469208211
2.5532746823069403
2.509286412512219
2.462365591397849
2.4144672531769307
2.3685239491691106
2.326490713587488
2.289345063538612
2.2561094819159337
2.225806451612903
2.198435972629521
2.174975562072336
2.1524926686217007
2.131964809384164
2.113391984359726
2.09188660801564
2.071358748778104
2.0498533724340176
2.027370478983382
2.002932551319648
1.9765395894428155
1.949169110459433
1.9188660801564028
1.8875855327468232
1.8563049853372435
1.828934506353861
1.8025415444770283
1.76930596285435
1.7311827956989247
1.689149560117302
1.64613880742913
1.603128054740958
1.5610948191593352
1.5190615835777126
1.479960899315738
1.4428152492668622
1.4076246334310851
1.375366568914956
