ppg
1.0635386119257086
1.0576735092864125
1.0518084066471165
1.050830889540567
1.0527859237536656
1.053763440860215
1.0547409579667644
1.0557184750733135
1.0576735092864125
1.0606060606060606
1.0635386119257086
1.0654936461388074
1.0684261974584557
1.0713587487781036
1.0742913000977516
1.0801564027370478
1.0869990224828934
1.0918866080156402
1.0948191593352885
1.0957966764418376
1.0957966764418376
1.0957966764418376
1.0987292277614855
1.1094819159335287
1.1358748778103618
1.18475073313783
1.2639296187683284
1.3773216031280548
1.498533724340176
1.6344086021505375
1.8054740957966764
1.994134897360704
2.1837732160312804
2.361681329423265
2.5180840664711632
2.6471163245356792
2.747800586510264
2.820136852394917
2.8670576735092865
2.8944281524926687
2.902248289345064
2.897360703812317
2.886608015640274
2.870967741935484
2.8514173998044967
2.8289345063538613
2.8044965786901277
2.780058651026393
2.755620723362659
2.7311827956989245
2.705767350928641
2.6695992179863146
2.634408602150537
2.6080156402737047
2.5747800586510263
2.532746823069404
2.4809384164222874
2.420332355816227
2.3519061583577714
2.2766373411534704
2.1974584555229715
2.1163245356793743
2.037145650048876
1.9618768328445748
1.89247311827957
1.836754643206256
1.790811339198436
1.747800586510264
1.710654936461388
1.6803519061583578
1.6559139784946235
1.635386119257087
1.6177908113391983
1.6021505376344083
1.5865102639296187
1.5698924731182795
1.5532746823069403
1.5366568914956011
1.521994134897361
1.5073313782991202
1.4897360703812317
1.4711632453567938
1.4506353861192571
1.4291300097751711
1.4066471163245358
1.3841642228739004
1.3607038123167154
1.3372434017595307
1.313782991202346
1.2913000977517106
1.2746823069403714
1.260019550342131
1.2424242424242424
1.2238514173998043
1.2052785923753666
1.1837732160312806
1.164222873900293
1.1505376344086022
1.1368523949169111
1.1231671554252198
1.110459433040078
1.0987292277614855
1.0918866080156402
1.0879765395894427
1.083088954056696
1.0772238514173995
1.072336265884653
1.0684261974584557
1.0664711632453567
1.0654936461388074
1.0654936461388074
1.0664711632453567
1.0694037145650048
1.072336265884653
1.0742913000977516
1.078201368523949
1.0850439882697946
1.0899315738025417
1.093841642228739
1.0977517106549364
1.099706744868035
1.1006842619745845
1.1006842619745845
1.0987292277614855
1.099706744868035
1.1065493646138806
1.1368523949169111
1.173998044965787
1.217008797653959
1.2971652003910068
1.4643206256109482
1.640273704789834
1.7810361681329423
1.948191593352884
2.1622678396871944
2.357771260997068
2.487781036168133
2.608993157380254
2.719452590420332
2.801564027370479
2.8406647116324537
2.8611925708699903
2.8719452590420333
2.870967741935484
2.8611925708699903
2.8455522971652005
2.8260019550342133
2.803519061583578
2.779081133919844
2.7536656891495603
2.727272727272727
2.6989247311827955
2.6695992179863146
2.6471163245356792
2.616813294232649
2.570869990224829
2.5219941348973607
2.4838709677419355
2.43108504398827
2.350928641251222
2.270772238514174
2.188660801564027
2.1065493646138806
2.026392961876833
1.9579667644183771
1.8973607038123168
1.8377321603128052
1.782991202346041
1.7360703812316716
1.696969696969697
1.664711632453568
1.6383186705767352
1.616813294232649
1.598240469208211
1.581622678396872
1.5650048875855327
1.5513196480938416
1.5386119257087
1.52297165200391
1.5053763440860215
1.4858260019550342
1.4652981427174976
1.4437927663734116
1.4222873900293256
1.4007820136852396
1.3782991202346042
1.3558162267839686
1.3343108504398826
1.3128054740957966
1.295210166177908
1.2805474095796676
1.262952101661779
1.2443792766373412
1.2267839687194526
1.209188660801564
1.1915933528836755
1.1749755620723363
1.1593352883675463
1.144672531769306
1.130987292277615
1.1192570869990224
1.1114369501466277
1.1065493646138806
1.099706744868035
1.0928641251221896
1.0879765395894427
1.083088954056696
1.0791788856304985
1.0762463343108504
1.0742913000977516
1.0733137829912025
1.0733137829912025
1.0733137829912025
1.0742913000977516
1.078201368523949
1.0840664711632453
1.0879765395894427
1.0909090909090908
1.093841642228739
1.096774193548387
1.1006842619745845
1.104594330400782
1.1094819159335287
1.1133919843597262
1.115347018572825
1.1163245356793745
1.118279569892473
1.1221896383186705
1.1290322580645162
1.144672531769306
1.1788856304985338
1.238514173998045
1.3294232649071358
1.4545454545454546
1.6109481915933528
1.790811339198436
1.9824046920821117
2.1730205278592374
2.350928641251222
2.489736070381232
2.5962854349951123
2.69208211143695
2.76930596285435
2.825024437927664
2.8611925708699903
2.8797653958944283
2.8836754643206257
2.875855327468231
2.860215053763441
2.8396871945259043
2.8152492668621703
2.7869012707722387
2.757575757575758
2.7282502443792764
2.6989247311827955
2.6695992179863146
2.638318670576735
2.6041055718475072
2.565982404692082
2.5219941348973607
2.4711632453567938
2.412512218963832
2.346041055718475
2.2737047898338223
2.2052785923753664
2.1378299120234603
2.064516129032258
1.991202346041056
1.921798631476051
1.8592375366568916
1.804496578690127
1.758553274682307
1.721407624633431
1.6920821114369502
1.6686217008797657
1.6490713587487782
1.6334310850439884
1.6207233626588464
1.606060606060606
1.5894428152492668
1.5718475073313782
1.5542521994134897
1.5347018572825024
1.5141739980449658
1.4946236559139785
1.474095796676442
1.452590420332356
1.4320625610948192
1.4115347018572826
1.3949169110459434
1.380254154447703
1.3626588465298142
1.343108504398827
1.3225806451612905
1.3020527859237536
1.281524926686217
1.2609970674486803
1.2404692082111437
1.2209188660801564
1.2023460410557183
1.18475073313783
1.1720430107526882
1.1612903225806452
1.1495601173020529
1.1368523949169111
1.1251221896383188
1.1143695014662756
1.1055718475073313
1.0977517106549364
1.0918866080156402
1.0879765395894427
1.0850439882697946
1.083088954056696
1.0821114369501466
1.083088954056696
1.0850439882697946
1.086021505376344
1.086021505376344
1.086021505376344
1.086021505376344
1.086021505376344
1.0869990224828934
1.088954056695992
1.0899315738025417
1.0909090909090908
1.0909090909090908
1.0928641251221896
1.0977517106549364
1.1065493646138806
1.126099706744868
1.1652003910068427
1.23069403714565
1.3294232649071358
1.4623655913978495
1.624633431085044
1.8093841642228736
2.003910068426197
2.1955034213098727
2.3519061583577714
2.4789833822091887
2.60019550342131
2.702834799608993
2.782991202346041
2.8406647116324537
2.878787878787879
2.900293255131965
2.909090909090909
2.9071358748778104
2.897360703812317
2.8826979472140764
2.865102639296188
2.843597262952102
2.819159335288368
2.795698924731183
2.7722385141739982
2.748778103616813
2.7233626588465296
2.6959921798631474
2.664711632453568
2.6285434995112413
2.5855327468230693
2.5347018572825024
2.4760508308895406
2.4173998044965788
2.355816226783969
2.2854349951124147
2.209188660801564
2.132942326490713
2.058651026392962
1.9902248289345064
1.9286412512218964
1.8748778103616808
1.8299120234604105
1.793743890518084
1.7644183773216031
1.7419354838709675
1.7253176930596286
1.7116324535679377
1.6989247311827955
1.686217008797654
1.6744868035190617
1.6608015640273706
1.6451612903225807
1.629521016617791
1.611925708699902
1.5933528836754642
1.573802541544477
1.5532746823069403
1.525904203323558
1.495601173020528
1.4672531769305963
1.4408602150537635
1.414467253176931
1.3890518084066472
1.364613880742913
1.3411534701857282
1.3186705767350928
1.2961876832844574
1.273704789833822
1.2512218963831867
1.2297165200391007
1.2130987292277615
1.1994134897360704
1.1827956989247312
1.166177908113392
1.1495601173020529
1.1329423264907137
1.1173020527859236
1.1026392961876832
1.0899315738025417
1.078201368523949
1.067448680351906
1.056695992179863
1.050830889540567
1.0469208211143697
1.0410557184750733
1.0332355816226784
1.0254154447702837
1.0175953079178883
1.010752688172043
1.002932551319648
0.9951124144672532
0.9872922776148584
0.9794721407624634
0.9706744868035192
0.9618768328445748
0.956989247311828
0.95405669599218
0.9491691104594332
0.9433040078201368
0.9374389051808406
0.9305962854349952
0.9227761485826002
0.9149560117302052
0.9081133919843596
0.9012707722385142
0.8944281524926686
0.8866080156402737
0.8826979472140762
0.8807429130009775
0.8748778103616813
0.8670576735092864
0.8611925708699902
0.8621700879765396
0.8787878787878788
0.919843597262952
0.9931573802541545
1.1065493646138806
1.260019550342131
1.4496578690127078
1.6637341153470186
1.8592375366568916
2.040078201368524
2.232649071358749
2.4134897360703813
2.5698924731182795
2.695014662756598
2.790811339198436
2.8582600195503423
2.902248289345064
2.927663734115347
2.93841642228739
2.9374389051808407
2.9266862170087977
2.909090909090909
2.8905180840664717
2.8699902248289346
2.84652981427175
2.8211143695014664
2.793743890518084
2.763440860215054
2.730205278592375
2.6940371456500487
2.6529814271749754
2.6070381231671558
2.5542521994134897
2.4995112414467253
2.441837732160313
2.375366568914956
2.3010752688172045
2.2218963831867056
2.1417399804496577
2.0625610948191597
1.9872922776148585
1.9178885630498532
1.8563049853372435
1.8035190615835777
1.7605083088954057
1.7282502443792769
1.7038123167155426
1.6823069403714566
1.664711632453568
1.6490713587487782
1.6334310850439884
1.6187683284457477
1.6041055718475072
1.587487781036168
1.5708699902248289
1.5532746823069403
1.5356793743890518
1.517106549364614
1.500488758553275
1.4858260019550342
1.469208211143695
1.4506353861192571
1.43108504398827
1.4115347018572826
1.3919843597262953
1.3714565004887584
1.3509286412512218
1.3304007820136852
1.3088954056695992
1.2873900293255132
1.270772238514174
1.2570869990224829
1.2394916911045943
1.219941348973607
1.2003910068426198
1.1808406647116323
1.1622678396871946
1.144672531769306
1.1280547409579669
1.1114369501466277
1.0948191593352885
1.0791788856304985
1.064516129032258
1.053763440860215
1.0469208211143697
1.0371456500488758
1.0273704789833822
1.018572825024438
1.010752688172043
1.0039100684261977
0.997067448680352
0.9912023460410556
0.9853372434017597
0.9804496578690128
0.9765395894428152
0.975562072336266
0.9765395894428152
0.975562072336266
0.9736070381231672
0.9716520039100685
0.9696969696969696
0.967741935483871
0.9657869012707724
0.9638318670576737
0.9618768328445748
0.9579667644183774
0.9521016617790812
0.9491691104594332
0.9481915933528836
0.9472140762463344
0.95405669599218
0.9775171065493646
1.0263929618768328
1.110459433040078
1.2326490713587488
1.3919843597262953
1.5826001955034212
1.793743890518084
2.010752688172043
2.219941348973607
2.389051808406647
2.5249266862170088
2.652003910068426
2.757575757575758
2.838709677419355
2.8963831867057674
2.9315738025415445
2.9472140762463344
2.948191593352884
2.93841642228739
2.919843597262952
2.8963831867057674
2.868035190615836
2.838709677419355
2.8084066471163247
2.779081133919844
2.748778103616813
2.716520039100684
2.6823069403714563
2.6451612903225805
2.603128054740958
2.555229716520039
2.4995112414467253
2.4359726295210167
2.364613880742913
2.294232649071359
2.2238514173998043
2.144672531769306
2.0625610948191597
1.981427174975562
1.906158357771261
1.8377321603128052
1.7771260997067448
1.726295210166178
1.6852394916911049
1.6520039100684265
1.6256109481915937
1.606060606060606
1.5913978494623655
1.5777126099706744
1.5650048875855327
1.552297165200391
1.5386119257087
1.5239491691104594
1.509286412512219
1.4946236559139785
1.478983382209189
1.4633431085043989
1.4467253176930597
1.4301075268817205
1.4164222873900294
1.404692082111437
1.391006842619746
1.3763440860215057
1.3616813294232648
1.3470185728250244
1.3313782991202343
1.316715542521994
1.3020527859237536
1.2873900293255132
1.2727272727272727
1.260019550342131
1.2512218963831867
1.2443792766373412
1.2355816226783969
1.2267839687194526
1.2189638318670577
1.2130987292277615
1.2082111436950147
1.2052785923753666
1.203323558162268
1.2023460410557183
1.2023460410557183
1.2023460410557183
1.2013685239491692
1.2023460410557183
1.2043010752688172
1.2043010752688172
1.2023460410557183
1.2003910068426198
1.1974584555229717
1.2267839687194526
1.270772238514174
1.2913000977517106
1.300097751710655
1.303030303030303
1.303030303030303
1.3049853372434017
1.3069403714565004
1.3069403714565004
1.3049853372434017
1.3020527859237536
1.2981427174975562
1.2961876832844574
1.3020527859237536
1.321603128054741
1.3636363636363635
1.434017595307918
1.5376344086021505
1.672531769305963
1.8093841642228736
1.9501466275659824
2.118279569892473
2.29227761485826
2.4565004887585533
2.6021505376344085
2.7233626588465296
2.817204301075269
2.8856304985337244
2.930596285434995
2.956011730205278
2.9667644183773216
2.962854349951124
2.9501466275659824
2.9345063538611926
2.9159335288367547
2.89345063538612
2.8690127077223853
2.843597262952102
2.817204301075269
2.788856304985337
2.7595307917888565
2.729227761485826
2.696969696969697
2.6608015640273703
2.6236559139784945
2.582600195503421
2.5347018572825024
2.4789833822091887
2.418377321603128
2.3528836754643208
2.286412512218964
2.218963831867057
2.15347018572825
2.090909090909091
2.032258064516129
1.978494623655914
1.9345063538611929
1.8973607038123168
1.8621700879765395
1.8299120234604105
1.8005865102639296
1.775171065493646
1.750733137829912
1.726295210166178
1.7018572825024438
1.6764418377321604
1.6500488758553276
1.6226783968719452
1.5943304007820136
1.5698924731182795
1.547409579667644
1.521994134897361
1.4965786901270772
1.4701857282502444
1.444770283479961
1.4203323558162269
1.3978494623655917
1.3763440860215057
1.356793743890518
1.33822091886608
1.3206256109481915
1.3079178885630498
1.2971652003910068
1.2854349951124144
1.2727272727272727
1.2609970674486803
1.2502443792766371
1.241446725317693
1.2355816226783969
1.2316715542521994
1.2287390029325511
1.227761485826002
1.2287390029325511
1.2297165200391007
1.2326490713587488
1.2365591397849462
1.2394916911045943
1.2404692082111437
1.2404692082111437
1.2404692082111437
1.238514173998045
1.2355816226783969
1.23069403714565
1.2258064516129032
1.219941348973607
1.2121212121212122
1.2082111436950147
1.2052785923753666
1.2003910068426198
1.1945259042033236
1.187683284457478
1.181818181818182
1.1759530791788857
1.1720430107526882
1.1759530791788857
1.1945259042033236
1.2365591397849462
1.3088954056695992
1.4173998044965788
1.5366568914956011
1.6715542521994136
1.8455522971652003
2.0410557184750733
2.241446725317693
2.432062561094819
2.6041055718475072
2.7497556207233624
2.868035190615836
2.959921798631476
3.027370478983382
3.074291300097752
3.0977517106549364
3.1065493646138806
3.110459433040078
3.10850439882698
3.1006842619745845
3.0879765395894427
3.071358748778104
3.0518084066471163
3.029325513196481
3.004887585532747
2.978494623655914
2.951124144672532
2.920821114369501
2.887585532746823
2.8514173998044967
2.8103616813294234
2.763440860215054
2.7096774193548385
2.649071358748778
2.582600195503421
2.512218963831867
2.439882697947214
2.3685239491691106
2.2991202346041058
2.2346041055718477
2.1808406647116323
2.134897360703812
2.09188660801564
2.053763440860215
2.021505376344086
1.9951124144672527
1.9726295210166176
1.95405669599218
1.93841642228739
1.924731182795699
1.9130009775171064
1.9012707722385145
1.8905180840664717
1.8797653958944285
1.868035190615836
1.8543499511241448
1.8377321603128052
1.818181818181818
1.7976539589442817
1.7781036168132942
1.7634408602150538
1.7556207233626588
1.7565982404692082
1.7673509286412512
1.7869012707722385
1.8074291300097751
1.8299120234604105
1.855327468230694
1.8797653958944285
1.9012707722385145
1.9188660801564028
1.9315738025415443
1.9393939393939397
1.943304007820137
1.943304007820137
1.9403714565004888
1.9335288367546437
1.9257086999022484
1.9159335288367547
1.903225806451613
1.8885630498533723
1.8729227761485825
1.8563049853372435
1.8406647116324533
1.826001955034213
1.81524926686217
1.8084066471163245
1.8084066471163245
1.8142717497556209
1.8269794721407624
1.839687194525904
1.8533724340175952
1.8670576735092863
1.87683284457478
1.878787878787879
1.8729227761485825
1.8602150537634408
1.842619745845552
1.8240469208211143
1.8093841642228736
1.804496578690127
1.8172043010752688
1.842619745845552
1.8866080156402736
1.9608993157380252
2.0625610948191597
2.1847507331378297
2.317693059628544
2.449657869012708
2.5718475073313782
2.674486803519061
2.7517106549364616
2.8025415444770285
2.8289345063538613
2.833822091886608
2.822091886608016
2.80058651026393
2.773216031280548
2.744868035190616
2.717497556207233
2.695014662756598
2.67644183773216
2.662756598240469
2.653958944281525
2.6471163245356792
2.6402737047898337
2.632453567937439
2.619745845552297
2.601173020527859
2.5777126099706744
2.5454545454545454
2.504398826979472
2.452590420332356
2.3929618768328447
2.3274682306940373
2.257086999022483
2.1847507331378297
2.112414467253177
2.0410557184750733
1.9736070381231672
1.878787878787879
1.7732160312805474
1.6989247311827955
1.6490713587487782
1.6177908113391983
1.603128054740958
1.6011730205278591
1.606060606060606
1.6109481915933528
1.6080156402737047
1.5933528836754642
1.564027370478983
1.5288367546432062
1.487781036168133
1.434017595307918
1.3743890518084063
1.313782991202346
1.2551319648093842
1.1994134897360704
1.147605083088954
1.0987292277614855
1.0518084066471165
1.0068426197458455
0.9618768328445748
0.916911045943304
0.8817204301075269
0.8514173998044966
0.8152492668621701
0.7790811339198436
0.7429130009775171
0.7096774193548387
0.678396871945259
0.6500488758553274
0.6226783968719453
0.5962854349951124
0.5728250244379277
0.5493646138807429
0.533724340175953
0.52297165200391
0.5073313782991202
0.4897360703812317
0.4701857282502444
0.4496578690127077
0.4301075268817204
0.4125122189638319
0.3988269794721407
0.3900293255131964
0.3870967741935484
0.3910068426197458
0.4017595307917888
0.4203323558162268
0.4437927663734115
0.469208211143695
0.4975562072336266
0.5288367546432062
0.5620723362658846
0.5962854349951124
0.6314760508308895
0.6686217008797654
0.7096774193548387
0.7556207233626588
0.8123167155425219
0.873900293255132
0.9481915933528836
1.0498533724340176
1.1779081133919844
1.3294232649071358
1.4975562072336266
1.6744868035190617
1.8484848484848484
2.0087976539589443
2.146627565982405
2.2580645161290325
2.340175953079179
2.3949169110459434
2.423264907135875
2.4330400782013686
2.4330400782013686
2.423264907135875
2.406647116324536
2.3841642228739004
2.358748778103617
2.332355816226784
2.3059628543499517
2.280547409579668
2.2561094819159337
2.232649071358749
2.210166177908113
2.188660801564027
2.166177908113392
2.1417399804496577
2.113391984359726
2.0791788856304985
2.0391006842619745
1.9931573802541545
1.9403714565004888
1.881720430107527
1.8211143695014664
1.758553274682307
1.6979472140762464
1.6471163245356797
1.6050830889540566
1.5650048875855327
1.5298142717497556
1.501466275659824
1.479960899315738
1.4643206256109482
1.4535679374389052
1.4467253176930597
1.4408602150537635
1.4349951124144673
1.4291300097751711
1.4242424242424243
1.4193548387096775
1.4115347018572826
1.401759530791789
1.3900293255131966
1.3773216031280548
1.3626588465298142
1.3470185728250244
1.3313782991202343
1.3147605083088951
1.2991202346041055
1.2825024437927663
1.2697947214076246
1.2590420332355816
1.24633431085044
1.2326490713587488
1.2189638318670577
1.2052785923753666
1.1925708699902249
1.1798631476050832
1.1681329423264908
1.1573802541544478
1.1466275659824048
1.1368523949169111
1.1280547409579669
1.1221896383186705
1.1192570869990224
1.1143695014662756
1.1085043988269794
1.1036168132942326
1.0977517106549364
1.0928641251221896
1.0899315738025417
1.0879765395894427
1.0869990224828934
1.086021505376344
1.086021505376344
1.0869990224828934
1.088954056695992
1.0879765395894427
1.086021505376344
1.083088954056696
1.078201368523949
1.072336265884653
1.064516129032258
1.0547409579667644
1.0439882697947214
1.0361681329423265
1.0361681329423265
1.050830889540567
1.0791788856304985
1.126099706744868
1.2052785923753666
1.3176930596285434
1.4604105571847508
1.6256109481915937
1.801564027370479
1.9765395894428155
2.139784946236559
2.2825024437927666
2.39980449657869
2.490713587487781
2.549364613880743
2.58455522971652
2.6099706744868034
2.625610948191593
2.63049853372434
2.627565982404692
2.618768328445748
2.606060606060606
2.590420332355816
2.573802541544477
2.555229716520039
2.536656891495601
2.5180840664711632
2.498533724340176
2.4760508308895406
2.4516129032258065
2.4242424242424243
2.391006842619746
2.3519061583577714
2.304985337243402
2.2502443792766376
2.187683284457478
2.118279569892473
2.0439882697947214
1.9667644183773216
1.8973607038123168
1.8347996089931573
1.7702834799608993
1.7096774193548387
1.6559139784946235
1.6109481915933528
1.573802541544477
1.542521994134897
1.5180840664711632
1.4975562072336266
1.479960899315738
1.4633431085043989
1.4467253176930597
1.4330400782013686
1.4193548387096775
1.4027370478983383
1.3841642228739004
1.364613880742913
1.3440860215053765
1.3235581622678396
1.3020527859237536
1.2805474095796676
1.2580645161290325
1.2346041055718475
1.2111436950146628
1.1925708699902249
1.1759530791788857
1.1573802541544478
1.1368523949169111
1.1163245356793745
1.0977517106549364
1.0811339198435972
1.0654936461388074
1.0518084066471165
1.040078201368524
1.029325513196481
1.0195503421309873
1.010752688172043
1.0068426197458455
1.0048875855327468
1.0
0.9951124144672532
0.9912023460410556
0.9882697947214076
0.9863147605083088
0.9863147605083088
0.9872922776148584
0.9882697947214076
0.9902248289345064
0.9921798631476052
0.997067448680352
1.0039100684261977
1.0097751710654936
1.0146627565982405
1.0205278592375366
1.0254154447702837
1.0303030303030305
1.1700879765395895
1.3763440860215057
1.478983382209189
1.5298142717497556
1.555229716520039
1.5718475073313782
1.5894428152492668
1.6148582600195502
1.656891495601173
1.7223851417399805
1.81524926686217
1.935483870967742
2.078201368523949
2.233626588465298
2.3919843597262958
2.5425219941348973
2.67644183773216
2.788856304985337
2.868035190615836
2.921798631476051
2.964809384164223
2.994134897360704
3.010752688172043
3.016617790811339
3.013685239491691
3.003910068426197
2.9902248289345064
2.973607038123167
2.9550342130987293
2.9345063538611926
2.913978494623656
2.89247311827957
2.8699902248289346
2.8475073313782997
2.825024437927664
2.7996089931573804
2.7722385141739982
2.739980449657869
2.7008797653958942
2.6559139784946235
2.603128054740958
2.544477028347996
2.4809384164222874
2.421309872922776
2.364613880742913
2.303030303030303
2.242424242424242
2.185728250244379
2.1358748778103616
2.093841642228739
2.058651026392962
2.0303030303030303
2.007820136852395
1.989247311827957
1.9726295210166176
1.9579667644183771
1.945259042033236
1.9345063538611929
1.921798631476051
1.90811339198436
1.89247311827957
1.87683284457478
1.8602150537634408
1.8435972629521016
1.8269794721407624
1.8103616813294232
1.7927663734115349
1.7761485826001957
1.7624633431085044
1.7517106549364614
1.7380254154447703
1.7233626588465298
1.70772238514174
1.6930596285434996
1.678396871945259
1.664711632453568
1.651026392961877
1.6383186705767352
1.6265884652981428
1.6148582600195502
1.607038123167155
1.6011730205278591
1.5943304007820136
1.5865102639296187
1.5796676441837731
1.5728250244379276
1.5669599217986314
1.5620723362658846
1.5591397849462365
1.5562072336265884
1.555229716520039
1.5542521994134897
1.5542521994134897
1.5571847507331378
