ppg
2.6080156402737047
2.667644183773216
2.7038123167155423
2.788856304985337
2.902248289345064
2.961876832844575
2.9931573802541545
3.007820136852395
3.0127077223851417
3.0117302052785924
3.003910068426197
2.988269794721408
2.963831867057673
2.9315738025415445
2.8914956011730206
2.844574780058651
2.7869012707722387
2.719452590420332
2.644183773216031
2.5640273704789838
2.4809384164222874
2.39980449657869
2.32355816226784
2.254154447702835
2.1925708699902247
2.139784946236559
2.0948191593352883
2.059628543499511
2.03128054740958
2.004887585532747
1.981427174975562
1.959921798631476
1.9374389051808407
1.9130009775171064
1.8866080156402736
1.858260019550342
1.827956989247312
1.796676441837732
1.7644183773216031
1.7360703812316716
1.710654936461388
1.6813294232649072
1.651026392961877
1.6187683284457477
1.5865102639296187
1.5542521994134897
1.52297165200391
1.4926686217008798
1.4643206256109482
1.4379276637341154
1.414467253176931
1.392961876832845
1.3773216031280548
1.364613880742913
1.348973607038123
1.332355816226784
1.3157380254154447
1.300097751710655
1.284457478005865
1.2697947214076246
1.2570869990224829
1.2473118279569892
1.2394916911045943
1.2326490713587488
1.2287390029325511
1.2267839687194526
1.2228739002932552
1.2179863147605083
1.2130987292277615
1.2072336265884651
1.2013685239491692
1.195503421309873
1.1896383186705768
1.1837732160312806
1.1779081133919844
1.1710654936461389
1.164222873900293
1.160312805474096
1.1593352883675463
1.1573802541544478
1.1544477028347997
1.1505376344086022
1.147605083088954
1.144672531769306
1.1407624633431086
1.1368523949169111
1.1329423264907137
1.1290322580645162
1.1251221896383188
1.1241446725317692
1.1251221896383188
1.1231671554252198
1.121212121212121
1.121212121212121
1.1241446725317692
1.1358748778103618
1.1622678396871946
1.2082111436950147
1.2776148582600195
1.3724340175953078
1.4926686217008798
1.632453567937439
1.7644183773216031
1.8934506353861196
2.037145650048876
2.1818181818181817
2.314760508308896
2.4301075268817205
2.5249266862170088
2.5992179863147604
2.653958944281525
2.69208211143695
2.716520039100684
2.7311827956989245
2.735092864125122
2.732160312805474
2.727272727272727
2.720430107526881
2.710654936461388
2.6959921798631474
2.674486803519061
2.644183773216031
2.6050830889540566
2.557184750733138
2.5004887585532747
2.436950146627566
2.36950146627566
2.3069403714565007
2.2482893450635384
2.1867057673509285
2.129032258064516
2.075268817204301
2.0283479960899315
1.989247311827957
1.956989247311828
1.9305962854349952
1.90811339198436
1.8866080156402736
1.8670576735092863
1.8494623655913975
1.8318670576735088
1.812316715542522
1.7898338220918866
1.7644183773216031
1.7380254154447703
1.7096774193548387
1.678396871945259
1.64613880742913
1.6138807429130009
1.5806451612903225
1.5483870967741935
1.521994134897361
1.498533724340176
1.4721407624633431
1.4467253176930597
1.4222873900293256
1.3988269794721409
1.3773216031280548
1.3577712609970674
1.3391984359726294
1.3225806451612905
1.3088954056695992
1.2971652003910068
1.2873900293255132
1.2825024437927663
1.2805474095796676
1.2766373411534702
1.273704789833822
1.2727272727272727
1.2717497556207231
1.2717497556207231
1.2717497556207231
1.2717497556207231
1.2727272727272727
1.2746823069403714
1.2766373411534702
1.2795698924731185
1.2825024437927663
1.2854349951124144
1.2873900293255132
1.2883675464320623
1.289345063538612
1.289345063538612
1.289345063538612
1.289345063538612
1.289345063538612
1.2903225806451613
1.2932551319648091
1.2961876832844574
1.3010752688172045
1.305962854349951
1.3088954056695992
1.310850439882698
1.3118279569892473
1.3128054740957966
1.3128054740957966
1.3118279569892473
1.3098729227761483
1.3088954056695992
1.3098729227761483
1.3157380254154447
1.327468230694037
1.3479960899315735
1.3851417399804498
1.4437927663734116
1.525904203323558
1.6334310850439884
1.7634408602150538
1.9120234604105573
2.071358748778104
2.231671554252199
2.3851417399804498
2.525904203323558
2.649071358748778
2.7390029325513194
2.803519061583578
2.859237536656892
2.903225806451613
2.9345063538611926
2.9550342130987293
2.9667644183773216
2.9716520039100685
2.9716520039100685
2.9667644183773216
2.9579667644183774
2.943304007820137
2.921798631476051
2.8944281524926687
2.859237536656892
2.814271749755621
2.760508308895406
2.696969696969697
2.625610948191593
2.548387096774193
2.469208211143695
2.3900293255131966
2.315738025415445
2.2482893450635384
2.189638318670577
2.142717497556207
2.1055718475073317
2.072336265884653
2.043010752688172
2.0175953079178885
1.994134897360704
1.9716520039100685
1.949169110459433
1.9257086999022484
1.9012707722385145
1.8748778103616808
1.8455522971652003
1.818181818181818
1.7917888563049853
1.7605083088954057
1.7272727272727273
1.6920821114369502
1.656891495601173
1.6236559139784943
1.5913978494623655
1.5356793743890518
1.4682306940371457
1.4203323558162269
1.383186705767351
1.3519061583577712
1.3284457478005864
1.3088954056695992
1.2883675464320623
1.267839687194526
1.249266862170088
1.2336265884652982
1.2189638318670577
1.2072336265884651
1.198435972629521
1.1915933528836755
1.1867057673509287
1.181818181818182
1.1798631476050832
1.1798631476050832
1.176930596285435
1.173998044965787
1.1700879765395895
1.166177908113392
1.1612903225806452
1.1564027370478984
1.1505376344086022
1.144672531769306
1.1397849462365592
1.1358748778103618
1.1319648093841643
1.130987292277615
1.130987292277615
1.1300097751710656
1.1280547409579669
1.126099706744868
1.1241446725317692
1.1221896383186705
1.1202346041055715
1.1192570869990224
1.118279569892473
1.1173020527859236
1.1163245356793745
1.1173020527859236
1.1192570869990224
1.1192570869990224
1.118279569892473
1.1173020527859236
1.1173020527859236
1.1202346041055715
1.1280547409579669
1.1466275659824048
1.181818181818182
1.238514173998045
1.321603128054741
1.4320625610948192
1.5464320625610948
1.6686217008797657
1.818181818181818
1.9765395894428155
2.1309872922776147
2.270772238514174
2.388074291300098
2.479960899315738
2.5464320625610948
2.589442815249267
2.6148582600195502
2.627565982404692
2.6285434995112413
2.6236559139784945
2.618768328445748
2.6148582600195502
2.611925708699902
2.6099706744868034
2.6070381231671558
2.6021505376344085
2.592375366568915
2.575757575757576
2.5513196480938416
2.5180840664711632
2.4760508308895406
2.43108504398827
2.3822091886608017
2.3255131964809386
2.2658846529814274
2.2052785923753664
2.1485826001955037
2.096774193548387
2.0527859237536656
2.01564027370479
1.9853372434017595
1.9608993157380252
1.9403714565004888
1.9227761485826005
1.9071358748778104
1.8905180840664717
1.871945259042033
1.8504398826979471
1.8269794721407624
1.7996089931573802
1.7683284457478006
1.7350928641251222
1.6989247311827955
1.66177908113392
1.6236559139784943
1.585532746823069
1.5532746823069403
1.52297165200391
1.4897360703812317
1.456500488758553
1.4242424242424243
1.392961876832845
1.3636363636363635
1.3362658846529814
1.310850439882698
1.2864125122189638
1.2639296187683284
1.2434017595307918
1.2287390029325511
1.2179863147605083
1.2052785923753666
1.1935483870967742
1.1827956989247312
1.1720430107526882
1.1612903225806452
1.1495601173020529
1.13880742913001
1.1300097751710656
1.1221896383186705
1.1143695014662756
1.1094819159335287
1.10752688172043
1.1036168132942326
1.096774193548387
1.0899315738025417
1.083088954056696
1.0762463343108504
1.0694037145650048
1.0635386119257086
1.0576735092864125
1.050830889540567
1.0439882697947214
1.0391006842619743
1.0371456500488758
1.0371456500488758
1.0361681329423265
1.0361681329423265
1.0361681329423265
1.035190615835777
1.0332355816226784
1.0303030303030305
1.0263929618768328
1.0224828934506354
1.0195503421309873
1.0175953079178883
1.018572825024438
1.0234604105571847
1.0303030303030305
1.043010752688172
1.0654936461388074
1.1026392961876832
1.160312805474096
1.2424242424242424
1.3519061583577712
1.4858260019550342
1.640273704789834
1.8064516129032255
1.9765395894428155
2.1192570869990224
2.241446725317693
2.3626588465298144
2.4711632453567938
2.560117302052786
2.627565982404692
2.67644183773216
2.7096774193548385
2.730205278592375
2.740957966764418
2.7438905180840663
2.7419354838709675
2.7331378299120237
2.720430107526881
2.704789833822092
2.684261974584555
2.6578690127077222
2.6236559139784945
2.579667644183773
2.5268817204301075
2.466275659824047
2.398826979472141
2.3274682306940373
2.2561094819159337
2.1867057673509285
2.1270772238514173
2.075268817204301
2.0254154447702835
1.978494623655914
1.935483870967742
1.8963831867057677
1.8602150537634408
1.825024437927664
1.7888563049853372
1.7526881720430108
1.7145650048875856
1.6744868035190617
1.6392961876832846
1.6050830889540566
1.565982404692082
1.5249266862170088
1.482893450635386
1.4418377321603129
1.401759530791789
1.364613880742913
1.3313782991202343
1.3020527859237536
1.2766373411534702
1.2561094819159335
1.2404692082111437
1.2316715542521994
1.2267839687194526
1.2238514173998043
1.2238514173998043
1.2267839687194526
1.2316715542521994
1.2375366568914956
1.2453567937438903
1.2512218963831867
1.2580645161290325
1.2639296187683284
1.2688172043010753
1.2746823069403714
1.2805474095796676
1.2834799608993157
1.284457478005865
1.281524926686217
1.2746823069403714
1.2639296187683284
1.249266862170088
1.23069403714565
1.2082111436950147
1.1827956989247312
1.1534701857282503
1.1221896383186705
1.0957966764418376
1.072336265884653
1.0439882697947214
1.0146627565982405
0.9843597262952102
0.95405669599218
0.9266862170087976
0.9032258064516128
0.8856304985337243
0.873900293255132
0.8690127077223851
0.8699902248289345
0.8778103616813294
0.8905180840664711
0.9413489736070382
1.0146627565982405
1.0654936461388074
1.1065493646138806
1.1436950146627567
1.1798631476050832
1.2160312805474096
1.2541544477028348
1.2981427174975562
1.3519061583577712
1.4193548387096775
1.4916911045943304
1.576735092864125
1.6901270772238517
1.827956989247312
1.9833822091886608
2.1485826001955037
2.314760508308896
2.4731182795698925
2.6158357771261
2.7390029325513194
2.8406647116324537
2.917888563049853
2.9667644183773216
2.995112414467253
3.016617790811339
3.0303030303030303
3.035190615835777
3.034213098729228
3.0283479960899315
3.018572825024438
3.004887585532747
2.986314760508309
2.961876832844575
2.9286412512218964
2.8856304985337244
2.8377321603128056
2.7839687194525906
2.721407624633431
2.6510263929618767
2.576735092864125
2.5024437927663734
2.4301075268817205
2.363636363636364
2.304985337243402
2.2561094819159337
2.2160312805474094
2.1837732160312804
2.158357771260997
2.136852394916911
2.1163245356793743
2.0948191593352883
2.072336265884653
2.047898338220919
2.021505376344086
1.9931573802541545
1.962854349951124
1.9315738025415443
1.900293255131965
1.868035190615836
1.835777126099707
1.8074291300097751
1.7810361681329423
1.7517106549364614
1.7223851417399805
1.694037145650049
1.6656891495601174
1.6392961876832846
1.6158357771260996
1.595307917888563
1.576735092864125
1.560117302052786
1.5464320625610948
1.5376344086021505
1.5317693059628543
1.525904203323558
1.520039100684262
1.5131964809384164
1.5063538611925709
1.500488758553275
1.495601173020528
1.490713587487781
1.4858260019550342
1.4819159335288368
1.47702834799609
1.4750733137829912
1.474095796676442
1.4701857282502444
1.4633431085043989
1.4535679374389052
1.4428152492668622
1.4330400782013686
1.423264907135875
1.414467253176931
1.4066471163245358
1.3998044965786902
1.392961876832845
1.3861192570869991
1.3822091886608017
1.3792766373411536
1.3763440860215057
1.3734115347018572
1.3714565004887584
1.3724340175953078
1.3792766373411536
1.3978494623655917
1.434017595307918
1.4926686217008798
1.5796676441837731
1.6950146627565983
1.8132942326490715
1.9403714565004888
2.096774193548387
2.267839687194526
2.4408602150537635
2.603128054740958
2.747800586510264
2.8699902248289346
2.9687194525904204
3.0439882697947214
3.0987292277614857
3.1378299120234603
3.164222873900293
3.174975562072336
3.177908113391984
3.1818181818181817
3.1837732160312804
3.1818181818181817
3.175953079178885
3.164222873900293
3.145650048875855
3.117302052785924
3.0772238514174
3.0254154447702835
2.960899315738025
2.89247311827957
2.820136852394917
2.7370478983382207
2.6471163245356792
2.555229716520039
2.4652981427174976
2.3812316715542523
2.304985337243402
2.239491691104594
2.1837732160312804
2.1388074291300097
2.101661779081134
2.072336265884653
2.048875855327468
2.029325513196481
2.0097751710654936
1.989247311827957
1.9667644183773216
1.9423264907135875
1.9159335288367547
1.8866080156402736
1.855327468230694
1.822091886608016
1.7869012707722385
1.750733137829912
1.718475073313783
1.689149560117302
1.656891495601173
1.6256109481915937
1.5943304007820136
1.5650048875855327
1.5356793743890518
1.5083088954056696
1.482893450635386
1.4594330400782014
1.436950146627566
1.4164222873900294
1.3978494623655917
1.3841642228739004
1.3724340175953078
1.3587487781036167
1.3450635386119256
1.332355816226784
1.3196480938416422
1.3079178885630498
1.2981427174975562
1.289345063538612
1.2825024437927663
1.2756598240469208
1.270772238514174
1.2688172043010753
1.267839687194526
1.2649071358748778
1.2609970674486803
1.2561094819159335
1.2502443792766371
1.2443792766373412
1.238514173998045
1.2316715542521994
1.224828934506354
1.219941348973607
1.217008797653959
1.2140762463343109
1.2140762463343109
1.2150537634408602
1.2130987292277615
1.2101661779081134
1.206256109481916
1.203323558162268
1.2013685239491692
1.1994134897360704
1.198435972629521
1.198435972629521
1.198435972629521
1.2003910068426198
1.2043010752688172
1.209188660801564
1.2111436950146628
1.2121212121212122
1.2130987292277615
1.2130987292277615
1.2130987292277615
1.2130987292277615
1.2130987292277615
1.2140762463343109
1.217008797653959
1.2267839687194526
1.249266862170088
1.2825024437927663
1.3333333333333333
1.414467253176931
1.5268817204301075
1.6695992179863148
1.835777126099707
2.0175953079178885
2.206256109481916
2.389051808406647
2.558162267839687
2.705767350928641
2.8289345063538613
2.9149560117302054
2.973607038123167
3.022482893450636
3.059628543499511
3.085043988269794
3.101661779081134
3.1114369501466275
3.117302052785924
3.120234604105572
3.1192570869990224
3.114369501466276
3.102639296187683
3.0821114369501466
3.0527859237536656
3.0146627565982405
2.9667644183773216
2.90811339198436
2.8396871945259043
2.763440860215054
2.6832844574780057
2.6021505376344085
2.4858260019550342
2.355816226783969
2.26197458455523
2.189638318670577
2.1358748778103616
2.0948191593352883
2.0576735092864125
2.0254154447702835
1.997067448680352
1.9716520039100685
1.9472140762463344
1.9227761485826005
1.8963831867057677
1.868035190615836
1.836754643206256
1.8035190615835777
1.7683284457478006
1.737047898338221
1.7067448680351909
1.672531769305963
1.6373411534701858
1.6021505376344083
1.5669599217986314
1.5317693059628543
1.4965786901270772
1.4633431085043989
1.43108504398827
1.401759530791789
1.375366568914956
1.3558162267839686
1.3411534701857282
1.327468230694037
1.3128054740957966
1.2961876832844574
1.2776148582600195
1.2551319648093842
1.227761485826002
1.195503421309873
1.1573802541544478
1.1173020527859236
1.0772238514173995
1.0391006842619743
1.0117302052785924
0.9902248289345064
0.967741935483871
0.9481915933528836
0.935483870967742
0.9315738025415444
0.9413489736070382
0.9667644183773216
1.0117302052785924
1.0801564027370478
1.173998044965787
1.2913000977517106
1.4086021505376345
1.530791788856305
1.675464320625611
1.827956989247312
1.978494623655914
2.118279569892473
2.241446725317693
2.345063538611926
2.4252199413489737
2.482893450635386
2.520039100684262
2.539589442815249
2.544477028347996
2.5386119257087
2.525904203323558
2.506353861192571
2.479960899315738
2.444770283479961
2.401759530791789
2.3519061583577714
2.294232649071359
2.23069403714565
2.163245356793744
2.0948191593352883
2.029325513196481
1.975562072336266
1.9296187683284456
1.8885630498533723
1.8563049853372435
1.8328445747800584
1.818181818181818
1.8093841642228736
1.8054740957966764
1.804496578690127
1.804496578690127
1.8025415444770283
1.796676441837732
1.7878787878787878
1.7771260997067448
1.7624633431085044
1.7429130009775171
1.7204301075268815
1.694037145650049
1.664711632453568
1.6334310850439884
1.6021505376344083
1.5708699902248289
1.5395894428152492
1.5102639296187683
1.4819159335288368
1.4604105571847508
1.4428152492668622
1.423264907135875
1.404692082111437
1.388074291300098
1.3724340175953078
1.3587487781036167
1.346041055718475
1.3343108504398826
1.3255131964809383
1.3186705767350928
1.313782991202346
1.3128054740957966
1.313782991202346
1.3147605083088951
1.3147605083088951
1.313782991202346
1.3128054740957966
1.310850439882698
1.3088954056695992
1.3069403714565004
1.3049853372434017
1.3020527859237536
1.2971652003910068
1.2913000977517106
1.2883675464320623
1.2864125122189638
1.2825024437927663
1.2766373411534702
1.270772238514174
1.2658846529814272
1.2609970674486803
1.2561094819159335
1.2531769305962854
1.2512218963831867
1.2502443792766371
1.2502443792766371
1.252199413489736
1.2551319648093842
1.2570869990224829
1.2580645161290325
1.2580645161290325
1.2580645161290325
1.2570869990224829
1.2561094819159335
1.2551319648093842
1.2551319648093842
1.2551319648093842
1.2551319648093842
1.2551319648093842
1.2570869990224829
1.260019550342131
1.2619745845552297
1.262952101661779
1.262952101661779
1.2639296187683284
1.2639296187683284
1.2649071358748778
1.2649071358748778
1.2639296187683284
1.262952101661779
1.2619745845552297
1.262952101661779
1.2658846529814272
1.2727272727272727
1.2913000977517106
1.327468230694037
1.391006842619746
1.4868035190615836
1.6158357771260996
1.7771260997067448
1.9618768328445748
2.161290322580645
2.363636363636364
2.5562072336265884
2.7096774193548385
2.831867057673509
2.9501466275659824
3.0518084066471163
3.133919843597263
3.1945259042033234
3.2375366568914954
3.2658846529814274
3.2844574780058653
3.294232649071359
3.2961876832844577
3.289345063538612
3.272727272727273
3.249266862170088
3.2218963831867056
3.1867057673509285
3.142717497556207
3.089931573802541
3.0283479960899315
2.9589442815249267
2.881720430107527
2.798631476050831
2.7126099706744866
2.6265884652981426
2.5425219941348973
2.469208211143695
2.4056695992179864
2.345063538611926
2.291300097751711
2.244379276637341
2.203323558162268
2.167155425219941
2.133919843597263
2.102639296187683
2.071358748778104
2.040078201368524
2.006842619745845
1.9765395894428155
1.946236559139785
1.9120234604105573
1.8758553274682308
1.8377321603128052
1.7986314760508308
1.7595307917888563
1.721407624633431
1.683284457478006
1.6471163245356797
1.6129032258064515
1.5796676441837731
1.547409579667644
1.521016617790811
1.498533724340176
1.474095796676442
1.4496578690127078
1.426197458455523
1.404692082111437
1.3851417399804498
1.3665689149560116
1.3479960899315735
1.3294232649071358
1.3118279569892473
1.2942326490713587
1.281524926686217
1.2717497556207231
1.260019550342131
1.2473118279569892
1.2346041055718475
1.2238514173998043
1.2140762463343109
1.2043010752688172
1.1945259042033236
1.18475073313783
1.173998044965787
1.163245356793744
1.1544477028347997
1.1495601173020529
1.147605083088954
1.1544477028347997
1.166177908113392
1.1700879765395895
1.1710654936461389
1.1691104594330402
1.166177908113392
1.1612903225806452
1.1564027370478984
1.1515151515151516
1.147605083088954
1.1466275659824048
1.1466275659824048
1.1456500488758554
1.1436950146627567
1.1407624633431086
1.1378299120234605
1.1348973607038124
1.130987292277615
1.1280547409579669
1.126099706744868
1.1241446725317692
1.1231671554252198
1.1251221896383188
1.1319648093841643
1.1436950146627567
1.1652003910068427
1.2013685239491692
1.2561094819159335
1.3313782991202343
1.4281524926686218
1.542521994134897
1.6715542521994136
1.8084066471163245
1.9442815249266865
2.0733137829912023
2.175953079178885
2.2580645161290325
2.334310850439883
2.396871945259042
2.444770283479961
2.479960899315738
2.5034213098729228
2.517106549364614
2.52297165200391
2.5239491691104594
2.5210166177908118
2.5141739980449658
2.501466275659824
2.4838709677419355
2.4613880742913
2.4330400782013686
2.396871945259042
2.35386119257087
2.304007820136853
2.2482893450635384
2.189638318670577
2.129032258064516
2.070381231671554
2.0146627565982405
1.964809384164223
1.9257086999022484
1.8944281524926687
1.8670576735092863
1.844574780058651
1.826001955034213
1.8093841642228736
1.793743890518084
1.7790811339198436
1.7624633431085044
1.7448680351906158
1.7253176930596286
1.7038123167155426
1.6842619745845553
1.664711632453568
1.6412512218963833
1.6158357771260996
1.5884652981427174
1.560117302052786
1.530791788856305
1.5024437927663734
1.4750733137829912
1.4486803519061584
1.4242424242424243
1.401759530791789
1.380254154447703
1.3636363636363635
1.3509286412512218
1.3362658846529814
1.321603128054741
1.3069403714565004
1.2942326490713587
1.284457478005865
1.2766373411534702
1.2717497556207231
1.2688172043010753
1.2668621700879763
1.2658846529814272
1.2668621700879763
1.2697947214076246
1.2717497556207231
1.2727272727272727
1.2746823069403714
1.2766373411534702
1.278592375366569
1.2805474095796676
1.2825024437927663
1.2834799608993157
1.284457478005865
1.284457478005865
1.284457478005865
1.2864125122189638
1.289345063538612
1.2913000977517106
1.2932551319648091
1.2942326490713587
1.2961876832844574
1.2981427174975562
1.300097751710655
1.3020527859237536
1.303030303030303
1.3049853372434017
1.305962854349951
1.3069403714565004
1.3098729227761483
1.3118279569892473
1.3128054740957966
1.3128054740957966
1.3128054740957966
1.3147605083088951
1.3186705767350928
1.3294232649071358
1.3509286412512218
1.388074291300098
1.4457478005865103
1.525904203323558
1.6109481915933528
1.704789833822092
1.826001955034213
1.962854349951124
2.104594330400782
2.244379276637341
2.372434017595308
2.484848484848485
2.5777126099706744
2.6510263929618767
2.7067448680351904
2.747800586510264
2.7702834799608995
2.7810361681329425
2.788856304985337
2.792766373411535
2.793743890518084
2.790811339198436
2.7839687194525906
2.773216031280548
2.7565982404692084
2.732160312805474
2.699902248289345
2.6578690127077222
2.6080156402737047
2.555229716520039
2.498533724340176
2.4349951124144678
2.366568914956012
2.2981427174975564
2.232649071358749
2.1739980449657867
2.121212121212121
2.075268817204301
2.0361681329423265
2.003910068426197
1.975562072336266
1.9530791788856303
1.9335288367546437
1.9130009775171064
1.89247311827957
1.871945259042033
1.8494623655913975
1.826001955034213
1.8005865102639296
1.7741935483870968
1.7458455522971652
1.7165200391006843
1.6871945259042034
1.656891495601173
1.6304985337243405
1.606060606060606
1.5786901270772238
1.5513196480938416
1.5239491691104594
1.4975562072336266
1.4721407624633431
1.4486803519061584
1.426197458455523
1.4056695992179864
1.3870967741935485
1.370478983382209
1.3587487781036167
1.348973607038123
1.33822091886608
1.3284457478005864
1.3186705767350928
1.3098729227761483
1.3010752688172045
1.2932551319648091
1.2864125122189638
1.281524926686217
1.2766373411534702
1.2727272727272727
1.2688172043010753
1.267839687194526
1.2668621700879763
1.2639296187683284
1.260019550342131
1.2561094819159335
1.2512218963831867
1.2453567937438903
1.2404692082111437
1.2365591397849462
1.2336265884652982
1.23069403714565
1.2287390029325511
1.2287390029325511
