ppg
1.5796676441837731
1.581622678396872
1.585532746823069
1.590420332355816
1.5962854349951123
1.6011730205278591
1.6041055718475072
1.606060606060606
1.6050830889540566
1.603128054740958
1.5992179863147604
1.5913978494623655
1.581622678396872
1.5698924731182795
1.5562072336265884
1.541544477028348
1.525904203323558
1.5083088954056696
1.4887585532746823
1.469208211143695
1.4496578690127078
1.4301075268817205
1.412512218963832
1.3978494623655917
1.380254154447703
1.3607038123167154
1.3401759530791788
1.3196480938416422
1.2991202346041055
1.278592375366569
1.2590420332355816
1.2404692082111437
1.2238514173998043
1.209188660801564
1.1994134897360704
1.1945259042033236
1.1906158357771262
1.1945259042033236
1.2111436950146628
1.2453567937438903
1.3020527859237536
1.3851417399804498
1.4965786901270772
1.6334310850439884
1.7917888563049853
1.963831867057673
2.1407624633431084
2.2932551319648096
2.4242424242424243
2.557184750733138
2.677419354838709
2.776148582600196
2.850439882697948
2.898338220918866
2.920821114369501
2.919843597262952
2.897360703812317
2.859237536656892
2.806451612903226
2.747800586510264
2.684261974584555
2.6070381231671558
2.5190615835777126
2.421309872922776
2.318670576735093
2.212121212121212
2.1055718475073317
2.0
1.8993157380254155
1.8064516129032255
1.7233626588465298
1.651026392961877
1.5962854349951123
1.5542521994134897
1.5190615835777126
1.4926686217008798
1.466275659824047
1.4418377321603129
1.4301075268817205
1.4252199413489737
1.4242424242424243
1.4252199413489737
1.4281524926686218
1.4320625610948192
1.436950146627566
1.4408602150537635
1.4437927663734116
1.444770283479961
1.4437927663734116
1.4408602150537635
1.435972629521017
1.4271749755620724
1.41544477028348
1.401759530791789
1.3870967741935485
1.3714565004887584
1.3528836754643203
1.3362658846529814
1.321603128054741
1.303030303030303
1.2825024437927663
1.2590420332355816
1.2336265884652982
1.2072336265884651
1.1798631476050832
1.1534701857282503
1.1290322580645162
1.1065493646138806
1.0850439882697946
1.0694037145650048
1.056695992179863
1.043010752688172
1.0312805474095796
1.0224828934506354
1.0205278592375366
1.0283479960899315
1.053763440860215
1.1016617790811338
1.176930596285435
1.2834799608993157
1.4203323558162269
1.5835777126099706
1.7390029325513197
1.8914956011730208
2.064516129032258
2.241446725317693
2.409579667644184
2.560117302052786
2.686217008797654
2.78494623655914
2.8563049853372435
2.8993157380254155
2.917888563049853
2.913978494623656
2.89247311827957
2.857282502443793
2.809384164222874
2.750733137829912
2.6823069403714563
2.6041055718475072
2.515151515151515
2.4173998044965788
2.312805474095797
2.2023460410557183
2.089931573802541
1.9794721407624636
1.8729227761485825
1.7839687194525904
1.7086999022482894
1.6344086021505375
1.56891495601173
1.512218963831867
1.466275659824047
1.4301075268817205
1.4037145650048877
1.3841642228739004
1.3695014662756595
1.359726295210166
1.3548387096774193
1.35386119257087
1.3548387096774193
1.3548387096774193
1.3548387096774193
1.35386119257087
1.3519061583577712
1.3479960899315735
1.3440860215053765
1.3391984359726294
1.3343108504398826
1.3304007820136852
1.3255131964809383
1.321603128054741
1.3176930596285434
1.3098729227761483
1.300097751710655
1.2883675464320623
1.2746823069403714
1.2580645161290325
1.2404692082111437
1.2218963831867058
1.2023460410557183
1.1808406647116323
1.1573802541544478
1.1329423264907137
1.1133919843597262
1.0957966764418376
1.075268817204301
1.0557184750733135
1.0371456500488758
1.018572825024438
1.0009775171065494
0.9843597262952102
0.9726295210166178
0.967741935483871
0.975562072336266
1.002932551319648
1.0439882697947214
1.1065493646138806
1.2023460410557183
1.3313782991202343
1.4887585532746823
1.667644183773216
1.8592375366568916
2.0527859237536656
2.239491691104594
2.410557184750733
2.560117302052786
2.684261974584555
2.780058651026393
2.8406647116324537
2.873900293255132
2.89345063538612
2.895405669599218
2.8807429130009776
2.8514173998044967
2.8084066471163247
2.752688172043011
2.686217008797654
2.6080156402737047
2.520039100684262
2.4222873900293256
2.3304007820136854
2.2385141739980448
2.133919843597263
2.024437927663734
1.9178885630498532
1.8172043010752688
1.7253176930596286
1.6441837732160314
1.576735092864125
1.521016617790811
1.4750733137829912
1.439882697947214
1.4164222873900294
1.4037145650048877
1.3978494623655917
1.393939393939394
1.3919843597262953
1.3919843597262953
1.392961876832845
1.393939393939394
1.3949169110459434
1.3958944281524928
1.3958944281524928
1.3958944281524928
1.3958944281524928
1.396871945259042
1.396871945259042
1.392961876832845
1.3861192570869991
1.3763440860215057
1.3655913978494625
1.3548387096774193
1.3421309872922775
1.327468230694037
1.3118279569892473
1.2932551319648091
1.2717497556207231
1.2482893450635386
1.2297165200391007
1.2111436950146628
1.1886608015640274
1.164222873900293
1.13880742913001
1.115347018572825
1.0928641251221896
1.0703812316715542
1.0498533724340176
1.0312805474095796
1.0156402737047898
1.002932551319648
0.997067448680352
0.9980449657869012
1.0039100684261977
1.021505376344086
1.0557184750733135
1.1124144672531768
1.1964809384164223
1.3118279569892473
1.457478005865103
1.629521016617791
1.822091886608016
2.0234604105571847
2.222873900293255
2.3870967741935485
2.5249266862170088
2.66177908113392
2.782991202346041
2.8797653958944283
2.951124144672532
2.995112414467253
3.01564027370479
3.0146627565982405
2.994134897360704
2.956989247311828
2.9042033235581624
2.8455522971652005
2.7810361681329425
2.702834799608993
2.6148582600195502
2.5190615835777126
2.4173998044965788
2.3118279569892475
2.2052785923753664
2.1006842619745845
2.0
1.9071358748778104
1.823069403714565
1.7517106549364614
1.696969696969697
1.6549364613880744
1.616813294232649
1.587487781036168
1.5669599217986314
1.5542521994134897
1.547409579667644
1.544477028347996
1.544477028347996
1.544477028347996
1.5454545454545454
1.5464320625610948
1.547409579667644
1.5483870967741935
1.5493646138807429
1.5483870967741935
1.5464320625610948
1.543499511241447
1.5395894428152492
1.5347018572825024
1.5278592375366569
1.517106549364614
1.504398826979472
1.4965786901270772
1.4897360703812317
1.4819159335288368
1.4721407624633431
1.457478005865103
1.4428152492668622
1.4271749755620724
1.4115347018572826
1.3958944281524928
1.3812316715542523
1.3665689149560116
1.35386119257087
1.3421309872922775
1.3304007820136852
1.3225806451612905
1.316715542521994
1.3079178885630498
1.2981427174975562
1.2903225806451613
1.284457478005865
1.2834799608993157
1.289345063538612
1.3069403714565004
1.3421309872922775
1.3998044965786902
1.4819159335288368
1.590420332355816
1.7018572825024438
1.823069403714565
1.9726295210166176
2.136852394916911
2.304007820136853
2.464320625610948
2.611925708699902
2.740957966764418
2.8455522971652005
2.924731182795699
2.9765395894428157
3.003910068426197
3.007820136852395
2.995112414467253
2.967741935483871
2.9266862170087977
2.8719452590420333
2.8044965786901277
2.7253176930596283
2.636363636363636
2.5386119257087
2.434017595307918
2.32355816226784
2.2111436950146626
2.1006842619745845
2.004887585532747
1.920821114369501
1.836754643206256
1.7595307917888563
1.6920821114369502
1.6363636363636365
1.5933528836754642
1.560117302052786
1.5366568914956011
1.52297165200391
1.5161290322580645
1.5151515151515151
1.5180840664711632
1.5249266862170088
1.533724340175953
1.542521994134897
1.5503421309872922
1.5562072336265884
1.560117302052786
1.5620723362658846
1.5610948191593352
1.5571847507331378
1.5503421309872922
1.5395894428152492
1.5288367546432062
1.517106549364614
1.5024437927663734
1.4838709677419355
1.4613880742913
1.4379276637341154
1.412512218963832
1.3851417399804498
1.3587487781036167
1.3343108504398826
1.3118279569892473
1.289345063538612
1.2668621700879763
1.249266862170088
1.2346041055718475
1.2179863147605083
1.2003910068426198
1.1827956989247312
1.166177908113392
1.1505376344086022
1.1368523949169111
1.126099706744868
1.1192570869990224
1.118279569892473
1.1280547409579669
1.147605083088954
1.1808406647116323
1.2346041055718475
1.313782991202346
1.4193548387096775
1.552297165200391
1.7057673509286413
1.8729227761485825
2.046920821114369
2.217986314760508
2.3792766373411536
2.5239491691104594
2.64613880742913
2.7331378299120237
2.791788856304985
2.8367546432062563
2.863147605083089
2.8699902248289346
2.8582600195503423
2.8299120234604107
2.7869012707722387
2.730205278592375
2.66177908113392
2.582600195503421
2.493646138807429
2.4086021505376345
2.32355816226784
2.2267839687194524
2.1251221896383186
2.0234604105571847
1.9257086999022484
1.835777126099707
1.7556207233626588
1.6852394916911049
1.6265884652981428
1.5786901270772238
1.541544477028348
1.5151515151515151
1.499511241446725
1.490713587487781
1.4858260019550342
1.4838709677419355
1.4838709677419355
1.4868035190615836
1.4897360703812317
1.4926686217008798
1.495601173020528
1.498533724340176
1.501466275659824
1.501466275659824
1.501466275659824
1.500488758553275
1.4946236559139785
1.4858260019550342
1.4721407624633431
1.455522971652004
1.436950146627566
1.4164222873900294
1.3949169110459434
1.370478983382209
1.3450635386119256
1.3196480938416422
1.2942326490713587
1.273704789833822
1.2561094819159335
1.2355816226783969
1.2130987292277615
1.1906158357771262
1.1691104594330402
1.1485826001955035
1.1290322580645162
1.1124144672531768
1.096774193548387
1.0840664711632453
1.075268817204301
1.0733137829912025
1.078201368523949
1.0909090909090908
1.1173020527859236
1.1622678396871946
1.2336265884652982
1.3333333333333333
1.4623655913978495
1.6158357771260996
1.7888563049853372
1.9716520039100685
2.156402737047898
2.332355816226784
2.474095796676442
2.587487781036168
2.6940371456500487
2.782991202346041
2.8484848484848486
2.889540566959922
2.90811339198436
2.906158357771261
2.8856304985337244
2.850439882697948
2.803519061583578
2.7468230694037143
2.686217008797654
2.6207233626588464
2.541544477028348
2.4516129032258065
2.3548387096774195
2.251221896383187
2.144672531769306
2.0391006842619745
1.9364613880742916
1.839687194525904
1.750733137829912
1.672531769305963
1.607038123167155
1.5581622678396871
1.521016617790811
1.487781036168133
1.4613880742913
1.4418377321603129
1.4281524926686218
1.4203323558162269
1.4164222873900294
1.414467253176931
1.4134897360703813
1.4134897360703813
1.4134897360703813
1.414467253176931
1.4164222873900294
1.4173998044965788
1.4173998044965788
1.41544477028348
1.4115347018572826
1.4056695992179864
1.3978494623655917
1.388074291300098
1.3763440860215057
1.3607038123167154
1.343108504398827
1.324535679374389
1.3088954056695992
1.2932551319648091
1.273704789833822
1.252199413489736
1.2287390029325511
1.2043010752688172
1.1808406647116323
1.1573802541544478
1.133919843597263
1.1124144672531768
1.0918866080156402
1.0733137829912025
1.0606060606060606
1.050830889540567
1.0381231671554252
1.0283479960899315
1.0254154447702837
1.0273704789833822
1.040078201368524
1.0733137829912025
1.1300097751710656
1.2160312805474096
1.332355816226784
1.47702834799609
1.6451612903225807
1.8025415444770283
1.9550342130987293
2.1270772238514173
2.2991202346041058
2.4604105571847508
2.603128054740958
2.7223851417399803
2.81622678396872
2.8856304985337244
2.929618768328446
2.951124144672532
2.9530791788856305
2.9374389051808407
2.909090909090909
2.868035190615836
2.814271749755621
2.748778103616813
2.6725317693059627
2.5865102639296187
2.49266862170088
2.3929618768328447
2.289345063538612
2.1837732160312804
2.0791788856304985
1.989247311827957
1.9100684261974583
1.8299120234604105
1.7556207233626588
1.689149560117302
1.632453567937439
1.585532746823069
1.5483870967741935
1.520039100684262
1.499511241446725
1.4858260019550342
1.478005865102639
1.4750733137829912
1.4750733137829912
1.478983382209189
1.4848484848484849
1.4887585532746823
1.4916911045943304
1.4936461388074291
1.4946236559139785
1.4936461388074291
1.490713587487781
1.487781036168133
1.482893450635386
1.4760508308895406
1.4701857282502444
1.4652981427174976
1.458455522971652
1.4496578690127078
1.4379276637341154
1.4252199413489737
1.4105571847507332
1.3949169110459434
1.3792766373411536
1.3626588465298142
1.3450635386119256
1.3264907135874875
1.3079178885630498
1.29227761485826
1.2795698924731185
1.2658846529814272
1.252199413489736
1.238514173998045
1.2267839687194526
1.2179863147605083
1.2111436950146628
1.2072336265884651
1.2101661779081134
1.2209188660801564
1.2443792766373412
1.278592375366569
1.327468230694037
1.4027370478983383
1.504398826979472
1.6314760508308896
1.780058651026393
1.945259042033236
2.118279569892473
2.291300097751711
2.4565004887585533
2.6050830889540566
2.7331378299120237
2.8367546432062563
2.905180840664712
2.9472140762463344
2.9775171065493646
2.991202346041056
2.9872922776148583
2.967741935483871
2.9345063538611926
2.887585532746823
2.827956989247312
2.758553274682307
2.678396871945259
2.5884652981427174
2.501466275659824
2.4144672531769307
2.315738025415445
2.2130987292277613
2.1114369501466275
2.0146627565982405
1.9266862170087975
1.8494623655913975
1.7839687194525904
1.7311827956989247
1.6901270772238517
1.6578690127077225
1.6344086021505375
1.6187683284457477
1.608993157380254
1.6021505376344083
1.598240469208211
1.5972629521016617
1.5972629521016617
1.5962854349951123
1.5943304007820136
1.5923753665689149
1.5884652981427174
1.581622678396872
1.573802541544477
1.565982404692082
1.5581622678396871
1.5464320625610948
1.5317693059628543
1.5161290322580645
1.498533724340176
1.4809384164222874
1.4633431085043989
1.4457478005865103
1.4281524926686218
1.409579667644184
1.3919843597262953
1.3743890518084063
1.3607038123167154
1.348973607038123
1.335288367546432
1.3206256109481915
1.3049853372434017
1.2873900293255132
1.267839687194526
1.249266862170088
1.2316715542521994
1.2140762463343109
1.198435972629521
1.18475073313783
1.176930596285435
1.173998044965787
1.1759530791788857
1.1896383186705768
1.2189638318670577
1.270772238514174
1.3479960899315735
1.4516129032258065
1.5806451612903225
1.729227761485826
1.8905180840664717
2.056695992179863
2.217986314760508
2.3499511241446727
2.4594330400782014
2.5650048875855327
2.654936461388074
2.724340175953079
2.7722385141739982
2.7966764418377323
2.80058651026393
2.7869012707722387
2.757575757575758
2.7126099706744866
2.654936461388074
2.593352883675464
2.5268817204301075
2.44672531769306
2.356793743890518
2.259042033235582
2.1544477028347995
2.0498533724340176
1.9472140762463344
1.8484848484848484
1.7565982404692082
1.6744868035190617
1.6021505376344083
1.5405669599217986
1.4946236559139785
1.4613880742913
1.4330400782013686
1.412512218963832
1.3978494623655917
1.3890518084066472
1.3851417399804498
1.3841642228739004
1.3861192570869991
1.3890518084066472
1.3900293255131966
1.391006842619746
1.392961876832845
1.393939393939394
1.391006842619746
1.3870967741935485
1.3812316715542523
1.3734115347018572
1.3636363636363635
1.3519061583577712
1.3372434017595307
1.3196480938416422
1.3010752688172045
1.2805474095796676
1.2580645161290325
1.2404692082111437
1.224828934506354
1.2043010752688172
1.1808406647116323
1.1564027370478984
1.130987292277615
1.1055718475073313
1.0811339198435972
1.0586510263929618
1.0381231671554252
1.018572825024438
1.0009775171065494
0.9882697947214076
0.9794721407624634
0.9696969696969696
0.9648093841642228
0.967741935483871
0.9853372434017597
1.0234604105571847
1.086021505376344
1.1759530791788857
1.2942326490713587
1.4379276637341154
1.603128054740958
1.782991202346041
1.9423264907135875
2.0869990224828934
2.242424242424242
2.3900293255131966
2.520039100684262
2.6265884652981426
2.705767350928641
2.758553274682307
2.7869012707722387
2.793743890518084
2.782991202346041
2.7546432062561097
2.716520039100684
2.670576735092864
2.6129032258064515
2.544477028347996
2.4652981427174976
2.377321603128055
2.2825024437927666
2.1818181818181817
2.0791788856304985
1.9765395894428155
1.8778103616813293
1.7859237536656891
1.7096774193548387
1.6451612903225807
1.581622678396872
1.525904203323558
1.479960899315738
1.444770283479961
1.4203323558162269
1.4037145650048877
1.392961876832845
1.3870967741935485
1.3841642228739004
1.383186705767351
1.3841642228739004
1.388074291300098
1.392961876832845
1.3978494623655917
1.4007820136852396
1.4027370478983383
1.4037145650048877
1.4037145650048877
1.4027370478983383
1.4007820136852396
1.396871945259042
1.391006842619746
1.3822091886608017
1.375366568914956
1.367546432062561
1.3558162267839686
1.3421309872922775
1.324535679374389
1.3040078201368523
1.281524926686217
1.2590420332355816
1.2355816226783969
1.2121212121212122
1.1906158357771262
1.1700879765395895
1.1505376344086022
1.1368523949169111
1.1270772238514175
1.115347018572825
1.1026392961876832
1.0928641251221896
1.086021505376344
1.083088954056696
1.0869990224828934
1.1026392961876832
1.1358748778103618
1.1915933528836755
1.2746823069403714
1.3685239491691104
1.47702834799609
1.619745845552297
1.7849462365591398
1.9608993157380252
2.1407624633431084
2.314760508308896
2.4760508308895406
2.6177908113391983
2.735092864125122
2.8269794721407626
2.89247311827957
2.9335288367546437
2.949169110459433
2.9472140762463344
2.932551319648094
2.9042033235581624
2.8641251221896384
2.811339198435973
2.747800586510264
2.6715542521994133
2.5855327468230693
2.4916911045943304
2.391006842619746
2.286412512218964
2.193548387096774
2.10752688172043
2.0146627565982405
1.9227761485826005
1.8377321603128052
1.761485826001955
1.6959921798631477
1.6422287390029326
1.6001955034213098
1.5698924731182795
1.5493646138807429
1.5386119257087
1.5356793743890518
1.5376344086021505
1.543499511241447
1.5513196480938416
1.5591397849462365
1.5679374389051808
1.5747800586510263
1.5806451612903225
1.585532746823069
1.5894428152492668
1.5913978494623655
1.590420332355816
1.5865102639296187
1.581622678396872
1.5757575757575757
1.5679374389051808
1.5571847507331378
1.543499511241447
1.5278592375366569
1.5112414467253177
1.4936461388074291
1.4750733137829912
1.4545454545454546
1.4330400782013686
1.4115347018572826
1.3900293255131966
1.3724340175953078
1.356793743890518
1.3401759530791788
1.3235581622678396
1.3079178885630498
1.2932551319648091
1.2795698924731185
1.267839687194526
1.2590420332355816
1.2531769305962854
1.252199413489736
1.2590420332355816
1.2727272727272727
1.2981427174975562
1.343108504398827
1.412512218963832
1.5083088954056696
1.6304985337243405
1.7761485826001957
1.9374389051808407
2.10752688172043
2.27761485826002
2.4389051808406648
2.58455522971652
2.7096774193548385
2.7976539589442817
2.8582600195503423
2.9071358748778104
2.93841642228739
2.9501466275659824
2.9442815249266863
2.921798631476051
2.8836754643206257
2.83088954056696
2.766373411534702
2.6911045943304006
2.606060606060606
2.52297165200391
2.439882697947214
2.345063538611926
2.244379276637341
2.142717497556207
2.043010752688172
1.949169110459433
1.8631476050830889
1.7888563049853372
1.726295210166178
1.675464320625611
1.6344086021505375
1.6050830889540566
1.585532746823069
1.573802541544477
1.565982404692082
1.5620723362658846
1.5610948191593352
1.5620723362658846
1.5620723362658846
1.5620723362658846
1.5620723362658846
1.5610948191593352
1.5571847507331378
1.5503421309872922
1.543499511241447
1.5356793743890518
1.5249266862170088
1.512218963831867
1.4965786901270772
1.478005865102639
1.457478005865103
1.4349951124144673
1.409579667644184
1.383186705767351
1.356793743890518
1.3304007820136852
1.303030303030303
1.281524926686217
1.2639296187683284
1.2424242424242424
1.2189638318670577
1.1964809384164223
1.173998044965787
1.1515151515151516
1.1300097751710656
1.1094819159335287
1.0909090909090908
1.0733137829912025
1.0576735092864125
1.0488758553274682
1.0469208211143697
1.0527859237536656
1.0713587487781036
1.10752688172043
1.1681329423264908
1.2580645161290325
1.3763440860215057
1.520039100684262
1.683284457478006
1.857282502443793
2.034213098729228
2.1837732160312804
2.3118279569892475
2.441837732160313
2.558162267839687
2.654936461388074
2.7282502443792764
2.7781036168132944
2.8044965786901277
2.8084066471163247
2.793743890518084
2.763440860215054
2.719452590420332
2.6637341153470184
2.6041055718475072
2.5376344086021505
2.4565004887585533
2.364613880742913
2.264907135874878
2.160312805474096
2.0527859237536656
1.946236559139785
1.844574780058651
1.7497556207233629
1.664711632453568
1.5913978494623655
1.5366568914956011
1.4946236559139785
1.457478005865103
1.4281524926686218
1.4066471163245358
1.391006842619746
1.3763440860215057
1.3626588465298142
1.3558162267839686
1.35386119257087
1.35386119257087
1.3548387096774193
1.3558162267839686
1.356793743890518
1.356793743890518
1.35386119257087
1.3499511241446724
1.343108504398827
1.3343108504398826
1.3235581622678396
1.3098729227761483
1.2942326490713587
1.2756598240469208
1.2541544477028348
1.2316715542521994
1.2121212121212122
1.1935483870967742
1.1710654936461389
1.1466275659824048
1.1202346041055715
1.093841642228739
1.0664711632453567
1.0391006842619743
1.0117302052785924
0.9863147605083088
0.9628543499511242
0.9413489736070382
0.9217986314760508
0.9100684261974584
0.9032258064516128
0.895405669599218
0.8944281524926686
0.9032258064516128
0.9257086999022482
0.9696969696969696
1.0391006842619743
1.13880742913001
1.267839687194526
1.423264907135875
1.5992179863147604
1.761485826001955
1.9159335288367547
2.086021505376344
2.254154447702835
2.409579667644184
2.544477028347996
2.654936461388074
2.73802541544477
2.7947214076246336
2.8260019550342133
2.835777126099707
2.8260019550342133
2.7996089931573804
2.7614858260019552
2.7145650048875853
2.653958944281525
2.579667644183773
2.4946236559139785
2.398826979472141
2.2952101661779083
2.1867057673509285
2.074291300097752
1.9618768328445748
1.8523949169110456
1.7497556207233629
1.6666666666666667
1.598240469208211
1.5327468230694037
1.474095796676442
1.4252199413489737
1.3861192570869991
1.356793743890518
1.3372434017595307
1.324535679374389
1.3186705767350928
1.316715542521994
1.3186705767350928
1.321603128054741
1.3264907135874875
1.3313782991202343
1.3362658846529814
1.3401759530791788
1.3440860215053765
1.348973607038123
1.3528836754643203
1.3548387096774193
1.3558162267839686
1.3558162267839686
1.35386119257087
1.3479960899315735
1.3421309872922775
1.3362658846529814
1.3255131964809383
1.313782991202346
1.2991202346041055
1.281524926686217
1.262952101661779
1.2434017595307918
1.2218963831867058
1.2003910068426198
1.1779081133919844
1.1564027370478984
1.1368523949169111
1.1231671554252198
1.1133919843597262
1.1016617790811338
1.0899315738025417
1.0791788856304985
1.0713587487781036
1.0684261974584557
1.0733137829912025
1.0909090909090908
1.1270772238514175
1.187683284457478
1.2766373411534702
1.3734115347018572
1.4838709677419355
1.6304985337243405
1.801564027370479
1.9872922776148585
2.175953079178885
2.357771260997068
2.5249266862170088
2.670576735092864
2.791788856304985
2.884652981427175
2.949169110459433
2.988269794721408
3.0019550342130987
2.9960899315738025
2.9775171065493646
2.945259042033236
2.9012707722385143
2.844574780058651
2.776148582600196
2.6959921798631474
2.6041055718475072
2.504398826979472
2.39980449657869
2.291300097751711
2.1945259042033234
2.104594330400782
2.0097751710654936
1.916911045943304
1.8318670576735088
1.7575757575757576
