ppg
2.118279569892473
2.281524926686217
2.4115347018572826
2.517106549364614
2.616813294232649
2.705767350928641
2.7810361681329425
2.843597262952102
2.8963831867057674
2.9423264907135875
2.9804496578690127
3.0117302052785924
3.0332355816226784
3.043010752688172
3.040078201368524
3.01564027370479
2.9853372434017595
2.956011730205278
2.9100684261974585
2.849462365591398
2.777126099706745
2.6959921798631474
2.6099706744868034
2.52297165200391
2.4379276637341154
2.3597262952101663
2.290322580645161
2.2375366568914954
2.1974584555229715
2.1622678396871944
2.133919843597263
2.10850439882698
2.0840664711632453
2.0684261974584555
2.0547409579667644
2.0361681329423265
2.0127077223851417
1.9843597262952104
1.951124144672532
1.919843597262952
1.89247311827957
1.8602150537634408
1.827956989247312
1.7976539589442817
1.76930596285435
1.7429130009775171
1.7194525904203324
1.6930596285434996
1.6695992179863148
1.6520039100684265
1.6304985337243405
1.6041055718475072
1.581622678396872
1.563049853372434
1.5395894428152492
1.512218963831867
1.482893450635386
1.4516129032258065
1.4222873900293256
1.396871945259042
1.3734115347018572
1.3519061583577712
1.3304007820136852
1.310850439882698
1.2971652003910068
1.2864125122189638
1.273704789833822
1.260019550342131
1.2453567937438903
1.2287390029325511
1.2082111436950147
1.1857282502443791
1.1612903225806452
1.1358748778103618
1.1114369501466277
1.0909090909090908
1.0742913000977516
1.067448680351906
1.0742913000977516
1.0948191593352885
1.1173020527859236
1.1485826001955035
1.2502443792766371
1.3655913978494625
1.4652981427174976
1.6041055718475072
1.8113391984359728
2.006842619745845
2.1436950146627565
2.267839687194526
2.375366568914956
2.482893450635386
2.579667644183773
2.66177908113392
2.7390029325513194
2.8044965786901277
2.8484848484848486
2.875855327468231
2.8963831867057674
2.913000977517106
2.917888563049853
2.917888563049853
2.902248289345064
2.8690127077223853
2.8426197458455524
2.793743890518084
2.7126099706744866
2.6285434995112413
2.5650048875855327
2.487781036168133
2.3841642228739004
2.2981427174975564
2.225806451612903
2.1681329423264906
2.124144672531769
2.0869990224828934
2.056695992179863
2.0332355816226784
2.016617790811339
2.002932551319648
1.991202346041056
1.9775171065493649
1.959921798631476
1.9403714565004888
1.9178885630498532
1.8934506353861196
1.870967741935484
1.8465298142717497
1.8191593352883677
1.7917888563049853
1.7634408602150538
1.7380254154447703
1.7145650048875856
1.6911045943304008
1.667644183773216
1.643206256109482
1.6158357771260996
1.587487781036168
1.565982404692082
1.5464320625610948
1.521016617790811
1.4926686217008798
1.4613880742913
1.4320625610948192
1.4066471163245358
1.3841642228739004
1.3626588465298142
1.3411534701857282
1.3206256109481915
1.2991202346041055
1.2795698924731185
1.2668621700879763
1.2561094819159335
1.2434017595307918
1.2287390029325511
1.2140762463343109
1.1974584555229717
1.1779081133919844
1.1564027370478984
1.1348973607038124
1.115347018572825
1.0987292277614855
1.086021505376344
1.0801564027370478
1.0811339198435972
1.0869990224828934
1.1055718475073313
1.144672531769306
1.209188660801564
1.3020527859237536
1.3998044965786902
1.5083088954056696
1.6471163245356797
1.7996089931573802
1.9550342130987293
2.104594330400782
2.2238514173998043
2.318670576735093
2.4086021505376345
2.486803519061584
2.549364613880743
2.5972629521016617
2.635386119257087
2.665689149560117
2.689149560117302
2.7067448680351904
2.719452590420332
2.724340175953079
2.718475073313783
2.701857282502444
2.674486803519061
2.636363636363636
2.5835777126099706
2.5190615835777126
2.4457478005865103
2.3655913978494625
2.283479960899316
2.203323558162268
2.129032258064516
2.0635386119257086
2.0087976539589443
1.9667644183773216
1.9364613880742916
1.9149560117302051
1.8993157380254155
1.8875855327468232
1.878787878787879
1.869012707722385
1.857282502443793
1.8416422287390029
1.8240469208211143
1.801564027370479
1.7781036168132942
1.758553274682307
1.739980449657869
1.7194525904203324
1.6959921798631477
1.6715542521994136
1.6471163245356797
1.624633431085044
1.603128054740958
1.581622678396872
1.560117302052786
1.5376344086021505
1.5151515151515151
1.4916911045943304
1.4731182795698925
1.456500488758553
1.436950146627566
1.41544477028348
1.391006842619746
1.3665689149560116
1.343108504398827
1.3225806451612905
1.303030303030303
1.2854349951124144
1.2727272727272727
1.2619745845552297
1.2570869990224829
1.2531769305962854
1.24633431085044
1.238514173998045
1.2297165200391007
1.2209188660801564
1.2111436950146628
1.2003910068426198
1.1886608015640274
1.176930596285435
1.166177908113392
1.1573802541544478
1.1544477028347997
1.1573802541544478
1.166177908113392
1.1867057673509287
1.227761485826002
1.2942326490713587
1.3900293255131966
1.5141739980449658
1.6598240469208212
1.8211143695014664
1.9872922776148585
2.147605083088954
2.2952101661779083
2.409579667644184
2.4995112414467253
2.587487781036168
2.6666666666666665
2.732160312805474
2.7859237536656893
2.831867057673509
2.8699902248289346
2.900293255131965
2.9237536656891496
2.941348973607038
2.951124144672532
2.948191593352884
2.9345063538611926
2.913978494623656
2.8807429130009776
2.833822091886608
2.777126099706745
2.7096774193548385
2.636363636363636
2.558162267839687
2.4789833822091887
2.404692082111437
2.337243401759531
2.280547409579668
2.236559139784946
2.204301075268817
2.177908113391984
2.156402737047898
2.139784946236559
2.1270772238514173
2.114369501466276
2.099706744868035
2.083088954056696
2.065493646138808
2.04594330400782
2.024437927663734
2.003910068426197
1.9843597262952104
1.962854349951124
1.9403714565004888
1.9188660801564028
1.8983382209188664
1.878787878787879
1.8602150537634408
1.8406647116324533
1.8211143695014664
1.7976539589442817
1.7732160312805474
1.7497556207233629
1.7302052785923754
1.7126099706744868
1.689149560117302
1.6608015640273706
1.6314760508308896
1.603128054740958
1.5747800586510263
1.5464320625610948
1.5180840664711632
1.4916911045943304
1.4701857282502444
1.452590420332356
1.4408602150537635
1.43108504398827
1.4193548387096775
1.4066471163245358
1.3919843597262953
1.3734115347018572
1.3528836754643203
1.3313782991202343
1.310850439882698
1.2873900293255132
1.2609970674486803
1.2365591397849462
1.2150537634408602
1.2003910068426198
1.1935483870967742
1.1945259042033236
1.2130987292277615
1.2512218963831867
1.3147605083088951
1.4076246334310851
1.525904203323558
1.6637341153470186
1.8142717497556209
1.9696969696969695
2.120234604105572
2.242424242424242
2.3421309872922778
2.441837732160313
2.5317693059628543
2.606060606060606
2.6666666666666665
2.7155425219941347
2.7546432062561097
2.7859237536656893
2.811339198435973
2.83088954056696
2.843597262952102
2.84652981427175
2.8367546432062563
2.81622678396872
2.78494623655914
2.7419354838709675
2.687194525904203
2.622678396871945
2.549364613880743
2.4701857282502444
2.389051808406647
2.3098729227761488
2.2355816226783967
2.167155425219941
2.113391984359726
2.072336265884653
2.0361681329423265
2.006842619745845
1.9833822091886608
1.964809384164223
1.949169110459433
1.9335288367546437
1.9188660801564028
1.903225806451613
1.8856304985337244
1.865102639296188
1.8416422287390029
1.8191593352883677
1.796676441837732
1.7732160312805474
1.7487781036168133
1.7223851417399805
1.6950146627565983
1.667644183773216
1.6412512218963833
1.6158357771260996
1.590420332355816
1.563049853372434
1.5356793743890518
1.512218963831867
1.4926686217008798
1.4711632453567938
1.4486803519061584
1.423264907135875
1.393939393939394
1.3636363636363635
1.335288367546432
1.3079178885630498
1.2834799608993157
1.2619745845552297
1.2434017595307918
1.227761485826002
1.2189638318670577
1.2130987292277615
1.2043010752688172
1.1925708699902249
1.1798631476050832
1.1671554252199414
1.152492668621701
1.1348973607038124
1.1173020527859236
1.099706744868035
1.0840664711632453
1.0694037145650048
1.0596285434995112
1.043010752688172
1.024437927663734
1.024437927663734
1.0469208211143697
1.0948191593352885
1.1710654936461389
1.2766373411534702
1.4076246334310851
1.5581622678396871
1.7174975562072337
1.87683284457478
2.0283479960899315
2.150537634408602
2.2502443792766376
2.347018572825025
2.432062561094819
2.504398826979472
2.565982404692082
2.6177908113391983
2.659824046920821
2.6930596285435
2.718475073313783
2.736070381231672
2.744868035190616
2.7419354838709675
2.727272727272727
2.702834799608993
2.665689149560117
2.6148582600195502
2.552297165200391
2.479960899315738
2.39980449657869
2.3167155425219943
2.2346041055718477
2.156402737047898
2.085043988269794
2.0234604105571847
1.9775171065493649
1.9423264907135875
1.9120234604105573
1.889540566959922
1.873900293255132
1.86119257086999
1.8494623655913975
1.836754643206256
1.8201368523949168
1.8005865102639296
1.7781036168132942
1.750733137829912
1.7243401759530792
1.6989247311827955
1.6695992179863148
1.6373411534701858
1.606060606060606
1.5757575757575757
1.5483870967741935
1.5249266862170088
1.501466275659824
1.47702834799609
1.452590420332356
1.4281524926686218
1.4086021505376345
1.3919843597262953
1.3714565004887584
1.3479960899315735
1.321603128054741
1.2961876832844574
1.270772238514174
1.2453567937438903
1.2228739002932552
1.2023460410557183
1.181818181818182
1.1622678396871946
1.1436950146627567
1.1319648093841643
1.1231671554252198
1.1133919843597262
1.1016617790811338
1.088954056695992
1.0742913000977516
1.056695992179863
1.0381231671554252
1.0195503421309873
1.0009775171065494
0.9853372434017597
0.9726295210166178
0.9667644183773216
0.9657869012707724
0.9687194525904204
0.9833822091886608
1.0146627565982405
1.0684261974584557
1.1485826001955035
1.2570869990224829
1.392961876832845
1.5503421309872922
1.7174975562072337
1.884652981427175
2.043010752688172
2.16911045943304
2.269794721407625
2.3655913978494625
2.447702834799609
2.517106549364614
2.5747800586510263
2.6236559139784945
2.664711632453568
2.699902248289345
2.730205278592375
2.752688172043011
2.7653958944281527
2.7653958944281527
2.7546432062561097
2.7311827956989245
2.696969696969697
2.650048875855328
2.589442815249267
2.5180840664711632
2.4379276637341154
2.3548387096774195
2.272727272727273
2.193548387096774
2.1221896383186705
2.0625610948191597
2.016617790811339
1.9794721407624636
1.946236559139785
1.919843597262952
1.9012707722385145
1.8866080156402736
1.8729227761485825
1.858260019550342
1.8406647116324533
1.8211143695014664
1.7976539589442817
1.772238514173998
1.7517106549364614
1.732160312805474
1.710654936461388
1.6871945259042034
1.6637341153470186
1.6392961876832846
1.6148582600195502
1.5894428152492668
1.563049853372434
1.5366568914956011
1.5083088954056696
1.479960899315738
1.4516129032258065
1.4301075268817205
1.409579667644184
1.3851417399804498
1.3607038123167154
1.3333333333333333
1.3069403714565004
1.2834799608993157
1.2619745845552297
1.241446725317693
1.2238514173998043
1.2101661779081134
1.198435972629521
1.1906158357771262
1.1857282502443791
1.1759530791788857
1.1612903225806452
1.144672531769306
1.1251221896383188
1.1026392961876832
1.0791788856304985
1.0557184750733135
1.0312805474095796
1.0097751710654936
0.9921798631476052
0.981427174975562
0.9794721407624634
0.9872922776148584
1.0068426197458455
1.04594330400782
1.1114369501466277
1.2052785923753666
1.327468230694037
1.4731182795698925
1.6363636363636365
1.8074291300097751
1.9745845552297163
2.1309872922776147
2.254154447702835
2.3528836754643208
2.44672531769306
2.529814271749756
2.601173020527859
2.659824046920821
2.7096774193548385
2.7536656891495603
2.791788856304985
2.8240469208211145
2.8514173998044967
2.870967741935484
2.8807429130009776
2.877810361681329
2.863147605083089
2.8377321603128056
2.80058651026393
2.750733137829912
2.689149560117302
2.6177908113391983
2.541544477028348
2.464320625610948
2.389051808406647
2.3196480938416424
2.259042033235582
2.2111436950146626
2.1739980449657867
2.1407624633431084
2.112414467253177
2.088954056695992
2.071358748778104
2.056695992179863
2.043010752688172
2.0303030303030303
2.016617790811339
2.0009775171065494
1.981427174975562
1.9589442815249267
1.935483870967742
1.911045943304008
1.8856304985337244
1.8592375366568916
1.833822091886608
1.8113391984359728
1.7878787878787878
1.7653958944281525
1.7438905180840665
1.721407624633431
1.6979472140762464
1.6715542521994136
1.64613880742913
1.6236559139784943
1.6001955034213098
1.5747800586510263
1.5503421309872922
1.5249266862170088
1.500488758553275
1.478005865102639
1.458455522971652
1.4408602150537635
1.4252199413489737
1.412512218963832
1.4037145650048877
1.3988269794721409
1.393939393939394
1.3841642228739004
1.3724340175953078
1.3587487781036167
1.3450635386119256
1.3304007820136852
1.3304007820136852
1.3372434017595307
1.3362658846529814
1.3304007820136852
1.3255131964809383
1.3255131964809383
1.3304007820136852
1.3401759530791788
1.3626588465298142
1.4086021505376345
1.4809384164222874
1.581622678396872
1.7096774193548387
1.86119257086999
2.027370478983382
2.1955034213098727
2.356793743890518
2.504398826979472
2.618768328445748
2.70772238514174
2.790811339198436
2.863147605083089
2.921798631476051
2.970674486803519
3.010752688172043
3.0449657869012707
3.0733137829912023
3.096774193548387
3.110459433040078
3.112414467253177
3.1006842619745845
3.0762463343108504
3.0391006842619745
2.9872922776148583
2.9227761485826003
2.849462365591398
2.76930596285435
2.6852394916911044
2.598240469208211
2.5141739980449658
2.4349951124144678
2.360703812316716
2.3010752688172045
2.2521994134897363
2.206256109481916
2.166177908113392
2.136852394916911
2.114369501466276
2.0948191593352883
2.078201368523949
2.059628543499511
2.037145650048876
2.013685239491691
1.988269794721408
1.9589442815249267
1.9296187683284456
1.9012707722385145
1.8699902248289344
1.8387096774193548
1.8113391984359728
1.7849462365591398
1.758553274682307
1.7331378299120237
1.70772238514174
1.6823069403714566
1.656891495601173
1.629521016617791
1.606060606060606
1.58455522971652
1.5581622678396871
1.5298142717497556
1.5024437927663734
1.4731182795698925
1.4428152492668622
1.41544477028348
1.3890518084066472
1.364613880742913
1.3421309872922775
1.3235581622678396
1.3088954056695992
1.300097751710655
1.29227761485826
1.2776148582600195
1.260019550342131
1.2404692082111437
1.2179863147605083
1.1945259042033236
1.1700879765395895
1.147605083088954
1.1280547409579669
1.1114369501466277
1.0948191593352885
1.0840664711632453
1.0772238514173995
1.0742913000977516
1.0801564027370478
1.1006842619745845
1.1436950146627567
1.2140762463343109
1.313782991202346
1.4418377321603129
1.5923753665689149
1.7556207233626588
1.9237536656891496
2.0869990224828934
2.2218963831867056
2.334310850439883
2.441837732160313
2.536656891495601
2.616813294232649
2.6832844574780057
2.7370478983382207
2.780058651026393
2.81622678396872
2.8455522971652005
2.868035190615836
2.881720430107527
2.8826979472140764
2.874877810361681
2.8582600195503423
2.8299120234604107
2.788856304985337
2.7331378299120237
2.662756598240469
2.582600195503421
2.496578690127077
2.410557184750733
2.3274682306940373
2.2482893450635384
2.1788856304985336
2.1251221896383186
2.083088954056696
2.0449657869012707
2.0127077223851417
1.9872922776148585
1.9696969696969695
1.9560117302052784
1.9413489736070384
1.9237536656891496
1.902248289345064
1.87683284457478
1.8494623655913975
1.827956989247312
1.8084066471163245
1.7859237536656891
1.761485826001955
1.737047898338221
1.7096774193548387
1.6803519061583578
1.6529814271749756
1.6256109481915937
1.5962854349951123
1.5669599217986314
1.5386119257087
1.5102639296187683
1.4858260019550342
1.4623655913978495
1.4330400782013686
1.4007820136852396
1.3695014662756595
1.3421309872922775
1.3176930596285434
1.2961876832844574
1.2766373411534702
1.2590420332355816
1.2424242424242424
1.227761485826002
1.2179863147605083
1.2101661779081134
1.2003910068426198
1.187683284457478
1.173998044965787
1.1583577712609971
1.1397849462365592
1.1202346041055715
1.1006842619745845
1.0811339198435972
1.0606060606060606
1.0420332355816226
1.0263929618768328
1.0195503421309873
1.021505376344086
1.0312805474095796
1.0576735092864125
1.10752688172043
1.187683284457478
1.300097751710655
1.4379276637341154
1.5923753665689149
1.758553274682307
1.9266862170087975
2.086021505376344
2.21505376344086
2.320625610948192
2.421309872922776
2.5112414467253177
2.5865102639296187
2.6480938416422286
2.6989247311827955
2.740957966764418
2.777126099706745
2.809384164222874
2.835777126099707
2.8533724340175954
2.860215053763441
2.852394916911046
2.831867057673509
2.7996089931573804
2.7536656891495603
2.6940371456500487
2.6236559139784945
2.5454545454545454
2.4604105571847508
2.3734115347018574
2.289345063538612
2.210166177908113
2.1417399804496577
2.088954056695992
2.046920821114369
2.0117302052785924
1.9872922776148585
1.9696969696969695
1.9560117302052784
1.9442815249266865
1.9315738025415443
1.9159335288367547
1.8973607038123168
1.873900293255132
1.8484848484848484
1.822091886608016
1.7976539589442817
1.775171065493646
1.7497556207233629
1.7223851417399805
1.6950146627565983
1.6686217008797657
1.6422287390029326
1.6148582600195502
1.5865102639296187
1.5571847507331378
1.5288367546432062
1.501466275659824
1.479960899315738
1.4623655913978495
1.4408602150537635
1.4173998044965788
1.392961876832845
1.3685239491691104
1.346041055718475
1.3255131964809383
1.305962854349951
1.2883675464320623
1.2727272727272727
1.2570869990224829
1.2453567937438903
1.2365591397849462
1.2209188660801564
1.1994134897360704
1.1798631476050832
1.163245356793744
1.147605083088954
1.130987292277615
1.1133919843597262
1.0948191593352885
1.0772238514173995
1.06158357771261
1.0469208211143697
1.0381231671554252
1.0381231671554252
1.0478983382209188
1.0733137829912025
1.1202346041055715
1.1925708699902249
1.29227761485826
1.418377321603128
1.5650048875855327
1.7233626588465298
1.8826979472140764
2.0332355816226784
2.155425219941349
2.2551319648093844
2.3499511241446727
2.434017595307918
2.506353861192571
2.5669599217986314
2.616813294232649
2.659824046920821
2.696969696969697
2.7282502443792764
2.7536656891495603
2.771260997067449
2.779081133919844
2.774193548387097
2.757575757575758
2.730205278592375
2.6911045943304006
2.6392961876832843
2.576735092864125
2.505376344086021
2.4271749755620724
2.3499511241446727
2.2766373411534704
2.209188660801564
2.150537634408602
2.1055718475073317
2.071358748778104
2.0410557184750733
2.01564027370479
1.9960899315738023
1.981427174975562
1.970674486803519
1.9589442815249267
1.946236559139785
1.932551319648094
1.9178885630498532
1.900293255131965
1.8797653958944285
1.8592375366568916
1.8377321603128052
1.812316715542522
1.7869012707722385
1.7624633431085044
1.739980449657869
1.7174975562072337
1.6950146627565983
1.672531769305963
1.6520039100684265
1.6334310850439884
1.6158357771260996
1.6011730205278591
1.587487781036168
1.5708699902248289
1.5532746823069403
1.5327468230694037
1.509286412512219
1.487781036168133
1.4701857282502444
1.4535679374389052
1.4389051808406648
1.4252199413489737
1.414467253176931
1.404692082111437
1.396871945259042
1.391006842619746
1.3812316715542523
1.3685239491691104
1.3548387096774193
1.3411534701857282
1.3284457478005864
1.3176930596285434
1.3098729227761483
1.303030303030303
1.295210166177908
1.289345063538612
1.2883675464320623
1.2942326490713587
1.3069403714565004
1.335288367546432
1.388074291300098
1.469208211143695
1.5786901270772238
1.7145650048875856
1.869012707722385
2.034213098729228
2.198435972629521
2.35386119257087
2.49266862170088
2.598240469208211
2.678396871945259
2.7536656891495603
2.8211143695014664
2.877810361681329
2.9257086999022484
2.967741935483871
3.003910068426197
3.035190615835777
3.060606060606061
3.0762463343108504
3.081133919843597
3.072336265884653
3.0527859237536656
3.021505376344086
2.978494623655914
2.9227761485826003
2.855327468230694
2.780058651026393
2.699902248289345
2.618768328445748
2.5405669599217986
2.466275659824047
2.401759530791789
2.347018572825025
2.303030303030303
2.2668621700879767
2.2355816226783967
2.210166177908113
2.187683284457478
2.167155425219941
2.147605083088954
2.1270772238514173
2.103616813294233
2.0772238514174
2.048875855327468
2.01564027370479
1.981427174975562
1.949169110459433
1.913978494623656
1.87683284457478
1.8416422287390029
1.8093841642228736
1.7771260997067448
1.7487781036168133
1.7204301075268815
1.6911045943304008
1.6627565982404693
1.632453567937439
1.603128054740958
1.5786901270772238
1.5571847507331378
1.5317693059628543
1.5053763440860215
1.47702834799609
1.4486803519061584
1.4213098729227762
1.3958944281524928
1.3714565004887584
1.3479960899315735
1.3284457478005864
1.3128054740957966
1.3040078201368523
1.2981427174975562
1.289345063538612
1.2776148582600195
1.262952101661779
1.24633431085044
1.2287390029325511
1.2101661779081134
1.1925708699902249
1.176930596285435
1.1612903225806452
1.1466275659824048
1.1329423264907137
1.126099706744868
1.1280547409579669
1.13880742913001
1.163245356793744
1.2072336265884651
1.2776148582600195
1.3743890518084063
1.495601173020528
1.6363636363636365
1.7898338220918866
1.949169110459433
2.104594330400782
2.231671554252199
2.3362658846529816
2.436950146627566
2.525904203323558
2.60019550342131
2.659824046920821
2.708699902248289
2.748778103616813
2.7810361681329425
2.807429130009776
2.8289345063538613
2.843597262952102
2.8484848484848486
2.841642228739003
2.822091886608016
2.790811339198436
2.744868035190616
2.6832844574780057
2.610948191593353
2.5317693059628543
2.447702834799609
2.3626588465298144
2.281524926686217
2.2082111436950145
2.1436950146627565
2.093841642228739
2.0527859237536656
2.0175953079178885
1.9872922776148585
1.9608993157380252
1.9374389051808407
1.919843597262952
1.9042033235581624
1.8866080156402736
1.868035190615836
1.8494623655913975
1.827956989247312
1.8064516129032255
1.7839687194525904
1.7565982404692082
1.7272727272727273
1.6979472140762464
1.6695992179863148
1.6422287390029326
1.6177908113391983
1.5943304007820136
1.5708699902248289
1.547409579667644
1.5239491691104594
1.499511241446725
1.4809384164222874
1.4643206256109482
1.4437927663734116
1.4213098729227762
1.396871945259042
1.370478983382209
1.3440860215053765
1.3206256109481915
1.2913000977517106
1.2590420332355816
1.2346041055718475
1.2160312805474096
1.2043010752688172
1.1945259042033236
1.1808406647116323
1.164222873900293
1.1485826001955035
1.130987292277615
1.1114369501466277
1.0918866080156402
1.072336265884653
1.0557184750733135
1.0410557184750733
1.0263929618768328
1.013685239491691
1.0068426197458455
1.0058651026392962
1.0097751710654936
1.029325513196481
1.0703812316715542
1.1368523949169111
1.2326490713587488
1.3558162267839686
1.4975562072336266
1.6500488758553276
1.804496578690127
1.9521016617790807
2.071358748778104
2.16911045943304
2.2639296187683287
2.347996089931574
2.419354838709677
2.4789833822091887
2.5288367546432062
2.56891495601173
2.6021505376344085
2.63049853372434
2.6529814271749754
2.667644183773216
2.6715542521994133
2.664711632453568
2.6471163245356792
2.618768328445748
2.5777126099706744
2.5239491691104594
2.458455522971652
2.3870967741935485
2.310850439882698
2.232649071358749
2.157380254154448
2.086021505376344
2.022482893450636
1.9726295210166176
1.932551319648094
