ppg
1.2404692082111437
1.217008797653959
1.209188660801564
1.2160312805474096
1.238514173998045
1.2727272727272727
1.3128054740957966
1.35386119257087
1.3890518084066472
1.4203323558162269
1.4467253176930597
1.466275659824047
1.478005865102639
1.479960899315738
1.4731182795698925
1.4623655913978495
1.4457478005865103
1.4222873900293256
1.3949169110459434
1.3665689149560116
1.3450635386119256
1.3284457478005864
1.3098729227761483
1.2971652003910068
1.2961876832844574
1.3147605083088951
1.3636363636363635
1.4496578690127078
1.5718475073313782
1.7272727272727273
1.903225806451613
2.0840664711632453
2.254154447702835
2.389051808406647
2.4916911045943304
2.581622678396872
2.6471163245356792
2.686217008797654
2.697947214076246
2.684261974584555
2.6529814271749754
2.6070381231671558
2.552297165200391
2.4946236559139785
2.4330400782013686
2.375366568914956
2.3225806451612905
2.2639296187683287
2.20039100684262
2.134897360703812
2.069403714565005
2.006842619745845
1.9413489736070384
1.871945259042033
1.8035190615835777
1.7331378299120237
1.6627565982404693
1.595307917888563
1.5405669599217986
1.4926686217008798
1.439882697947214
1.391006842619746
1.3509286412512218
1.321603128054741
1.303030303030303
1.2971652003910068
1.3040078201368523
1.3206256109481915
1.3479960899315735
1.3841642228739004
1.4213098729227762
1.457478005865103
1.4926686217008798
1.52297165200391
1.5464320625610948
1.5610948191593352
1.56891495601173
1.56891495601173
1.5650048875855327
1.5591397849462365
1.5503421309872922
1.5386119257087
1.521016617790811
1.5034213098729228
1.4809384164222874
1.4506353861192571
1.4222873900293256
1.4027370478983383
1.404692082111437
1.4389051808406648
1.5151515151515151
1.632453567937439
1.7859237536656891
1.9687194525904204
2.166177908113392
2.335288367546432
2.47702834799609
2.611925708699902
2.7233626588465296
2.801564027370479
2.84652981427175
2.863147605083089
2.854349951124145
2.823069403714565
2.779081133919844
2.727272727272727
2.6666666666666665
2.603128054740958
2.544477028347996
2.490713587487781
2.4330400782013686
2.3743890518084068
2.315738025415445
2.260019550342131
2.204301075268817
2.1436950146627565
2.0791788856304985
2.010752688172043
1.9393939393939397
1.866080156402737
1.8025415444770283
1.7448680351906158
1.6793743890518085
1.6148582600195502
1.5542521994134897
1.498533724340176
1.4506353861192571
1.4115347018572826
1.3841642228739004
1.3724340175953078
1.3792766373411536
1.4037145650048877
1.4349951124144673
1.4731182795698925
1.517106549364614
1.5581622678396871
1.595307917888563
1.6256109481915937
1.64613880742913
1.656891495601173
1.6588465298142718
1.6559139784946235
1.64613880742913
1.6304985337243405
1.6109481915933528
1.5933528836754642
1.5796676441837731
1.5650048875855327
1.5503421309872922
1.530791788856305
1.5083088954056696
1.4897360703812317
1.4838709677419355
1.5034213098729228
1.5591397849462365
1.6529814271749756
1.7849462365591398
1.9227761485826005
2.067448680351906
2.236559139784946
2.4086021505376345
2.5650048875855327
2.69208211143695
2.7859237536656893
2.844574780058651
2.8719452590420333
2.8719452590420333
2.849462365591398
2.809384164222874
2.757575757575758
2.702834799608993
2.6471163245356792
2.587487781036168
2.5268817204301075
2.462365591397849
2.3919843597262958
2.324535679374389
2.260997067448681
2.1955034213098727
2.1280547409579667
2.060606060606061
1.9902248289345064
1.9266862170087975
1.869012707722385
1.8064516129032255
1.7409579667644184
1.6735092864125125
1.6080156402737047
1.544477028347996
1.4868035190615836
1.436950146627566
1.396871945259042
1.3695014662756595
1.3558162267839686
1.359726295210166
1.3792766373411536
1.409579667644184
1.4535679374389052
1.5034213098729228
1.5532746823069403
1.5992179863147604
1.6373411534701858
1.6637341153470186
1.6793743890518085
1.6852394916911049
1.6803519061583578
1.6666666666666667
1.6520039100684265
1.6373411534701858
1.6177908113391983
1.595307917888563
1.5708699902248289
1.5454545454545454
1.517106549364614
1.4897360703812317
1.4682306940371457
1.4594330400782014
1.474095796676442
1.521016617790811
1.607038123167155
1.710654936461388
1.8347996089931573
1.997067448680352
2.1788856304985336
2.360703812316716
2.5239491691104594
2.6559139784946235
2.7546432062561097
2.809384164222874
2.8289345063538613
2.8269794721407626
2.803519061583578
2.766373411534702
2.720430107526881
2.664711632453568
2.6021505376344085
2.5376344086021505
2.474095796676442
2.409579667644184
2.3421309872922778
2.27761485826002
2.2140762463343107
2.147605083088954
2.080156402737048
2.0127077223851417
1.95405669599218
1.895405669599218
1.8299120234604105
1.7624633431085044
1.694037145650049
1.624633431085044
1.5571847507331378
1.4926686217008798
1.4330400782013686
1.380254154447703
1.332355816226784
1.2971652003910068
1.2795698924731185
1.2746823069403714
1.281524926686217
1.3040078201368523
1.3421309872922775
1.392961876832845
1.444770283479961
1.4926686217008798
1.533724340175953
1.5679374389051808
1.5933528836754642
1.606060606060606
1.6080156402737047
1.607038123167155
1.6011730205278591
1.5865102639296187
1.5650048875855327
1.5386119257087
1.5102639296187683
1.4809384164222874
1.4506353861192571
1.4203323558162269
1.392961876832845
1.3792766373411536
1.3900293255131966
1.4222873900293256
1.482893450635386
1.58455522971652
1.726295210166178
1.900293255131965
2.089931573802541
2.27761485826002
2.4486803519061584
2.590420332355816
2.695014662756598
2.7624633431085046
2.7976539589442817
2.8054740957966766
2.792766373411535
2.7624633431085046
2.720430107526881
2.670576735092864
2.6129032258064515
2.550342130987292
2.486803519061584
2.420332355816227
2.3499511241446727
2.27761485826002
2.207233626588465
2.136852394916911
2.074291300097752
2.0175953079178885
1.9550342130987293
1.884652981427175
1.8132942326490715
1.7429130009775171
1.672531769305963
1.6021505376344083
1.5366568914956011
1.478005865102639
1.426197458455523
1.3782991202346042
1.3391984359726294
1.3157380254154447
1.3079178885630498
1.3118279569892473
1.3294232649071358
1.3626588465298142
1.4105571847507332
1.4633431085043989
1.517106549364614
1.5669599217986314
1.6099706744868034
1.643206256109482
1.6637341153470186
1.6735092864125125
1.6764418377321604
1.6705767350928642
1.6559139784946235
1.6363636363636365
1.6158357771260996
1.5933528836754642
1.5669599217986314
1.5356793743890518
1.5053763440860215
1.4760508308895406
1.4535679374389052
1.4486803519061584
1.4633431085043989
1.5053763440860215
1.5865102639296187
1.710654936461388
1.8748778103616808
2.065493646138808
2.2658846529814274
2.4565004887585533
2.6236559139784945
2.7595307917888565
2.8563049853372435
2.913000977517106
2.9335288367546437
2.929618768328446
2.911045943304008
2.873900293255132
2.823069403714565
2.7624633431085046
2.696969696969697
2.6295210166177907
2.5610948191593352
2.493646138807429
2.429130009775171
2.3655913978494625
2.3088954056695994
2.2551319648093844
2.1955034213098727
2.1309872922776147
2.065493646138808
1.9980449657869013
1.9257086999022484
1.8504398826979471
1.7761485826001957
1.704789833822092
1.6344086021505375
1.5679374389051808
1.509286412512219
1.4643206256109482
1.4281524926686218
1.396871945259042
1.3792766373411536
1.3782991202346042
1.392961876832845
1.426197458455523
1.4711632453567938
1.521016617790811
1.56891495601173
1.6129032258064515
1.6500488758553276
1.6764418377321604
1.694037145650049
1.7028347996089932
1.7028347996089932
1.6989247311827955
1.689149560117302
1.672531769305963
1.6529814271749756
1.6314760508308896
1.6050830889540566
1.5728250244379276
1.5386119257087
1.5063538611925709
1.482893450635386
1.4731182795698925
1.4819159335288368
1.521016617790811
1.598240469208211
1.7194525904203324
1.8836754643206255
2.074291300097752
2.2737047898338223
2.464320625610948
2.633431085043988
2.7722385141739982
2.865102639296188
2.918866080156403
2.948191593352884
2.949169110459433
2.9266862170087977
2.8836754643206257
2.8260019550342133
2.7595307917888565
2.69208211143695
2.625610948191593
2.5591397849462365
2.4946236559139785
2.4330400782013686
2.377321603128055
2.324535679374389
2.2688172043010755
2.210166177908113
2.145650048875855
2.0772238514174
2.003910068426197
1.9286412512218964
1.8523949169110456
1.7771260997067448
1.7028347996089932
1.629521016617791
1.56891495601173
1.5180840664711632
1.4652981427174976
1.4173998044965788
1.3782991202346042
1.3509286412512218
1.3391984359726294
1.3450635386119256
1.3665689149560116
1.404692082111437
1.452590420332356
1.500488758553275
1.543499511241447
1.5806451612903225
1.6109481915933528
1.635386119257087
1.6520039100684265
1.6578690127077225
1.6529814271749756
1.6392961876832846
1.6207233626588464
1.6001955034213098
1.5777126099706744
1.5513196480938416
1.521016617790811
1.495601173020528
1.4731182795698925
1.4486803519061584
1.4301075268817205
1.43108504398827
1.4604105571847508
1.5268817204301075
1.6383186705767352
1.790811339198436
1.9736070381231672
2.167155425219941
2.3548387096774195
2.5239491691104594
2.650048875855328
2.73802541544477
2.780058651026393
2.782991202346041
2.7810361681329425
2.7624633431085046
2.7253176930596283
2.673509286412512
2.611925708699902
2.5454545454545454
2.47702834799609
2.409579667644184
2.347996089931574
2.290322580645161
2.225806451612903
2.156402737047898
2.086021505376344
2.01564027370479
1.9472140762463344
1.8778103616813293
1.8035190615835777
1.7272727272727273
1.6520039100684265
1.5757575757575757
1.4936461388074291
1.4252199413489737
1.3695014662756595
1.310850439882698
1.2541544477028348
1.2052785923753666
1.1691104594330402
1.147605083088954
1.13880742913001
1.1436950146627567
1.166177908113392
1.2013685239491692
1.24633431085044
1.2942326490713587
1.3372434017595307
1.3792766373411536
1.41544477028348
1.4437927663734116
1.4613880742913
1.4682306940371457
1.466275659824047
1.455522971652004
1.4379276637341154
1.41544477028348
1.388074291300098
1.3587487781036167
1.3343108504398826
1.3128054740957966
1.284457478005865
1.252199413489736
1.2267839687194526
1.2179863147605083
1.2365591397849462
1.2932551319648091
1.3919843597262953
1.5317693059628543
1.6989247311827955
1.878787878787879
2.038123167155425
2.177908113391984
2.3167155425219943
2.434017595307918
2.520039100684262
2.5747800586510263
2.598240469208211
2.5943304007820136
2.56891495601173
2.5239491691104594
2.466275659824047
2.4027370478983383
2.333333333333333
2.2688172043010755
2.209188660801564
2.1436950146627565
2.0762463343108504
2.006842619745845
1.9393939393939397
1.871945259042033
1.8005865102639296
1.726295210166178
1.6520039100684265
1.5796676441837731
1.5083088954056696
1.4467253176930597
1.3919843597262953
1.3333333333333333
1.2727272727272727
1.2130987292277615
1.1593352883675463
1.1173020527859236
1.0899315738025417
1.0801564027370478
1.088954056695992
1.115347018572825
1.1534701857282503
1.1964809384164223
1.2434017595307918
1.2961876832844574
1.346041055718475
1.391006842619746
1.4291300097751711
1.456500488758553
1.4721407624633431
1.478005865102639
1.4750733137829912
1.4633431085043989
1.4457478005865103
1.4252199413489737
1.4066471163245358
1.388074291300098
1.3626588465298142
1.3343108504398826
1.3049853372434017
1.2766373411534702
1.2580645161290325
1.262952101661779
1.300097751710655
1.3773216031280548
1.4965786901270772
1.6520039100684265
1.8064516129032255
1.959921798631476
2.132942326490713
2.300097751710655
2.444770283479961
2.5562072336265884
2.631476050830889
2.6715542521994133
2.677419354838709
2.656891495601173
2.619745845552297
2.573802541544477
2.5190615835777126
2.462365591397849
2.406647116324536
2.343108504398827
2.275659824046921
2.207233626588465
2.134897360703812
2.0635386119257086
1.9931573802541545
1.9237536656891496
1.858260019550342
1.793743890518084
1.7282502443792769
1.6705767350928642
1.6158357771260996
1.5532746823069403
1.4868035190615836
1.4203323558162269
1.3558162267839686
1.2942326490713587
1.2375366568914956
1.1896383186705768
1.155425219941349
1.13880742913001
1.1378299120234605
1.1534701857282503
1.1788856304985338
1.2150537634408602
1.2649071358748778
1.3186705767350928
1.3695014662756595
1.4105571847507332
1.4389051808406648
1.455522971652004
1.4613880742913
1.456500488758553
1.4428152492668622
1.4242424242424243
1.4066471163245358
1.3919843597262953
1.3763440860215057
1.3587487781036167
1.3362658846529814
1.3098729227761483
1.2805474095796676
1.252199413489736
1.2346041055718475
1.2394916911045943
1.2766373411534702
1.35386119257087
1.4731182795698925
1.603128054740958
1.7487781036168133
1.9296187683284456
2.120234604105572
2.302052785923754
2.4574780058651027
2.5747800586510263
2.6529814271749754
2.6959921798631474
2.705767350928641
2.687194525904203
2.650048875855328
2.6080156402737047
2.5591397849462365
2.4995112414467253
2.436950146627566
2.3743890518084068
2.310850439882698
2.2482893450635384
2.187683284457478
2.129032258064516
2.0684261974584555
2.002932551319648
1.932551319648094
1.858260019550342
1.7917888563049853
1.729227761485826
1.6608015640273706
1.5913978494623655
1.521994134897361
1.457478005865103
1.401759530791789
1.3499511241446724
1.3010752688172045
1.2551319648093842
1.2160312805474096
1.1906158357771262
1.181818181818182
1.187683284457478
1.2082111436950147
1.241446725317693
1.2854349951124144
1.335288367546432
1.3822091886608017
1.4252199413489737
1.4623655913978495
1.4887585532746823
1.5034213098729228
1.509286412512219
1.5083088954056696
1.5053763440860215
1.498533724340176
1.482893450635386
1.4633431085043989
1.4379276637341154
1.4076246334310851
1.3763440860215057
1.3450635386119256
1.313782991202346
1.2883675464320623
1.281524926686217
1.305962854349951
1.3528836754643203
1.4301075268817205
1.5503421309872922
1.7067448680351909
1.8866080156402736
2.0733137829912023
2.249266862170088
2.39980449657869
2.5180840664711632
2.6099706744868034
2.6725317693059627
2.7008797653958942
2.699902248289345
2.681329423264907
2.649071358748778
2.6070381231671558
2.557184750733138
2.498533724340176
2.4359726295210167
2.3734115347018574
2.312805474095797
2.2521994134897363
2.1925708699902247
2.134897360703812
2.0772238514174
2.022482893450636
1.970674486803519
1.9120234604105573
1.8455522971652003
1.7771260997067448
1.70772238514174
1.6383186705767352
1.5698924731182795
1.504398826979472
1.4418377321603129
1.383186705767351
1.3304007820136852
1.2864125122189638
1.2609970674486803
1.2502443792766371
1.2473118279569892
1.2512218963831867
1.2658846529814272
1.2932551319648091
1.3294232649071358
1.367546432062561
1.4037145650048877
1.434017595307918
1.457478005865103
1.469208211143695
1.4731182795698925
1.4711632453567938
1.4623655913978495
1.4506353861192571
1.4379276637341154
1.4242424242424243
1.4076246334310851
1.3861192570869991
1.3607038123167154
1.3333333333333333
1.3049853372434017
1.2795698924731185
1.2649071358748778
1.2649071358748778
1.2854349951124144
1.3362658846529814
1.423264907135875
1.543499511241447
1.6920821114369502
1.857282502443793
2.022482893450636
2.177908113391984
2.310850439882698
2.4144672531769307
2.4887585532746823
2.532746823069404
2.555229716520039
2.560117302052786
2.5464320625610948
2.515151515151515
2.4701857282502444
2.4164222873900294
2.355816226783969
2.289345063538612
2.218963831867057
2.146627565982405
2.0733137829912023
2.010752688172043
1.956989247311828
1.8973607038123168
1.833822091886608
1.7712609970674489
1.7086999022482894
1.64613880742913
1.581622678396872
1.5180840664711632
1.458455522971652
1.404692082111437
1.3558162267839686
1.310850439882698
1.2795698924731185
1.2619745845552297
1.2512218963831867
1.249266862170088
1.2590420332355816
1.2805474095796676
1.313782991202346
1.3558162267839686
1.4007820136852396
1.4437927663734116
1.4819159335288368
1.512218963831867
1.5327468230694037
1.5454545454545454
1.5493646138807429
1.5464320625610948
1.5356793743890518
1.517106549364614
1.4926686217008798
1.466275659824047
1.4379276637341154
1.409579667644184
1.3763440860215057
1.3372434017595307
1.300097751710655
1.273704789833822
1.2551319648093842
1.2404692082111437
1.238514173998045
1.2609970674486803
1.3206256109481915
1.4164222873900294
1.543499511241447
1.6959921798631477
1.86119257086999
2.0234604105571847
2.1730205278592374
2.2883675464320627
2.3734115347018574
2.4457478005865103
2.498533724340176
2.5317693059628543
2.548387096774193
2.549364613880743
2.535679374389052
2.5102639296187683
2.4750733137829912
2.434017595307918
2.391006842619746
2.347018572825025
2.3069403714565007
2.264907135874878
2.2160312805474094
2.1652003910068425
2.112414467253177
2.0547409579667644
1.994134897360704
1.9305962854349952
1.8621700879765395
1.7927663734115349
1.7253176930596286
1.6578690127077225
1.6001955034213098
1.5513196480938416
1.5024437927663734
1.458455522971652
1.4193548387096775
1.3890518084066472
1.3695014662756595
1.359726295210166
1.3587487781036167
1.3655913978494625
1.3782991202346042
1.3978494623655917
1.4222873900293256
1.4457478005865103
1.4633431085043989
1.4750733137829912
1.4848484848484849
1.4936461388074291
1.501466275659824
1.5053763440860215
1.501466275659824
1.4926686217008798
1.4809384164222874
1.4643206256109482
1.4408602150537635
1.4193548387096775
1.4037145650048877
1.3919843597262953
1.3958944281524928
1.423264907135875
1.4809384164222874
1.5747800586510263
1.7038123167155426
1.865102639296188
2.04594330400782
2.2297165200391005
2.401759530791789
2.5464320625610948
2.6480938416422286
2.717497556207233
2.771260997067449
2.801564027370479
2.807429130009776
2.791788856304985
2.758553274682307
2.7116324535679373
2.656891495601173
2.5962854349951123
2.532746823069404
2.4701857282502444
2.4144672531769307
2.3626588465298144
2.3069403714565007
2.249266862170088
2.1915933528836757
2.1309872922776147
2.067448680351906
2.0009775171065494
1.9305962854349952
1.858260019550342
1.7869012707722385
1.718475073313783
1.651026392961877
1.5933528836754642
1.542521994134897
1.490713587487781
1.4428152492668622
1.4007820136852396
1.370478983382209
1.3528836754643203
1.3499511241446724
1.364613880742913
1.3958944281524928
1.4379276637341154
1.4848484848484849
1.5288367546432062
1.5669599217986314
1.603128054740958
1.632453567937439
1.651026392961877
1.6578690127077225
1.6559139784946235
1.6451612903225807
1.629521016617791
1.6099706744868034
1.5894428152492668
1.564027370478983
1.5327468230694037
1.5063538611925709
1.4838709677419355
1.4594330400782014
1.4379276637341154
1.4291300097751711
1.4418377321603129
1.4809384164222874
1.5581622678396871
1.6735092864125125
1.822091886608016
1.992179863147605
2.1681329423264906
2.315738025415445
2.436950146627566
2.5532746823069403
2.644183773216031
2.704789833822092
2.742913000977517
2.757575757575758
2.748778103616813
2.721407624633431
2.681329423264907
2.633431085043988
2.579667644183773
2.5190615835777126
2.4613880742913
2.404692082111437
2.3421309872922778
2.275659824046921
2.207233626588465
2.139784946236559
2.072336265884653
2.004887585532747
1.935483870967742
1.8621700879765395
1.7859237536656891
1.7086999022482894
1.640273704789834
1.576735092864125
1.5073313782991202
1.4408602150537635
1.380254154447703
1.3255131964809383
1.2795698924731185
1.2473118279569892
1.2287390029325511
1.224828934506354
1.2365591397849462
1.2609970674486803
1.2991202346041055
1.343108504398827
1.383186705767351
1.4222873900293256
1.4604105571847508
1.4916911045943304
1.5131964809384164
1.525904203323558
1.530791788856305
1.5288367546432062
1.521016617790811
1.5053763440860215
1.4868035190615836
1.4682306940371457
1.447702834799609
1.4222873900293256
1.3949169110459434
1.3695014662756595
1.3558162267839686
1.359726295210166
1.388074291300098
1.4486803519061584
1.547409579667644
1.6803519061583578
1.842619745845552
1.9960899315738023
2.139784946236559
2.294232649071359
2.436950146627566
2.5562072336265884
2.64613880742913
2.7038123167155423
2.735092864125122
2.7390029325513194
2.720430107526881
2.6852394916911044
2.6392961876832843
2.5865102639296187
2.532746823069404
2.47702834799609
2.4164222873900294
2.3499511241446727
2.2795698924731185
2.209188660801564
2.1407624633431084
2.072336265884653
2.004887585532747
1.935483870967742
1.8631476050830889
1.7898338220918866
1.7272727272727273
1.672531769305963
1.6109481915933528
1.5454545454545454
1.478983382209189
1.41544477028348
1.35386119257087
1.2971652003910068
1.252199413489736
1.2238514173998043
1.2121212121212122
1.2130987292277615
1.2287390029325511
1.2531769305962854
1.2864125122189638
1.3304007820136852
1.3773216031280548
1.4193548387096775
1.4545454545454546
1.4819159335288368
1.501466275659824
1.5131964809384164
1.517106549364614
1.5112414467253177
1.4965786901270772
1.4819159335288368
1.4652981427174976
1.4428152492668622
1.4164222873900294
1.388074291300098
1.3587487781036167
1.3333333333333333
1.3186705767350928
1.3264907135874875
1.3655913978494625
1.4428152492668622
1.560117302052786
1.7096774193548387
1.857282502443793
2.003910068426197
2.166177908113392
2.3225806451612905
2.458455522971652
2.563049853372434
2.634408602150537
2.673509286412512
2.684261974584555
2.670576735092864
2.6392961876832843
2.5962854349951123
2.548387096774193
2.496578690127077
2.4389051808406648
2.380254154447703
2.318670576735093
2.2551319648093844
2.1915933528836757
2.1300097751710654
2.067448680351906
2.0019550342130987
1.9374389051808407
1.8758553274682308
1.8113391984359728
1.7517106549364614
1.6959921798631477
1.6344086021505375
1.5679374389051808
1.501466275659824
1.4379276637341154
1.3763440860215057
1.3176930596285434
1.2658846529814272
1.224828934506354
1.1994134897360704
1.1896383186705768
1.1945259042033236
1.2082111436950147
1.2316715542521994
1.2658846529814272
1.305962854349951
1.3479960899315735
1.3870967741935485
1.4203323558162269
1.4457478005865103
1.4623655913978495
1.4672531769305963
1.4604105571847508
1.447702834799609
1.4379276637341154
1.4291300097751711
1.4164222873900294
1.4007820136852396
1.380254154447703
1.3548387096774193
1.327468230694037
1.3010752688172045
1.2834799608993157
1.2903225806451613
1.3284457478005864
1.4037145650048877
1.495601173020528
1.607038123167155
1.75366568914956
1.9178885630498532
2.0879765395894427
2.2453567937438903
2.376344086021505
2.4780058651026398
2.5454545454545454
2.5806451612903225
2.589442815249267
2.5747800586510263
2.5434995112414467
2.5034213098729228
2.455522971652004
2.39980449657869
2.3421309872922778
2.283479960899316
2.225806451612903
2.1710654936461387
2.117302052785924
2.0625610948191597
2.003910068426197
1.9403714565004888
1.873900293255132
1.812316715542522
1.7556207233626588
1.694037145650049
1.629521016617791
1.564027370478983
1.499511241446725
1.436950146627566
1.3763440860215057
1.3157380254154447
1.2609970674486803
1.217008797653959
1.181818181818182
1.1573802541544478
1.1466275659824048
1.1505376344086022
1.1652003910068427
1.187683284457478
1.2179863147605083
1.2551319648093842
1.2942326490713587
1.3304007820136852
1.3616813294232648
1.3851417399804498
1.3988269794721409
1.4037145650048877
1.404692082111437
1.4007820136852396
1.391006842619746
1.3792766373411536
1.3636363636363635
1.343108504398827
1.3176930596285434
1.2903225806451613
1.2619745845552297
1.238514173998045
1.2267839687194526
1.2355816226783969
1.2776148582600195
1.3411534701857282
1.43108504398827
1.5571847507331378
1.7096774193548387
1.8758553274682308
2.0391006842619745
2.185728250244379
