ppg
1.1251221896383188
1.1124144672531768
1.110459433040078
1.1270772238514175
1.1593352883675463
1.2160312805474096
1.3118279569892473
1.4418377321603129
1.5972629521016617
1.7653958944281525
1.9335288367546437
2.0879765395894427
2.220918866080156
2.3274682306940373
2.4086021505376345
2.466275659824047
2.504398826979472
2.5219941348973607
2.5249266862170088
2.520039100684262
2.506353861192571
2.484848484848485
2.4545454545454546
2.4144672531769307
2.3655913978494625
2.30791788856305
2.242424242424242
2.1700879765395893
2.09188660801564
2.0205278592375366
1.9530791788856303
1.881720430107527
1.812316715542522
1.7487781036168133
1.6930596285434996
1.6480938416422288
1.6138807429130009
1.5894428152492668
1.573802541544477
1.564027370478983
1.5581622678396871
1.555229716520039
1.5532746823069403
1.5503421309872922
1.5464320625610948
1.5405669599217986
1.5317693059628543
1.520039100684262
1.5053763440860215
1.4887585532746823
1.469208211143695
1.4486803519061584
1.426197458455523
1.4027370478983383
1.3822091886608017
1.3636363636363635
1.3421309872922775
1.3186705767350928
1.295210166177908
1.2717497556207231
1.249266862170088
1.227761485826002
1.2082111436950147
1.1896383186705768
1.1720430107526882
1.155425219941349
1.1407624633431086
1.130987292277615
1.1231671554252198
1.1143695014662756
1.1055718475073313
1.096774193548387
1.088954056695992
1.0821114369501466
1.075268817204301
1.0703812316715542
1.0654936461388074
1.0606060606060606
1.0557184750733135
1.0547409579667644
1.0557184750733135
1.056695992179863
1.0635386119257086
1.0811339198435972
1.1133919843597262
1.163245356793744
1.2336265884652982
1.321603128054741
1.4213098729227762
1.525904203323558
1.6265884652981428
1.7165200391006843
1.7839687194525904
1.8318670576735088
1.8670576735092863
1.8866080156402736
1.8885630498533723
1.8748778103616808
1.8465298142717497
1.8064516129032255
1.7556207233626588
1.6950146627565983
1.6275659824046922
1.555229716520039
1.490713587487781
1.43108504398827
1.3665689149560116
1.303030303030303
1.2453567937438903
1.1964809384164223
1.1583577712609971
1.1319648093841643
1.1173020527859236
1.1143695014662756
1.121212121212121
1.1348973607038124
1.1544477028347997
1.1759530791788857
1.198435972629521
1.2218963831867058
1.2434017595307918
1.262952101661779
1.2776148582600195
1.2883675464320623
1.295210166177908
1.2991202346041055
1.2991202346041055
1.295210166177908
1.2883675464320623
1.2825024437927663
1.2776148582600195
1.2697947214076246
1.260019550342131
1.249266862170088
1.2394916911045943
1.23069403714565
1.2218963831867058
1.2140762463343109
1.206256109481916
1.198435972629521
1.1915933528836755
1.1857282502443791
1.1827956989247312
1.1808406647116323
1.1788856304985338
1.173998044965787
1.1681329423264908
1.164222873900293
1.1622678396871946
1.1622678396871946
1.163245356793744
1.1652003910068427
1.1681329423264908
1.1710654936461389
1.1759530791788857
1.181818181818182
1.1857282502443791
1.1896383186705768
1.1925708699902249
1.195503421309873
1.1974584555229717
1.1974584555229717
1.1935483870967742
1.1867057673509287
1.1788856304985338
1.1788856304985338
1.198435972629521
1.2375366568914956
1.3079178885630498
1.4301075268817205
1.6041055718475072
1.822091886608016
2.067448680351906
2.3196480938416424
2.5591397849462365
2.7702834799608995
2.9442815249266863
3.0791788856304985
3.177908113391984
3.236559139784946
3.2658846529814274
3.283479960899316
3.2873900293255134
3.278592375366569
3.257086999022483
3.2248289345063537
3.1808406647116323
3.124144672531769
3.0557184750733137
2.975562072336266
2.886608015640274
2.788856304985337
2.696969696969697
2.608993157380254
2.5161290322580645
2.4252199413489737
2.3411534701857284
2.2668621700879767
2.2052785923753664
2.156402737047898
2.1192570869990224
2.093841642228739
2.0762463343108504
2.064516129032258
2.053763440860215
2.0439882697947214
2.034213098729228
2.021505376344086
2.005865102639296
1.986314760508309
1.963831867057673
1.9393939393939397
1.9120234604105573
1.8826979472140764
1.8523949169110456
1.8201368523949168
1.7869012707722385
1.758553274682307
1.732160312805474
1.7018572825024438
1.6695992179863148
1.6373411534701858
1.6041055718475072
1.5728250244379276
1.542521994134897
1.5131964809384164
1.4848484848484849
1.458455522971652
1.434017595307918
1.41544477028348
1.3998044965786902
1.383186705767351
1.3665689149560116
1.348973607038123
1.332355816226784
1.316715542521994
1.3020527859237536
1.2883675464320623
1.2746823069403714
1.2590420332355816
1.241446725317693
1.2258064516129032
1.2140762463343109
1.206256109481916
1.2130987292277615
1.249266862170088
1.3235581622678396
1.4418377321603129
1.603128054740958
1.7976539589442817
2.0097751710654936
2.2218963831867056
2.418377321603128
2.5884652981427174
2.7116324535679373
2.798631476050831
2.8699902248289346
2.9227761485826003
2.956011730205278
2.9716520039100685
2.972629521016618
2.959921798631476
2.9345063538611926
2.8963831867057674
2.84652981427175
2.7839687194525906
2.716520039100684
2.643206256109482
2.557184750733138
2.4613880742913
2.3597262952101663
2.257086999022483
2.158357771260997
2.0664711632453567
1.9853372434017595
1.9159335288367547
1.8602150537634408
1.818181818181818
1.7869012707722385
1.7673509286412512
1.7556207233626588
1.747800586510264
1.7419354838709675
1.737047898338221
1.7311827956989247
1.7233626588465298
1.7135874877810362
1.7008797653958945
1.6842619745845553
1.664711632453568
1.643206256109482
1.6226783968719452
1.6021505376344083
1.576735092864125
1.5483870967741935
1.5180840664711632
1.4868035190615836
1.455522971652004
1.4242424242424243
1.392961876832845
1.3616813294232648
1.3313782991202343
1.3020527859237536
1.2746823069403714
1.2541544477028348
1.2365591397849462
1.2179863147605083
1.2003910068426198
1.1837732160312806
1.1691104594330402
1.155425219941349
1.1436950146627567
1.1319648093841643
1.1202346041055715
1.1094819159335287
1.099706744868035
1.0948191593352885
1.0918866080156402
1.0850439882697946
1.0762463343108504
1.0635386119257086
1.0488758553274682
1.0342130987292275
1.0273704789833822
1.0410557184750733
1.0869990224828934
1.1749755620723363
1.3098729227761483
1.4897360703812317
1.6695992179863148
1.8523949169110456
2.060606060606061
2.2668621700879767
2.4516129032258065
2.606060606060606
2.727272727272727
2.81622678396872
2.875855327468231
2.9120234604105573
2.9286412512218964
2.927663734115347
2.913000977517106
2.8856304985337244
2.8484848484848486
2.798631476050831
2.7370478983382207
2.6637341153470184
2.578690127077224
2.4838709677419355
2.383186705767351
2.2795698924731185
2.175953079178885
2.0772238514174
1.988269794721408
1.9178885630498532
1.8631476050830889
1.81524926686217
1.7790811339198436
1.7546432062561097
1.7419354838709675
1.737047898338221
1.7360703812316716
1.737047898338221
1.737047898338221
1.7350928641251222
1.729227761485826
1.7223851417399805
1.7126099706744868
1.6979472140762464
1.6803519061583578
1.6598240469208212
1.6373411534701858
1.611925708699902
1.585532746823069
1.5581622678396871
1.530791788856305
1.5024437927663734
1.474095796676442
1.4457478005865103
1.4222873900293256
1.401759530791789
1.3782991202346042
1.3548387096774193
1.3313782991202343
1.3098729227761483
1.2903225806451613
1.2717497556207231
1.2551319648093842
1.2404692082111437
1.2267839687194526
1.2130987292277615
1.203323558162268
1.1964809384164223
1.187683284457478
1.1788856304985338
1.1700879765395895
1.1612903225806452
1.1534701857282503
1.1466275659824048
1.1378299120234605
1.1270772238514175
1.1085043988269794
1.0869990224828934
1.075268817204301
1.0772238514173995
1.0977517106549364
1.1456500488758554
1.2297165200391007
1.3519061583577712
1.5083088954056696
1.6871945259042034
1.8748778103616808
2.0576735092864125
2.2218963831867056
2.360703812316716
2.4701857282502444
2.5425219941348973
2.587487781036168
2.6207233626588464
2.6392961876832843
2.644183773216031
2.636363636363636
2.616813294232649
2.5865102639296187
2.5454545454545454
2.493646138807429
2.432062561094819
2.360703812316716
2.281524926686217
2.206256109481916
2.131964809384164
2.0498533724340176
1.967741935483871
1.8905180840664717
1.8211143695014664
1.761485826001955
1.7145650048875856
1.6803519061583578
1.6578690127077225
1.6451612903225807
1.6383186705767352
1.635386119257087
1.6344086021505375
1.6334310850439884
1.6304985337243405
1.624633431085044
1.6158357771260996
1.6041055718475072
1.5884652981427174
1.5698924731182795
1.5493646138807429
1.5278592375366569
1.504398826979472
1.482893450635386
1.4633431085043989
1.4408602150537635
1.4164222873900294
1.3919843597262953
1.3665689149560116
1.3401759530791788
1.3147605083088951
1.289345063538612
1.2658846529814272
1.2434017595307918
1.2228739002932552
1.2043010752688172
1.1906158357771262
1.1798631476050832
1.1671554252199414
1.155425219941349
1.1436950146627567
1.1329423264907137
1.1231671554252198
1.1133919843597262
1.104594330400782
1.0957966764418376
1.086021505376344
1.0742913000977516
1.064516129032258
1.056695992179863
1.0469208211143697
1.0449657869012707
1.06158357771261
1.1065493646138806
1.187683284457478
1.3088954056695992
1.4652981427174976
1.64613880742913
1.8377321603128052
2.024437927663734
2.193548387096774
2.3225806451612905
2.419354838709677
2.5034213098729228
2.567937438905181
2.6129032258064515
2.6402737047898337
2.652003910068426
2.650048875855328
2.635386119257087
2.6099706744868034
2.573802541544477
2.527859237536657
2.4780058651026398
2.421309872922776
2.3528836754643208
2.274682306940372
2.189638318670577
2.1006842619745845
2.0117302052785924
1.927663734115347
1.8504398826979471
1.7839687194525904
1.7302052785923754
1.6881720430107527
1.6578690127077225
1.6392961876832846
1.6275659824046922
1.619745845552297
1.6148582600195502
1.6109481915933528
1.607038123167155
1.6011730205278591
1.5933528836754642
1.5826001955034212
1.5679374389051808
1.5513196480938416
1.5327468230694037
1.5151515151515151
1.4975562072336266
1.4760508308895406
1.4516129032258065
1.4252199413489737
1.3978494623655917
1.3695014662756595
1.3401759530791788
1.3118279569892473
1.284457478005865
1.2570869990224829
1.23069403714565
1.206256109481916
1.1867057673509287
1.1710654936461389
1.1534701857282503
1.1368523949169111
1.121212121212121
1.1065493646138806
1.093841642228739
1.0821114369501466
1.072336265884653
1.0635386119257086
1.0547409579667644
1.0469208211143697
1.0439882697947214
1.0420332355816226
1.0391006842619743
1.035190615835777
1.0303030303030305
1.0234604105571847
1.013685239491691
1.0019550342130987
0.9902248289345064
0.9853372434017597
0.997067448680352
1.0342130987292275
1.10752688172043
1.198435972629521
1.313782991202346
1.4711632453567938
1.6559139784946235
1.8514173998044965
2.040078201368524
2.209188660801564
2.3499511241446727
2.4604105571847508
2.5425219941348973
2.5992179863147604
2.634408602150537
2.649071358748778
2.649071358748778
2.6392961876832843
2.619745845552297
2.589442815249267
2.548387096774193
2.496578690127077
2.434017595307918
2.360703812316716
2.2795698924731185
2.193548387096774
2.1055718475073317
2.018572825024438
1.9442815249266865
1.8807429130009776
1.8191593352883677
1.7663734115347018
1.7243401759530792
1.694037145650049
1.6735092864125125
1.66177908113392
1.656891495601173
1.6549364613880744
1.6529814271749756
1.6500488758553276
1.64613880742913
1.640273704789834
1.6304985337243405
1.6177908113391983
1.6011730205278591
1.5826001955034212
1.5620723362658846
1.5395894428152492
1.5161290322580645
1.4916911045943304
1.466275659824047
1.4408602150537635
1.414467253176931
1.392961876832845
1.3734115347018572
1.3509286412512218
1.327468230694037
1.3040078201368523
1.281524926686217
1.260019550342131
1.238514173998045
1.2189638318670577
1.2003910068426198
1.1837732160312806
1.1691104594330402
1.1583577712609971
1.1505376344086022
1.141739980449658
1.1319648093841643
1.1231671554252198
1.1143695014662756
1.1055718475073313
1.096774193548387
1.0879765395894427
1.078201368523949
1.0664711632453567
1.053763440860215
1.0439882697947214
1.0410557184750733
1.0498533724340176
1.0791788856304985
1.1378299120234605
1.2326490713587488
1.3636363636363635
1.5239491691104594
1.7028347996089932
1.8856304985337244
2.058651026392962
2.2111436950146626
2.337243401759531
2.426197458455523
2.4858260019550342
2.532746823069404
2.5640273704789838
2.6578690127077222
2.7751710654936463
2.819159335288368
2.820136852394917
2.792766373411535
2.745845552297165
2.684261974584555
2.608993157380254
2.5219941348973607
2.4379276637341154
2.3528836754643208
2.257086999022483
2.158357771260997
2.0625610948191597
1.975562072336266
1.900293255131965
1.839687194525904
1.793743890518084
1.7634408602150538
1.7448680351906158
1.7350928641251222
1.7311827956989247
1.729227761485826
1.729227761485826
1.7282502443792769
1.7243401759530792
1.7126099706744868
1.6989247311827955
1.686217008797654
1.667644183773216
1.64613880742913
1.6217008797653958
1.5943304007820136
1.5698924731182795
1.547409579667644
1.521016617790811
1.4926686217008798
1.4623655913978495
1.43108504398827
1.3988269794721409
1.367546432062561
1.33822091886608
1.3098729227761483
1.2825024437927663
1.2570869990224829
1.2336265884652982
1.2179863147605083
1.2052785923753666
1.1906158357771262
1.176930596285435
1.163245356793744
1.1495601173020529
1.1358748778103618
1.1241446725317692
1.1143695014662756
1.1036168132942326
1.0928641251221896
1.0801564027370478
1.0694037145650048
1.0596285434995112
1.0478983382209188
1.043010752688172
1.056695992179863
1.1006842619745845
1.1867057673509287
1.3186705767350928
1.4936461388074291
1.699902248289345
1.9227761485826005
2.1436950146627565
2.347018572825025
2.5034213098729228
2.621700879765396
2.7253176930596283
2.806451612903226
2.863147605083089
2.897360703812317
2.913000977517106
2.9120234604105573
2.897360703812317
2.8690127077223853
2.827956989247312
2.774193548387097
2.7155425219941347
2.650048875855328
2.570869990224829
2.479960899315738
2.3812316715542523
2.27761485826002
2.174975562072336
2.0762463343108504
1.986314760508309
1.90811339198436
1.8435972629521016
1.7947214076246334
1.7595307917888563
1.737047898338221
1.7233626588465298
1.715542521994135
1.7116324535679377
1.7086999022482894
1.7057673509286413
1.699902248289345
1.6920821114369502
1.6793743890518085
1.6637341153470186
1.6441837732160314
1.6217008797653958
1.6011730205278591
1.581622678396872
1.5562072336265884
1.5268817204301075
1.4946236559139785
1.4613880742913
1.4271749755620724
1.3919843597262953
1.356793743890518
1.3235581622678396
1.2913000977517106
1.2609970674486803
1.2326490713587488
1.2101661779081134
1.1925708699902249
1.1730205278592376
1.152492668621701
1.1329423264907137
1.115347018572825
1.099706744868035
1.0869990224828934
1.0762463343108504
1.067448680351906
1.0596285434995112
1.0527859237536656
1.0498533724340176
1.0488758553274682
1.0449657869012707
1.040078201368524
1.0342130987292275
1.0263929618768328
1.0166177908113392
1.002932551319648
0.989247311827957
0.981427174975562
0.989247311827957
1.024437927663734
1.099706744868035
1.1974584555229717
1.3255131964809383
1.5053763440860215
1.7194525904203324
1.949169110459433
2.174975562072336
2.3792766373411536
2.552297165200391
2.7038123167155423
2.814271749755621
2.87683284457478
2.916911045943304
2.9335288367546437
2.932551319648094
2.920821114369501
2.897360703812317
2.86217008797654
2.814271749755621
2.7546432062561097
2.6832844574780057
2.60019550342131
2.506353861192571
2.4056695992179864
2.302052785923754
2.198435972629521
2.1094819159335287
2.0332355816226784
1.959921798631476
1.8963831867057677
1.8465298142717497
1.8113391984359728
1.7888563049853372
1.7771260997067448
1.772238514173998
1.7712609970674489
1.7712609970674489
1.7702834799608993
1.7683284457478006
1.7634408602150538
1.7546432062561097
1.7409579667644184
1.7223851417399805
1.7008797653958945
1.6774193548387095
1.6520039100684265
1.624633431085044
1.595307917888563
1.565982404692082
1.5376344086021505
1.5083088954056696
1.4838709677419355
1.4613880742913
1.4349951124144673
1.4066471163245358
1.3782991202346042
1.3499511241446724
1.3235581622678396
1.2991202346041055
1.2756598240469208
1.2551319648093842
1.2365591397849462
1.219941348973607
1.209188660801564
1.2013685239491692
1.1915933528836755
1.1827956989247312
1.1730205278592376
1.164222873900293
1.1534701857282503
1.144672531769306
1.1378299120234605
1.1290322580645162
1.1192570869990224
1.10752688172043
1.093841642228739
1.0840664711632453
1.0791788856304985
1.0811339198435972
1.104594330400782
1.1593352883675463
1.2561094819159335
1.3978494623655917
1.5786901270772238
1.7869012707722385
2.0547409579667644
2.291300097751711
2.447702834799609
2.575757575757576
2.674486803519061
2.7624633431085046
2.8299120234604107
2.875855327468231
2.900293255131965
2.906158357771261
2.8963831867057674
2.8729227761485827
2.835777126099707
2.7859237536656893
2.7223851417399803
2.6480938416422286
2.572825024437928
2.493646138807429
2.401759530791789
2.303030303030303
2.2023460410557183
2.104594330400782
2.013685239491691
1.9345063538611929
1.869012707722385
1.8191593352883677
1.7917888563049853
1.7820136852394917
1.7771260997067448
1.7741935483870968
1.7732160312805474
1.7712609970674489
1.7702834799608993
1.7673509286412512
1.7595307917888563
1.7419354838709675
1.7233626588465298
1.7008797653958945
1.6774193548387095
1.6559139784946235
1.6275659824046922
1.6050830889540566
1.5786901270772238
1.541544477028348
1.5063538611925709
1.4809384164222874
1.452590420332356
1.41544477028348
1.383186705767351
1.3528836754643203
1.3255131964809383
1.300097751710655
1.2805474095796676
1.2649071358748778
1.2473118279569892
1.2297165200391007
1.2121212121212122
1.195503421309873
1.1798631476050832
1.1652003910068427
1.152492668621701
1.1407624633431086
1.1290322580645162
1.115347018572825
1.099706744868035
1.0899315738025417
1.0801564027370478
1.0869990224828934
1.1251221896383188
1.203323558162268
1.3264907135874875
1.5923753665689149
1.8025415444770283
2.021505376344086
2.337243401759531
2.495601173020528
2.616813294232649
2.724340175953079
2.807429130009776
2.866080156402737
2.902248289345064
2.917888563049853
2.9159335288367547
2.898338220918866
2.8670576735092865
2.823069403714565
2.766373411534702
2.705767350928641
2.6392961876832843
2.557184750733138
2.464320625610948
2.363636363636364
2.260019550342131
2.157380254154448
2.060606060606061
1.9726295210166176
1.8973607038123168
1.8377321603128052
1.7927663734115349
1.761485826001955
1.7429130009775171
1.7341153470185728
1.729227761485826
1.7282502443792769
1.7272727272727273
1.7253176930596286
1.721407624633431
1.7145650048875856
1.7028347996089932
1.6871945259042034
1.667644183773216
1.6451612903225807
1.6236559139784943
1.6021505376344083
1.5610948191593352
1.530791788856305
1.498533724340176
1.4320625610948192
1.3988269794721409
1.3665689149560116
1.3206256109481915
1.2913000977517106
1.262952101661779
1.2404692082111437
1.2218963831867058
1.2013685239491692
1.1798631476050832
1.160312805474096
1.142717497556207
1.1270772238514175
1.1133919843597262
1.1016617790811338
1.0918866080156402
1.083088954056696
1.075268817204301
1.0713587487781036
1.0694037145650048
1.0654936461388074
1.06158357771261
1.0576735092864125
1.0527859237536656
1.0469208211143697
1.0381231671554252
1.0263929618768328
1.013685239491691
1.0048875855327468
1.010752688172043
1.043010752688172
1.0977517106549364
1.1837732160312806
1.3225806451612905
1.5083088954056696
1.7282502443792769
1.964809384164223
2.198435972629521
2.4115347018572826
2.593352883675464
2.7390029325513194
2.8475073313782997
2.9237536656891496
2.9657869012707723
2.9853372434017595
2.992179863147605
2.986314760508309
2.9667644183773216
2.9335288367546437
2.887585532746823
2.8289345063538613
2.757575757575758
2.675464320625611
2.582600195503421
2.4819159335288368
2.377321603128055
2.283479960899316
2.1974584555229715
2.1094819159335287
2.0283479960899315
1.959921798631476
1.9042033235581624
1.8631476050830889
1.835777126099707
1.8191593352883677
1.8103616813294232
1.8064516129032255
1.8035190615835777
1.8005865102639296
1.796676441837732
1.7898338220918866
1.7790811339198436
1.7653958944281525
1.7468230694037146
1.7253176930596286
1.7008797653958945
1.6744868035190617
1.6451612903225807
1.6148582600195502
1.5826001955034212
1.5503421309872922
1.521994134897361
1.4965786901270772
1.4682306940371457
1.4389051808406648
1.409579667644184
1.380254154447703
1.3528836754643203
1.327468230694037
1.3040078201368523
1.2825024437927663
1.2649071358748778
1.249266862170088
1.2394916911045943
1.2336265884652982
1.2258064516129032
1.217008797653959
1.209188660801564
1.2013685239491692
1.1935483870967742
1.1857282502443791
1.1788856304985338
1.1730205278592376
1.1652003910068427
1.1564027370478984
1.1466275659824048
1.13880742913001
1.133919843597263
1.1319648093841643
1.142717497556207
1.1779081133919844
1.2482893450635386
1.3607038123167154
1.5141739980449658
1.7008797653958945
1.9090909090909087
2.121212121212121
2.320625610948192
2.47702834799609
2.5962854349951123
2.701857282502444
2.78494623655914
2.8426197458455524
2.875855327468231
2.887585532746823
2.8807429130009776
2.8582600195503423
2.822091886608016
2.771260997067449
2.70772238514174
2.641251221896383
2.56891495601173
2.482893450635386
2.3870967741935485
2.2854349951124147
2.1818181818181817
2.081133919843597
1.989247311827957
1.9090909090909087
1.844574780058651
1.7976539589442817
1.7653958944281525
1.7468230694037146
1.7380254154447703
1.7360703812316716
1.7390029325513197
1.7438905180840665
1.747800586510264
1.747800586510264
1.7429130009775171
1.7331378299120237
1.718475073313783
1.699902248289345
1.678396871945259
1.6549364613880744
1.6344086021505375
1.6138807429130009
1.5884652981427174
1.560117302052786
1.530791788856305
1.501466275659824
1.4711632453567938
1.4408602150537635
1.4105571847507332
1.3812316715542523
1.3528836754643203
1.3255131964809383
1.2991202346041055
1.278592375366569
1.262952101661779
1.2453567937438903
1.2287390029325511
1.2140762463343109
1.2013685239491692
1.1896383186705768
1.1779081133919844
1.1681329423264908
1.160312805474096
1.1534701857282503
1.1466275659824048
1.1436950146627567
1.142717497556207
1.1368523949169111
1.1280547409579669
1.115347018572825
1.1006842619745845
1.088954056695992
1.0899315738025417
1.115347018572825
1.1779081133919844
1.2854349951124144
1.4408602150537635
1.635386119257087
1.825024437927664
2.0097751710654936
2.2140762463343107
2.4115347018572826
2.5835777126099706
2.724340175953079
2.831867057673509
2.90811339198436
2.956989247311828
2.983382209188661
2.992179863147605
2.9853372434017595
2.964809384164223
2.9345063538611926
2.89247311827957
2.838709677419355
2.773216031280548
2.696969696969697
2.610948191593353
2.517106549364614
2.418377321603128
2.317693059628544
2.219941348973607
2.129032258064516
2.046920821114369
1.9824046920821117
1.932551319648094
1.889540566959922
1.8563049853372435
1.833822091886608
1.8201368523949168
1.812316715542522
1.8074291300097751
1.8025415444770283
1.796676441837732
1.7888563049853372
1.7771260997067448
1.7653958944281525
1.750733137829912
1.7311827956989247
1.70772238514174
1.6813294232649072
1.6529814271749756
1.6236559139784943
1.5923753665689149
1.560117302052786
1.5278592375366569
1.495601173020528
1.4623655913978495
1.4291300097751711
1.4027370478983383
1.380254154447703
1.3548387096774193
