ppg
1.563049853372434
1.70772238514174
1.8592375366568916
2.010752688172043
2.157380254154448
2.2932551319648096
2.40078201368524
2.4887585532746823
2.576735092864125
2.656891495601173
2.7262952101661777
2.782991202346041
2.827956989247312
2.8641251221896384
2.8905180840664717
2.9071358748778104
2.913978494623656
2.913000977517106
2.9012707722385143
2.881720430107527
2.8563049853372435
2.8211143695014664
2.776148582600196
2.719452590420332
2.654936461388074
2.5835777126099706
2.505376344086021
2.4242424242424243
2.3421309872922778
2.260019550342131
2.179863147605083
2.110459433040078
2.0498533724340176
1.988269794721408
1.9305962854349952
1.8797653958944285
1.836754643206256
1.7996089931573802
1.7683284457478006
1.7409579667644184
1.718475073313783
1.6979472140762464
1.6764418377321604
1.6578690127077225
1.6412512218963833
1.6236559139784943
1.603128054740958
1.581622678396872
1.5591397849462365
1.5376344086021505
1.5141739980449658
1.490713587487781
1.466275659824047
1.439882697947214
1.414467253176931
1.3900293255131966
1.3695014662756595
1.3519061583577712
1.332355816226784
1.310850439882698
1.289345063538612
1.2668621700879763
1.2443792766373412
1.2228739002932552
1.2023460410557183
1.1837732160312806
1.1652003910068427
1.147605083088954
1.1358748778103618
1.1270772238514175
1.1163245356793745
1.104594330400782
1.0918866080156402
1.0811339198435972
1.0703812316715542
1.0606060606060606
1.0527859237536656
1.0449657869012707
1.0371456500488758
1.0303030303030305
1.0234604105571847
1.0205278592375366
1.0195503421309873
1.0166177908113392
1.0127077223851415
1.007820136852395
1.002932551319648
0.9980449657869012
0.9941348973607038
0.9921798631476052
0.989247311827957
0.9872922776148584
0.9863147605083088
0.9872922776148584
0.9882697947214076
0.9863147605083088
0.9824046920821116
0.978494623655914
0.9745845552297164
0.9706744868035192
0.967741935483871
0.9648093841642228
0.9618768328445748
0.9608993157380256
0.9628543499511242
0.9706744868035192
0.989247311827957
1.0205278592375366
1.0703812316715542
1.141739980449658
1.2355816226783969
1.3509286412512218
1.4838709677419355
1.6304985337243405
1.7839687194525904
1.9374389051808407
2.086021505376344
2.2248289345063537
2.335288367546432
2.4242424242424243
2.5131964809384164
2.5943304007820136
2.6637341153470184
2.721407624633431
2.768328445747801
2.803519061583578
2.827956989247312
2.8426197458455524
2.8484848484848486
2.8455522971652005
2.832844574780059
2.811339198435973
2.7839687194525906
2.748778103616813
2.705767350928641
2.653958944281525
2.593352883675464
2.5249266862170088
2.4516129032258065
2.3743890518084068
2.2952101661779083
2.2160312805474094
2.139784946236559
2.074291300097752
2.016617790811339
1.9589442815249267
1.9042033235581624
1.8543499511241448
1.8113391984359728
1.7741935483870968
1.7419354838709675
1.7145650048875856
1.6901270772238517
1.6695992179863148
1.651026392961877
1.6363636363636365
1.6226783968719452
1.606060606060606
1.587487781036168
1.5679374389051808
1.547409579667644
1.525904203323558
1.504398826979472
1.4838709677419355
1.4633431085043989
1.4428152492668622
1.4222873900293256
1.4027370478983383
1.3861192570869991
1.3695014662756595
1.348973607038123
1.327468230694037
1.3069403714565004
1.2883675464320623
1.2697947214076246
1.252199413489736
1.2365591397849462
1.2218963831867058
1.2072336265884651
1.1925708699902249
1.181818181818182
1.1730205278592376
1.1622678396871946
1.1505376344086022
1.1397849462365592
1.1300097751710656
1.121212121212121
1.1124144672531768
1.104594330400782
1.096774193548387
1.088954056695992
1.0821114369501466
1.075268817204301
1.072336265884653
1.0713587487781036
1.0694037145650048
1.0664711632453567
1.0635386119257086
1.06158357771261
1.0586510263929618
1.0547409579667644
1.050830889540567
1.0469208211143697
1.0439882697947214
1.0420332355816226
1.0439882697947214
1.0478983382209188
1.0498533724340176
1.050830889540567
1.050830889540567
1.0498533724340176
1.0478983382209188
1.0439882697947214
1.040078201368524
1.035190615835777
1.0303030303030305
1.0254154447702837
1.0224828934506354
1.0263929618768328
1.0381231671554252
1.06158357771261
1.099706744868035
1.1564027370478984
1.2355816226783969
1.3362658846529814
1.455522971652004
1.5894428152492668
1.7331378299120237
1.8797653958944285
2.0254154447702835
2.146627565982405
2.249266862170088
2.3548387096774195
2.455522971652004
2.5464320625610948
2.6265884652981426
2.6940371456500487
2.750733137829912
2.7966764418377323
2.83088954056696
2.855327468230694
2.8690127077223853
2.873900293255132
2.868035190615836
2.8533724340175954
2.831867057673509
2.803519061583578
2.768328445747801
2.724340175953079
2.6725317693059627
2.6129032258064515
2.5454545454545454
2.4731182795698925
2.3978494623655915
2.321603128054741
2.254154447702835
2.1925708699902247
2.129032258064516
2.067448680351906
2.010752688172043
1.959921798631476
1.9159335288367547
1.87683284457478
1.8435972629521016
1.81524926686217
1.7898338220918866
1.7663734115347018
1.7438905180840665
1.7253176930596286
1.7086999022482894
1.6901270772238517
1.6705767350928642
1.6520039100684265
1.632453567937439
1.611925708699902
1.5894428152492668
1.565982404692082
1.541544477028348
1.517106549364614
1.4946236559139785
1.47702834799609
1.4604105571847508
1.4408602150537635
1.4203323558162269
1.3988269794721409
1.375366568914956
1.3519061583577712
1.3294232649071358
1.3088954056695992
1.2903225806451613
1.2727272727272727
1.2551319648093842
1.238514173998045
1.2267839687194526
1.217008797653959
1.2052785923753666
1.1945259042033236
1.1837732160312806
1.173998044965787
1.1652003910068427
1.155425219941349
1.1466275659824048
1.1378299120234605
1.1290322580645162
1.1202346041055715
1.115347018572825
1.1124144672531768
1.10752688172043
1.1006842619745845
1.0948191593352885
1.088954056695992
1.083088954056696
1.078201368523949
1.0742913000977516
1.0703812316715542
1.0664711632453567
1.0625610948191593
1.06158357771261
1.0625610948191593
1.0606060606060606
1.0586510263929618
1.0576735092864125
1.056695992179863
1.056695992179863
1.0547409579667644
1.0518084066471165
1.0488758553274682
1.0449657869012707
1.043010752688172
1.043010752688172
1.0488758553274682
1.06158357771261
1.0850439882697946
1.1241446725317692
1.1837732160312806
1.2649071358748778
1.367546432062561
1.4887585532746823
1.624633431085044
1.7673509286412512
1.9130009775171064
2.0547409579667644
2.172043010752688
2.271749755620724
2.3743890518084068
2.4711632453567938
2.558162267839687
2.632453567937439
2.6940371456500487
2.7438905180840663
2.782991202346041
2.8132942326490715
2.834799608993157
2.8484848484848486
2.855327468230694
2.850439882697948
2.835777126099707
2.8152492668621703
2.7869012707722387
2.7497556207233624
2.7038123167155423
2.6510263929618767
2.590420332355816
2.5239491691104594
2.452590420332356
2.3792766373411536
2.304985337243402
2.2385141739980448
2.177908113391984
2.1163245356793743
2.0557184750733137
2.0
1.9501466275659824
1.9071358748778104
1.869012707722385
1.836754643206256
1.8093841642228736
1.7859237536656891
1.7644183773216031
1.7448680351906158
1.7272727272727273
1.710654936461388
1.6920821114369502
1.672531769305963
1.6529814271749756
1.6314760508308896
1.6099706744868034
1.587487781036168
1.565982404692082
1.544477028347996
1.521994134897361
1.499511241446725
1.4809384164222874
1.4633431085043989
1.444770283479961
1.4252199413489737
1.4066471163245358
1.388074291300098
1.3695014662756595
1.3499511241446724
1.3304007820136852
1.3128054740957966
1.2961876832844574
1.2805474095796676
1.2658846529814272
1.2541544477028348
1.2443792766373412
1.2326490713587488
1.2209188660801564
1.2082111436950147
1.1945259042033236
1.181818181818182
1.1710654936461389
1.1612903225806452
1.152492668621701
1.144672531769306
1.1358748778103618
1.130987292277615
1.1280547409579669
1.1221896383186705
1.1163245356793745
1.110459433040078
1.104594330400782
1.099706744868035
1.0957966764418376
1.0909090909090908
1.0869990224828934
1.083088954056696
1.0801564027370478
1.0772238514173995
1.0772238514173995
1.078201368523949
1.0772238514173995
1.075268817204301
1.0742913000977516
1.072336265884653
1.0684261974584557
1.0635386119257086
1.0586510263929618
1.0547409579667644
1.0547409579667644
1.06158357771261
1.0762463343108504
1.1036168132942326
1.1485826001955035
1.2140762463343109
1.303030303030303
1.414467253176931
1.5454545454545454
1.6911045943304008
1.8465298142717497
2.004887585532747
2.160312805474096
2.3069403714565007
2.439882697947214
2.5434995112414467
2.625610948191593
2.705767350928641
2.779081133919844
2.844574780058651
2.900293255131965
2.946236559139785
2.981427174975562
3.005865102639296
3.021505376344086
3.0283479960899315
3.024437927663734
3.0097751710654936
2.9872922776148583
2.9579667644183774
2.920821114369501
2.875855327468231
2.8240469208211145
2.763440860215054
2.6959921798631474
2.622678396871945
2.5454545454545454
2.466275659824047
2.389051808406647
2.314760508308896
2.2502443792766376
2.193548387096774
2.1378299120234603
2.0869990224828934
2.042033235581622
2.002932551319648
1.9687194525904204
1.9393939393939397
1.913978494623656
1.8905180840664717
1.868035190615836
1.8465298142717497
1.8269794721407624
1.8093841642228736
1.7888563049853372
1.7673509286412512
1.7458455522971652
1.7243401759530792
1.7038123167155426
1.6823069403714566
1.6608015640273706
1.6373411534701858
1.6138807429130009
1.5913978494623655
1.56891495601173
1.5503421309872922
1.5327468230694037
1.512218963831867
1.4916911045943304
1.4711632453567938
1.4506353861192571
1.4320625610948192
1.414467253176931
1.3978494623655917
1.3822091886608017
1.3665689149560116
1.3509286412512218
1.33822091886608
1.3284457478005864
1.316715542521994
1.3040078201368523
1.2932551319648091
1.284457478005865
1.2756598240469208
1.267839687194526
1.2590420332355816
1.2512218963831867
1.2434017595307918
1.2375366568914956
1.2316715542521994
1.2287390029325511
1.2267839687194526
1.2238514173998043
1.219941348973607
1.2179863147605083
1.217008797653959
1.2150537634408602
1.2130987292277615
1.2111436950146628
1.209188660801564
1.206256109481916
1.203323558162268
1.203323558162268
1.2043010752688172
1.2043010752688172
1.203323558162268
1.1994134897360704
1.195503421309873
1.1906158357771262
1.1857282502443791
1.181818181818182
1.181818181818182
1.1886608015640274
1.2082111436950147
1.238514173998045
1.2825024437927663
1.3519061583577712
1.444770283479961
1.5591397849462365
1.6920821114369502
1.8387096774193548
1.9931573802541545
2.1485826001955037
2.2991202346041058
2.4379276637341154
2.563049853372434
2.673509286412512
2.755620723362659
2.819159335288368
2.881720430107527
2.93841642228739
2.986314760508309
3.0254154447702835
3.0547409579667644
3.075268817204301
3.0879765395894427
3.09188660801564
3.0879765395894427
3.0762463343108504
3.053763440860215
3.022482893450636
2.9824046920821115
2.9335288367546437
2.87683284457478
2.811339198435973
2.73802541544477
2.6578690127077222
2.573802541544477
2.487781036168133
2.4027370478983383
2.320625610948192
2.2453567937438903
2.1818181818181817
2.1270772238514173
2.0733137829912023
2.024437927663734
1.9804496578690127
1.9413489736070384
1.90811339198436
1.8797653958944285
1.8543499511241448
1.828934506353861
1.804496578690127
1.780058651026393
1.758553274682307
1.7380254154447703
1.7145650048875856
1.6901270772238517
1.6656891495601174
1.6412512218963833
1.6158357771260996
1.5894428152492668
1.563049853372434
1.5356793743890518
1.509286412512219
1.4838709677419355
1.457478005865103
1.4349951124144673
1.4164222873900294
1.3949169110459434
1.3714565004887584
1.3499511241446724
1.3294232649071358
1.3098729227761483
1.289345063538612
1.2688172043010753
1.249266862170088
1.2297165200391007
1.2111436950146628
1.198435972629521
1.187683284457478
1.1749755620723363
1.1622678396871946
1.1495601173020529
1.1368523949169111
1.126099706744868
1.1163245356793745
1.10752688172043
1.0987292277614855
1.0909090909090908
1.083088954056696
1.0762463343108504
1.0733137829912025
1.0713587487781036
1.0684261974584557
1.0635386119257086
1.0586510263929618
1.053763440860215
1.0488758553274682
1.0439882697947214
1.0391006842619743
1.0361681329423265
1.0342130987292275
1.032258064516129
1.032258064516129
1.032258064516129
1.0303030303030305
1.0263929618768328
1.021505376344086
1.0156402737047898
1.0087976539589445
1.0019550342130987
1.0
1.0058651026392962
1.0224828934506354
1.0527859237536656
1.1006842619745845
1.1583577712609971
1.227761485826002
1.3235581622678396
1.439882697947214
1.5718475073313782
1.7145650048875856
1.86119257086999
2.005865102639296
2.142717497556207
2.267839687194526
2.3792766373411536
2.4780058651026398
2.5513196480938416
2.606060606060606
2.658846529814272
2.704789833822092
2.7438905180840663
2.774193548387097
2.793743890518084
2.803519061583578
2.8054740957966766
2.80058651026393
2.7859237536656893
2.763440860215054
2.7311827956989245
2.69208211143695
2.6480938416422286
2.595307917888563
2.533724340175953
2.4652981427174976
2.3919843597262958
2.314760508308896
2.2355816226783967
2.158357771260997
2.0840664711632453
2.0146627565982405
1.9521016617790807
1.9012707722385145
1.857282502443793
1.8162267839687196
1.7790811339198436
1.7468230694037146
1.718475073313783
1.694037145650049
1.672531769305963
1.6529814271749756
1.635386119257087
1.6177908113391983
1.5992179863147604
1.581622678396872
1.565982404692082
1.5513196480938416
1.5327468230694037
1.5112414467253177
1.487781036168133
1.4623655913978495
1.4349951124144673
1.409579667644184
1.3861192570869991
1.3626588465298142
1.3411534701857282
1.321603128054741
1.3069403714565004
1.2942326490713587
1.278592375366569
1.2619745845552297
1.2453567937438903
1.2297165200391007
1.2140762463343109
1.198435972629521
1.1837732160312806
1.1691104594330402
1.155425219941349
1.141739980449658
1.1290322580645162
1.1202346041055715
1.1133919843597262
1.104594330400782
1.0957966764418376
1.0879765395894427
1.0811339198435972
1.0742913000977516
1.067448680351906
1.0606060606060606
1.0547409579667644
1.0488758553274682
1.0439882697947214
1.0420332355816226
1.0420332355816226
1.040078201368524
1.0371456500488758
1.035190615835777
1.032258064516129
1.0303030303030305
1.0273704789833822
1.0224828934506354
1.0175953079178883
1.013685239491691
1.010752688172043
1.007820136852395
1.007820136852395
1.0087976539589445
1.0068426197458455
1.0039100684261977
1.0
0.9980449657869012
0.997067448680352
1.0009775171065494
1.013685239491691
1.0410557184750733
1.0869990224828934
1.1544477028347997
1.2297165200391007
1.316715542521994
1.4301075268817205
1.5610948191593352
1.7018572825024438
1.8455522971652003
1.986314760508309
2.120234604105572
2.242424242424242
2.3528836754643208
2.449657869012708
2.532746823069404
2.593352883675464
2.6373411534701856
2.679374389051808
2.7145650048875853
2.740957966764418
2.758553274682307
2.76930596285435
2.7702834799608995
2.7624633431085046
2.7468230694037143
2.7223851417399803
2.689149560117302
2.6471163245356792
2.601173020527859
2.5513196480938416
2.493646138807429
2.4281524926686218
2.355816226783969
2.281524926686217
2.206256109481916
2.133919843597263
2.064516129032258
2.0019550342130987
1.945259042033236
1.8944281524926687
1.8533724340175952
1.8201368523949168
1.7869012707722385
1.7565982404692082
1.7302052785923754
1.7067448680351909
1.6842619745845553
1.6637341153470186
1.6441837732160314
1.6256109481915937
1.607038123167155
1.587487781036168
1.5669599217986314
1.5503421309872922
1.5347018572825024
1.5151515151515151
1.4936461388074291
1.4711632453567938
1.4486803519061584
1.426197458455523
1.4037145650048877
1.3822091886608017
1.3607038123167154
1.3391984359726294
1.3176930596285434
1.3020527859237536
1.289345063538612
1.273704789833822
1.2580645161290325
1.2424242424242424
1.227761485826002
1.2130987292277615
1.198435972629521
1.1837732160312806
1.1691104594330402
1.1564027370478984
1.144672531769306
1.1348973607038124
1.1290322580645162
1.1251221896383188
1.1192570869990224
1.1124144672531768
1.1065493646138806
1.099706744868035
1.093841642228739
1.088954056695992
1.0840664711632453
1.0801564027370478
1.0762463343108504
1.072336265884653
1.072336265884653
1.0733137829912025
1.072336265884653
1.0713587487781036
1.0694037145650048
1.0684261974584557
1.067448680351906
1.067448680351906
1.067448680351906
1.067448680351906
1.067448680351906
1.067448680351906
1.0654936461388074
1.0654936461388074
1.0664711632453567
1.064516129032258
1.0606060606060606
1.056695992179863
1.0547409579667644
1.056695992179863
1.0654936461388074
1.086021505376344
1.1231671554252198
1.1788856304985338
1.2570869990224829
1.3421309872922775
1.435972629521017
1.555229716520039
1.689149560117302
1.8318670576735088
1.975562072336266
2.115347018572825
2.247311827956989
2.367546432062561
2.4750733137829912
2.5698924731182795
2.6510263929618767
2.719452590420332
2.7653958944281527
2.7976539589442817
2.8289345063538613
2.854349951124145
2.8719452590420333
2.8797653958944283
2.878787878787879
2.8699902248289346
2.852394916911046
2.825024437927664
2.789833822091887
2.745845552297165
2.697947214076246
2.64613880742913
2.606060606060606
2.56891495601173
2.509286412512219
2.4379276637341154
2.361681329423265
2.2844574780058653
2.209188660801564
2.1388074291300097
2.074291300097752
2.016617790811339
1.9657869012707725
1.9257086999022484
1.8914956011730208
1.8602150537634408
1.833822091886608
1.8103616813294232
1.7888563049853372
1.76930596285435
1.750733137829912
1.7302052785923754
1.7086999022482894
1.686217008797654
1.6627565982404693
1.6422287390029326
1.6207233626588464
1.5962854349951123
1.5708699902248289
1.544477028347996
1.5180840664711632
1.4936461388074291
1.469208211143695
1.4457478005865103
1.423264907135875
1.4007820136852396
1.3792766373411536
1.3577712609970674
1.3401759530791788
1.3264907135874875
1.3098729227761483
1.29227761485826
1.273704789833822
1.2551319648093842
1.2375366568914956
1.2209188660801564
1.2043010752688172
1.1886608015640274
1.1749755620723363
1.1622678396871946
1.155425219941349
1.1505376344086022
1.142717497556207
1.1348973607038124
1.1270772238514175
1.1192570869990224
1.1114369501466277
1.104594330400782
1.0977517106549364
1.0909090909090908
1.086021505376344
1.083088954056696
1.0801564027370478
1.0801564027370478
1.0821114369501466
1.0821114369501466
1.0811339198435972
1.0791788856304985
1.0772238514173995
1.0762463343108504
1.0762463343108504
1.0762463343108504
1.078201368523949
1.0801564027370478
1.0821114369501466
1.0850439882697946
1.0899315738025417
1.0909090909090908
1.0909090909090908
1.088954056695992
1.0879765395894427
1.0879765395894427
1.0948191593352885
1.1124144672531768
1.1466275659824048
1.198435972629521
1.2727272727272727
1.3548387096774193
1.4496578690127078
1.5708699902248289
1.710654936461388
1.8602150537634408
2.013685239491691
2.164222873900293
2.3059628543499517
2.4349951124144678
2.549364613880743
2.650048875855328
2.7370478983382207
2.8103616813294234
2.8611925708699903
2.897360703812317
2.9315738025415445
2.959921798631476
2.981427174975562
2.994134897360704
2.9980449657869013
2.994134897360704
2.981427174975562
2.9579667644183774
2.9237536656891496
2.878787878787879
2.8289345063538613
2.771260997067449
2.702834799608993
2.6265884652981426
2.5454545454545454
2.462365591397849
2.380254154447703
2.300097751710655
2.2238514173998043
2.1524926686217007
2.0879765395894427
2.0303030303030303
1.9794721407624636
1.9393939393939397
1.905180840664712
1.873900293255132
1.8455522971652003
1.8191593352883677
1.793743890518084
1.76930596285435
1.7468230694037146
1.7253176930596286
1.704789833822092
1.6842619745845553
1.664711632453568
1.6480938416422288
1.632453567937439
1.6129032258064515
1.5913978494623655
1.5679374389051808
1.542521994134897
1.517106549364614
1.4926686217008798
1.4682306940371457
1.444770283479961
1.4222873900293256
1.4007820136852396
1.3792766373411536
1.3616813294232648
1.3470185728250244
1.332355816226784
1.3157380254154447
1.2991202346041055
1.2825024437927663
1.2668621700879763
1.252199413489736
1.238514173998045
1.2258064516129032
1.2130987292277615
1.2013685239491692
1.1935483870967742
1.187683284457478
1.1808406647116323
1.1730205278592376
1.1652003910068427
1.1583577712609971
1.152492668621701
1.1466275659824048
1.142717497556207
1.13880742913001
1.1358748778103618
1.1329423264907137
1.1300097751710656
1.1300097751710656
1.130987292277615
1.130987292277615
1.1290322580645162
1.1270772238514175
1.1241446725317692
1.1221896383186705
1.1202346041055715
1.1192570869990224
1.1192570869990224
1.118279569892473
1.1173020527859236
1.1202346041055715
1.1221896383186705
1.1221896383186705
1.121212121212121
1.1202346041055715
1.1202346041055715
1.1241446725317692
1.1378299120234605
1.1652003910068427
1.2111436950146628
1.278592375366569
1.3685239491691104
1.4819159335288368
1.5943304007820136
1.710654936461388
1.8504398826979471
2.0019550342130987
2.155425219941349
2.304007820136853
2.442815249266862
2.567937438905181
2.679374389051808
2.776148582600196
2.859237536656892
2.929618768328446
2.9775171065493646
3.0097751710654936
3.040078201368524
3.064516129032258
3.083088954056696
3.0948191593352883
3.0977517106549364
3.09188660801564
3.0762463343108504
3.050830889540567
3.016617790811339
2.9716520039100685
2.916911045943304
2.8582600195503423
2.795698924731183
2.724340175953079
2.6471163245356792
2.5669599217986314
2.486803519061584
2.409579667644184
2.335288367546432
2.2658846529814274
2.203323558162268
2.147605083088954
2.099706744868035
2.059628543499511
2.0254154447702835
1.9931573802541545
1.962854349951124
1.9364613880742916
1.9120234604105573
1.889540566959922
1.8670576735092863
1.8455522971652003
1.8240469208211143
1.801564027370479
1.7781036168132942
1.7546432062561097
1.7331378299120237
1.7126099706744868
1.689149560117302
1.6656891495601174
1.6422287390029326
1.6187683284457477
1.5943304007820136
1.5698924731182795
1.5249266862170088
1.4711632453567938
1.434017595307918
1.4056695992179864
1.3851417399804498
1.367546432062561
1.3499511241446724
1.3333333333333333
1.3176930596285434
1.3020527859237536
1.2854349951124144
1.2697947214076246
1.2551319648093842
1.2394916911045943
1.2238514173998043
1.2082111436950147
1.1935483870967742
1.1827956989247312
1.1759530791788857
1.1671554252199414
1.1573802541544478
1.147605083088954
1.13880742913001
1.130987292277615
1.1251221896383188
1.1192570869990224
1.1133919843597262
1.1085043988269794
1.1026392961876832
1.099706744868035
1.0987292277614855
1.0957966764418376
1.0918866080156402
1.0869990224828934
1.0840664711632453
1.0811339198435972
1.078201368523949
1.075268817204301
1.072336265884653
1.0694037145650048
1.067448680351906
1.064516129032258
1.064516129032258
1.0654936461388074
1.0635386119257086
1.0596285434995112
1.056695992179863
1.0557184750733135
1.06158357771261
1.078201368523949
1.1114369501466277
1.163245356793744
1.238514173998045
1.33822091886608
1.4408602150537635
1.5503421309872922
1.686217008797654
1.8347996089931573
1.986314760508309
2.132942326490713
2.2688172043010755
2.391006842619746
2.498533724340176
2.592375366568915
2.6725317693059627
2.7390029325513194
2.7839687194525906
2.814271749755621
2.843597262952102
2.8670576735092865
2.8826979472140764
2.8905180840664717
2.889540566959922
2.8807429130009776
2.863147605083089
2.835777126099707
