ppg
2.2873900293255134
2.3743890518084068
2.4516129032258065
2.5190615835777126
2.5777126099706744
2.619745845552297
2.6529814271749754
2.687194525904203
2.718475073313783
2.748778103616813
2.7751710654936463
2.7996089931573804
2.820136852394917
2.8377321603128056
2.850439882697948
2.859237536656892
2.863147605083089
2.859237536656892
2.8484848484848486
2.833822091886608
2.8132942326490715
2.7869012707722387
2.752688172043011
2.710654936461388
2.66177908113392
2.606060606060606
2.5434995112414467
2.4750733137829912
2.4027370478983383
2.3304007820136854
2.2658846529814274
2.206256109481916
2.1436950146627565
2.0840664711632453
2.029325513196481
1.978494623655914
1.9335288367546437
1.89247311827957
1.8563049853372435
1.823069403714565
1.7917888563049853
1.7605083088954057
1.7331378299120237
1.70772238514174
1.6803519061583578
1.6500488758553276
1.6177908113391983
1.5826001955034212
1.5464320625610948
1.5102639296187683
1.4750733137829912
1.4418377321603129
1.409579667644184
1.3773216031280548
1.3450635386119256
1.3147605083088951
1.29227761485826
1.2746823069403714
1.2541544477028348
1.2336265884652982
1.2130987292277615
1.1935483870967742
1.1759530791788857
1.1583577712609971
1.141739980449658
1.126099706744868
1.1124144672531768
1.1026392961876832
1.0948191593352885
1.0850439882697946
1.0742913000977516
1.0625610948191593
1.0518084066471165
1.040078201368524
1.0283479960899315
1.0175953079178883
1.0058651026392962
0.9951124144672532
0.9863147605083088
0.9824046920821116
0.9882697947214076
1.0048875855327468
1.035190615835777
1.1065493646138806
1.18475073313783
1.252199413489736
1.3479960899315735
1.4613880742913
1.5865102639296187
1.7174975562072337
1.8484848484848484
1.9745845552297163
2.0791788856304985
2.167155425219941
2.2561094819159337
2.3391984359726297
2.4134897360703813
2.4780058651026398
2.5434995112414467
2.5962854349951123
2.63049853372434
2.6637341153470184
2.7008797653958942
2.7331378299120237
2.755620723362659
2.771260997067449
2.78494623655914
2.7976539589442817
2.8054740957966766
2.8103616813294234
2.811339198435973
2.8084066471163247
2.80058651026393
2.78494623655914
2.748778103616813
2.6959921798631474
2.6451612903225805
2.6099706744868034
2.558162267839687
2.4780058651026398
2.39980449657869
2.3421309872922778
2.278592375366569
2.1945259042033234
2.1358748778103616
2.078201368523949
2.0087976539589443
1.9521016617790807
1.905180840664712
1.868035190615836
1.8377321603128052
1.8084066471163245
1.780058651026393
1.750733137829912
1.7204301075268815
1.6901270772238517
1.6588465298142718
1.6265884652981428
1.5943304007820136
1.5620723362658846
1.5288367546432062
1.500488758553275
1.474095796676442
1.4437927663734116
1.412512218963832
1.380254154447703
1.3479960899315735
1.3186705767350928
1.29227761485826
1.2727272727272727
1.252199413489736
1.224828934506354
1.2013685239491692
1.1788856304985338
1.1622678396871946
1.1495601173020529
1.1348973607038124
1.121212121212121
1.1085043988269794
1.0957966764418376
1.0840664711632453
1.078201368523949
1.0762463343108504
1.0713587487781036
1.064516129032258
1.0557184750733135
1.0518084066471165
1.0498533724340176
1.043010752688172
1.032258064516129
1.0205278592375366
1.0068426197458455
0.9951124144672532
0.9863147605083088
0.9843597262952102
0.9931573802541545
1.0175953079178883
1.0606060606060606
1.1241446725317692
1.1964809384164223
1.278592375366569
1.383186705767351
1.504398826979472
1.6344086021505375
1.76930596285435
1.9042033235581624
2.032258064516129
2.150537634408602
2.2551319648093844
2.346041055718475
2.4252199413489737
2.4838709677419355
2.5288367546432062
2.572825024437928
2.613880742913001
2.6510263929618767
2.684261974584555
2.713587487781036
2.739980449657869
2.763440860215054
2.782991202346041
2.7976539589442817
2.809384164222874
2.8132942326490715
2.811339198435973
2.807429130009776
2.7996089931573804
2.78494623655914
2.7624633431085046
2.732160312805474
2.6940371456500487
2.6471163245356792
2.591397849462365
2.5288367546432062
2.4613880742913
2.391006842619746
2.3274682306940373
2.2688172043010755
2.207233626588465
2.146627565982405
2.089931573802541
2.038123167155425
1.991202346041056
1.948191593352884
1.9090909090909087
1.8748778103616808
1.8435972629521016
1.8142717497556209
1.7898338220918866
1.7673509286412512
1.7419354838709675
1.7135874877810362
1.6842619745845553
1.653958944281525
1.6207233626588464
1.585532746823069
1.5503421309872922
1.5141739980449658
1.479960899315738
1.447702834799609
1.4164222873900294
1.391006842619746
1.3695014662756595
1.346041055718475
1.321603128054741
1.2971652003910068
1.273704789833822
1.2531769305962854
1.2336265884652982
1.2160312805474096
1.1994134897360704
1.1837732160312806
1.1700879765395895
1.1612903225806452
1.155425219941349
1.1466275659824048
1.1358748778103618
1.1251221896383188
1.1133919843597262
1.1006842619745845
1.088954056695992
1.0772238514173995
1.067448680351906
1.0576735092864125
1.0478983382209188
1.0381231671554252
1.0332355816226784
1.0312805474095796
1.0283479960899315
1.029325513196481
1.0391006842619743
1.0606060606060606
1.0987292277614855
1.155425219941349
1.2336265884652982
1.3313782991202343
1.447702834799609
1.576735092864125
1.694037145650049
1.8064516129032255
1.9315738025415443
2.058651026392962
2.1808406647116323
2.2932551319648096
2.3919843597262958
2.47702834799609
2.549364613880743
2.610948191593353
2.662756598240469
2.7067448680351904
2.744868035190616
2.7722385141739982
2.791788856304985
2.8132942326490715
2.834799608993157
2.854349951124145
2.8699902248289346
2.8826979472140764
2.89247311827957
2.898338220918866
2.8993157380254155
2.8944281524926687
2.8826979472140764
2.865102639296188
2.8406647116324537
2.809384164222874
2.76930596285435
2.719452590420332
2.6637341153470184
2.6021505376344085
2.536656891495601
2.4682306940371457
2.39980449657869
2.3313782991202348
2.2658846529814274
2.204301075268817
2.1524926686217007
2.1065493646138806
2.06158357771261
2.0205278592375366
1.9833822091886608
1.949169110459433
1.9159335288367547
1.881720430107527
1.847507331378299
1.8132942326490715
1.780058651026393
1.747800586510264
1.721407624633431
1.6959921798631477
1.6656891495601174
1.6334310850439884
1.6011730205278591
1.56891495601173
1.5366568914956011
1.5053763440860215
1.4750733137829912
1.4467253176930597
1.4203323558162269
1.393939393939394
1.3695014662756595
1.3509286412512218
1.335288367546432
1.3176930596285434
1.300097751710655
1.2825024437927663
1.2658846529814272
1.2502443792766371
1.2346041055718475
1.2189638318670577
1.203323558162268
1.1886608015640274
1.173998044965787
1.1652003910068427
1.1593352883675463
1.1515151515151516
1.144672531769306
1.1378299120234605
1.1319648093841643
1.1251221896383188
1.118279569892473
1.1094819159335287
1.0987292277614855
1.0879765395894427
1.0772238514173995
1.067448680351906
1.0625610948191593
1.06158357771261
1.0586510263929618
1.0586510263929618
1.0635386119257086
1.0791788856304985
1.1094819159335287
1.1583577712609971
1.2297165200391007
1.3225806451612905
1.435972629521017
1.5669599217986314
1.689149560117302
1.8084066471163245
1.943304007820137
2.081133919843597
2.2140762463343107
2.3362658846529816
2.4457478005865103
2.5434995112414467
2.6295210166177907
2.7038123167155423
2.766373411534702
2.8211143695014664
2.8690127077223853
2.903225806451613
2.929618768328446
2.9589442815249267
2.989247311827957
3.018572825024438
3.04594330400782
3.069403714565005
3.088954056695992
3.103616813294233
3.112414467253177
3.1163245356793743
3.114369501466276
3.104594330400782
3.0869990224828934
3.0664711632453567
3.0391006842619745
3.003910068426197
2.960899315738025
2.911045943304008
2.855327468230694
2.791788856304985
2.7223851417399803
2.650048875855328
2.5747800586510263
2.504398826979472
2.4389051808406648
2.3548387096774195
2.2658846529814274
2.193548387096774
2.132942326490713
2.081133919843597
2.0361681329423265
1.9951124144672527
1.956989247311828
1.9227761485826005
1.889540566959922
1.8563049853372435
1.827956989247312
1.8025415444770283
1.772238514173998
1.7390029325513197
1.704789833822092
1.6705767350928642
1.6363636363636365
1.603128054740958
1.5698924731182795
1.5376344086021505
1.5053763440860215
1.4731182795698925
1.447702834799609
1.426197458455523
1.4027370478983383
1.3782991202346042
1.3548387096774193
1.3313782991202343
1.3088954056695992
1.2873900293255132
1.267839687194526
1.2473118279569892
1.227761485826002
1.2101661779081134
1.1935483870967742
1.1827956989247312
1.1759530791788857
1.1671554252199414
1.1573802541544478
1.147605083088954
1.13880742913001
1.1300097751710656
1.1192570869990224
1.1085043988269794
1.0977517106549364
1.0879765395894427
1.0791788856304985
1.075268817204301
1.0733137829912025
1.067448680351906
1.0606060606060606
1.0527859237536656
1.0469208211143697
1.0449657869012707
1.0518084066471165
1.0703812316715542
1.104594330400782
1.1573802541544478
1.2297165200391007
1.321603128054741
1.4134897360703813
1.5102639296187683
1.6256109481915937
1.7526881720430108
1.8826979472140764
2.0097751710654936
2.1309872922776147
2.242424242424242
2.3411534701857284
2.4281524926686218
2.5024437927663734
2.5669599217986314
2.6148582600195502
2.6529814271749754
2.6930596285435
2.7331378299120237
2.7702834799608995
2.8044965786901277
2.835777126099707
2.863147605083089
2.887585532746823
2.909090909090909
2.9257086999022484
2.93841642228739
2.946236559139785
2.9442815249266863
2.936461388074292
2.9266862170087977
2.9120234604105573
2.8914956011730206
2.865102639296188
2.83088954056696
2.788856304985337
2.739980449657869
2.684261974584555
2.6207233626588464
2.5532746823069403
2.489736070381232
2.4281524926686218
2.361681329423265
2.2952101661779083
2.231671554252199
2.1710654936461387
2.115347018572825
2.0635386119257086
2.016617790811339
1.9736070381231672
1.935483870967742
1.900293255131965
1.8670576735092863
1.8387096774193548
1.812316715542522
1.7839687194525904
1.75366568914956
1.7223851417399805
1.689149560117302
1.656891495601173
1.624633431085044
1.5923753665689149
1.560117302052786
1.5268817204301075
1.4936461388074291
1.466275659824047
1.4428152492668622
1.41544477028348
1.388074291300098
1.3616813294232648
1.3362658846529814
1.3128054740957966
1.2903225806451613
1.2688172043010753
1.249266862170088
1.2316715542521994
1.2150537634408602
1.1994134897360704
1.187683284457478
1.1798631476050832
1.1700879765395895
1.1593352883675463
1.1485826001955035
1.1378299120234605
1.126099706744868
1.1143695014662756
1.1036168132942326
1.093841642228739
1.0850439882697946
1.0762463343108504
1.072336265884653
1.0703812316715542
1.064516129032258
1.0576735092864125
1.0498533724340176
1.0439882697947214
1.0439882697947214
1.0527859237536656
1.072336265884653
1.10752688172043
1.1622678396871946
1.2346041055718475
1.3255131964809383
1.4173998044965788
1.5131964809384164
1.6285434995112416
1.7526881720430108
1.8797653958944285
2.002932551319648
2.118279569892473
2.2248289345063537
2.320625610948192
2.404692082111437
2.4789833822091887
2.5425219941348973
2.589442815249267
2.625610948191593
2.6637341153470184
2.701857282502444
2.7370478983382207
2.76930596285435
2.7976539589442817
2.823069403714565
2.843597262952102
2.860215053763441
2.8729227761485827
2.8826979472140764
2.887585532746823
2.8836754643206257
2.8729227761485827
2.859237536656892
2.8406647116324537
2.814271749755621
2.780058651026393
2.740957966764418
2.695014662756598
2.641251221896383
2.5806451612903225
2.5141739980449658
2.443792766373412
2.377321603128055
2.315738025415445
2.251221896383187
2.1867057673509285
2.126099706744868
2.069403714565005
2.0195503421309877
1.975562072336266
1.9364613880742916
1.9012707722385145
1.8699902248289344
1.839687194525904
1.8103616813294232
1.7849462365591398
1.761485826001955
1.7350928641251222
1.7067448680351909
1.678396871945259
1.6480938416422288
1.6177908113391983
1.5865102639296187
1.555229716520039
1.52297165200391
1.490713587487781
1.4594330400782014
1.4330400782013686
1.4115347018572826
1.388074291300098
1.3636363636363635
1.3401759530791788
1.3176930596285434
1.295210166177908
1.2746823069403714
1.2541544477028348
1.2346041055718475
1.217008797653959
1.2003910068426198
1.1896383186705768
1.181818181818182
1.1730205278592376
1.1622678396871946
1.1515151515151516
1.1407624633431086
1.1290322580645162
1.1173020527859236
1.104594330400782
1.0928641251221896
1.0821114369501466
1.0713587487781036
1.0596285434995112
1.0518084066471165
1.0469208211143697
1.0391006842619743
1.0303030303030305
1.0234604105571847
1.021505376344086
1.0283479960899315
1.0478983382209188
1.0821114369501466
1.1329423264907137
1.206256109481916
1.2991202346041055
1.392961876832845
1.490713587487781
1.6080156402737047
1.7341153470185728
1.8631476050830889
1.988269794721408
2.104594330400782
2.2111436950146626
2.3069403714565007
2.391006842619746
2.462365591397849
2.52297165200391
2.5747800586510263
2.611925708699902
2.641251221896383
2.6725317693059627
2.702834799608993
2.732160312805474
2.7595307917888565
2.782991202346041
2.803519061583578
2.819159335288368
2.83088954056696
2.838709677419355
2.841642228739003
2.8367546432062563
2.8260019550342133
2.8103616813294234
2.788856304985337
2.7595307917888565
2.721407624633431
2.675464320625611
2.621700879765396
2.5610948191593352
2.4946236559139785
2.4252199413489737
2.35386119257087
2.283479960899316
2.2218963831867056
2.166177908113392
2.1094819159335287
2.0547409579667644
2.005865102639296
1.9608993157380252
1.920821114369501
1.8856304985337244
1.8533724340175952
1.823069403714565
1.7917888563049853
1.761485826001955
1.7360703812316716
1.7126099706744868
1.6852394916911049
1.653958944281525
1.6226783968719452
1.590420332355816
1.5591397849462365
1.5288367546432062
1.498533724340176
1.469208211143695
1.439882697947214
1.4105571847507332
1.3812316715542523
1.359726295210166
1.3411534701857282
1.3196480938416422
1.2971652003910068
1.2756598240469208
1.2561094819159335
1.2375366568914956
1.219941348973607
1.2023460410557183
1.1857282502443791
1.1700879765395895
1.155425219941349
1.1456500488758554
1.1397849462365592
1.130987292277615
1.1202346041055715
1.1094819159335287
1.0977517106549364
1.0869990224828934
1.0772238514173995
1.067448680351906
1.0576735092864125
1.0488758553274682
1.0410557184750733
1.035190615835777
1.0361681329423265
1.0439882697947214
1.0586510263929618
1.0840664711632453
1.1270772238514175
1.1906158357771262
1.2727272727272727
1.3724340175953078
1.4858260019550342
1.6099706744868034
1.739980449657869
1.869012707722385
1.9775171065493649
2.070381231671554
2.166177908113392
2.2580645161290325
2.340175953079179
2.410557184750733
2.4711632453567938
2.5219941348973607
2.565982404692082
2.603128054740958
2.635386119257087
2.662756598240469
2.686217008797654
2.701857282502444
2.713587487781036
2.7262952101661777
2.7370478983382207
2.744868035190616
2.748778103616813
2.747800586510264
2.740957966764418
2.7282502443792764
2.708699902248289
2.681329423264907
2.64613880742913
2.6070381231671558
2.563049853372434
2.5102639296187683
2.449657869012708
2.3851417399804498
2.317693059628544
2.251221896383187
2.187683284457478
2.1280547409579667
2.0733137829912023
2.024437927663734
1.9804496578690127
1.9413489736070384
1.9100684261974583
1.8836754643206255
1.855327468230694
1.8269794721407624
1.7996089931573802
1.7702834799608993
1.739980449657869
1.710654936461388
1.6803519061583578
1.6490713587487782
1.616813294232649
1.58455522971652
1.5581622678396871
1.5356793743890518
1.509286412512219
1.4819159335288368
1.455522971652004
1.4291300097751711
1.4027370478983383
1.3773216031280548
1.3528836754643203
1.3313782991202343
1.3098729227761483
1.289345063538612
1.270772238514174
1.2580645161290325
1.249266862170088
1.2375366568914956
1.2238514173998043
1.2101661779081134
1.195503421309873
1.181818181818182
1.1710654936461389
1.1612903225806452
1.1534701857282503
1.1466275659824048
1.13880742913001
1.1329423264907137
1.1300097751710656
1.1241446725317692
1.115347018572825
1.1055718475073313
1.0948191593352885
1.0869990224828934
1.0821114369501466
1.0821114369501466
1.088954056695992
1.1085043988269794
1.1436950146627567
1.1974584555229717
1.2609970674486803
1.335288367546432
1.4330400782013686
1.5483870967741935
1.6764418377321604
1.8093841642228736
1.9413489736070384
2.070381231671554
2.190615835777126
2.2991202346041058
2.3958944281524928
2.4819159335288368
2.5464320625610948
2.5962854349951123
2.64613880742913
2.6930596285435
2.7370478983382207
2.777126099706745
2.8132942326490715
2.84652981427175
2.875855327468231
2.900293255131965
2.920821114369501
2.9374389051808407
2.946236559139785
2.949169110459433
2.952101661779081
2.952101661779081
2.949169110459433
2.940371456500489
2.9257086999022484
2.903225806451613
2.8729227761485827
2.834799608993157
2.788856304985337
2.736070381231672
2.67644183773216
2.616813294232649
2.5562072336265884
2.489736070381232
2.420332355816227
2.3519061583577714
2.2854349951124147
2.2218963831867056
2.163245356793744
2.1094819159335287
2.060606060606061
2.016617790811339
1.9765395894428155
1.943304007820137
1.913978494623656
1.8826979472140764
1.8494623655913975
1.8172043010752688
1.7849462365591398
1.75366568914956
1.721407624633431
1.6881720430107527
1.653958944281525
1.6207233626588464
1.5884652981427174
1.555229716520039
1.5278592375366569
1.504398826979472
1.4731182795698925
1.4389051808406648
1.4086021505376345
1.3792766373411536
1.3519061583577712
1.3255131964809383
1.300097751710655
1.2756598240469208
1.252199413489736
1.2316715542521994
1.2179863147605083
1.2082111436950147
1.195503421309873
1.1808406647116323
1.166177908113392
1.152492668621701
1.13880742913001
1.126099706744868
1.1143695014662756
1.1036168132942326
1.0918866080156402
1.0801564027370478
1.067448680351906
1.0596285434995112
1.0557184750733135
1.0488758553274682
1.0420332355816226
1.0371456500488758
1.0391006842619743
1.0518084066471165
1.0801564027370478
1.1270772238514175
1.195503421309873
1.2854349951124144
1.392961876832845
1.498533724340176
1.607038123167155
1.7331378299120237
1.865102639296188
1.9960899315738023
2.121212121212121
2.236559139784946
2.3421309872922778
2.4359726295210167
2.5190615835777126
2.591397849462365
2.6529814271749754
2.7067448680351904
2.745845552297165
2.776148582600196
2.8084066471163247
2.841642228739003
2.874877810361681
2.9071358748778104
2.935483870967742
2.960899315738025
2.981427174975562
2.9960899315738025
3.003910068426197
3.005865102639296
2.99902248289345
2.9853372434017595
2.970674486803519
2.952101661779081
2.9286412512218964
2.898338220918866
2.859237536656892
2.811339198435973
2.7536656891495603
2.6881720430107525
2.6158357771261
2.539589442815249
2.463343108504399
2.393939393939394
2.3304007820136854
2.2658846529814274
2.2023460410557183
2.1407624633431084
2.0840664711632453
2.0332355816226784
1.9872922776148585
1.946236559139785
1.9090909090909087
1.873900293255132
1.8387096774193548
1.8093841642228736
1.782991202346041
1.75366568914956
1.7223851417399805
1.6881720430107527
1.6529814271749756
1.6177908113391983
1.581622678396872
1.544477028347996
1.5073313782991202
1.4711632453567938
1.436950146627566
1.4027370478983383
1.3743890518084063
1.3519061583577712
1.327468230694037
1.303030303030303
1.278592375366569
1.2551319648093842
1.2326490713587488
1.2111436950146628
1.1915933528836755
1.1720430107526882
1.155425219941349
1.1407624633431086
1.1319648093841643
1.126099706744868
1.1163245356793745
1.1055718475073313
1.093841642228739
1.0821114369501466
1.0703812316715542
1.0586510263929618
1.0488758553274682
1.0381231671554252
1.0263929618768328
1.0156402737047898
1.0068426197458455
1.0039100684261977
1.007820136852395
1.0175953079178883
1.040078201368524
1.0772238514173995
1.1348973607038124
1.2140762463343109
1.3128054740957966
1.4301075268817205
1.5591397849462365
1.694037145650049
1.83088954056696
1.9472140762463344
2.0498533724340176
2.157380254154448
2.260997067448681
2.356793743890518
2.441837732160313
2.517106549364614
2.582600195503421
2.6402737047898337
2.6901270772238512
2.7331378299120237
2.7722385141739982
2.806451612903226
2.8299120234604107
2.8475073313782997
2.8690127077223853
2.8905180840664717
2.9100684261974585
2.9257086999022484
2.9345063538611926
2.93841642228739
2.936461388074292
2.927663734115347
2.913000977517106
2.8905180840664717
2.863147605083089
2.8289345063538613
2.787878787878788
2.7390029325513194
2.6823069403714563
2.6177908113391983
2.547409579667644
2.472140762463343
2.3949169110459434
2.317693059628544
2.242424242424242
2.1710654936461387
2.1114369501466275
2.060606060606061
2.0117302052785924
1.9657869012707725
1.9237536656891496
1.8856304985337244
1.8523949169110456
1.8211143695014664
1.7898338220918866
1.758553274682307
1.7272727272727273
1.6950146627565983
1.66177908113392
1.6334310850439884
1.6080156402737047
1.576735092864125
1.541544477028348
1.5073313782991202
1.474095796676442
1.4408602150537635
1.4076246334310851
1.375366568914956
1.3450635386119256
1.3176930596285434
1.2913000977517106
1.2717497556207231
1.2561094819159335
1.2375366568914956
1.2179863147605083
1.1974584555229717
1.176930596285435
1.1583577712609971
1.141739980449658
1.126099706744868
1.1124144672531768
1.099706744868035
1.0869990224828934
1.0742913000977516
1.0664711632453567
1.0606060606060606
1.0527859237536656
1.0439882697947214
1.035190615835777
1.0263929618768328
1.0175953079178883
1.007820136852395
1.0
0.997067448680352
1.002932551319648
1.021505376344086
1.050830889540567
1.0948191593352885
1.160312805474096
1.24633431085044
1.3519061583577712
1.4711632453567938
1.6011730205278591
1.7360703812316716
1.870967741935484
2.0009775171065494
2.1221896383186705
2.232649071358749
2.3313782991202348
2.407624633431085
2.469208211143695
2.5288367546432062
2.581622678396872
2.6285434995112413
2.6715542521994133
2.7096774193548385
2.7438905180840663
2.776148582600196
2.8054740957966766
2.83088954056696
2.8533724340175954
2.865102639296188
2.8690127077223853
2.8729227761485827
2.874877810361681
2.870967741935484
2.86217008797654
2.8475073313782997
2.8240469208211145
2.791788856304985
2.7497556207233624
2.6959921798631474
2.6373411534701856
2.5718475073313782
2.5083088954056696
2.4457478005865103
2.377321603128055
2.3069403714565007
2.236559139784946
2.16911045943304
2.104594330400782
2.0449657869012707
1.991202346041056
1.943304007820137
1.900293255131965
1.86119257086999
1.83088954056696
1.804496578690127
1.7741935483870968
1.7429130009775171
1.7126099706744868
1.6803519061583578
1.6471163245356797
1.6138807429130009
1.5796676441837731
1.544477028347996
1.509286412512219
1.474095796676442
1.4418377321603129
1.4164222873900294
1.392961876832845
1.3655913978494625
1.3362658846529814
1.3088954056695992
1.2825024437927663
1.2561094819159335
1.2316715542521994
1.209188660801564
1.1867057673509287
1.166177908113392
1.147605083088954
1.1358748778103618
1.1280547409579669
1.1173020527859236
1.104594330400782
1.0918866080156402
1.0791788856304985
1.067448680351906
1.056695992179863
1.04594330400782
1.0342130987292275
1.0224828934506354
1.0097751710654936
0.997067448680352
0.989247311827957
0.9843597262952102
0.9765395894428152
0.9687194525904204
0.9638318670576737
0.9648093841642228
0.9736070381231672
0.9951124144672532
1.0342130987292275
1.0918866080156402
1.1691104594330402
