ppg
1.0606060606060606
1.056695992179863
1.0518084066471165
1.0469208211143697
1.0420332355816226
1.0371456500488758
1.032258064516129
1.0283479960899315
1.0234604105571847
1.0195503421309873
1.0166177908113392
1.013685239491691
1.0146627565982405
1.0166177908113392
1.0166177908113392
1.0146627565982405
1.0127077223851415
1.0117302052785924
1.0097751710654936
1.007820136852395
1.0068426197458455
1.007820136852395
1.013685239491691
1.0273704789833822
1.0498533724340176
1.0850439882697946
1.141739980449658
1.2218963831867058
1.3294232649071358
1.4604105571847508
1.6099706744868034
1.772238514173998
1.93841642228739
2.101661779081134
2.2551319648093844
2.3929618768328447
2.498533724340176
2.5806451612903225
2.659824046920821
2.730205278592375
2.791788856304985
2.843597262952102
2.887585532746823
2.936461388074292
2.98435972629521
3.0175953079178885
3.040078201368524
3.053763440860215
3.0576735092864125
3.0498533724340176
3.032258064516129
3.0097751710654936
2.9804496578690127
2.941348973607038
2.89247311827957
2.833822091886608
2.766373411534702
2.6911045943304006
2.6080156402737047
2.5210166177908118
2.4330400782013686
2.35386119257087
2.281524926686217
2.207233626588465
2.1358748778103616
2.069403714565005
2.010752688172043
1.959921798631476
1.9149560117302051
1.8748778103616808
1.839687194525904
1.8064516129032255
1.775171065493646
1.7429130009775171
1.715542521994135
1.6901270772238517
1.6608015640273706
1.6285434995112416
1.595307917888563
1.5610948191593352
1.5268817204301075
1.4926686217008798
1.4604105571847508
1.4291300097751711
1.3998044965786902
1.3714565004887584
1.348973607038123
1.3294232649071358
1.3088954056695992
1.2883675464320623
1.267839687194526
1.2482893450635386
1.2297165200391007
1.2121212121212122
1.1945259042033236
1.1788856304985338
1.164222873900293
1.1505376344086022
1.1368523949169111
1.1280547409579669
1.1221896383186705
1.1133919843597262
1.1036168132942326
1.093841642228739
1.086021505376344
1.0791788856304985
1.072336265884653
1.064516129032258
1.056695992179863
1.0498533724340176
1.0439882697947214
1.0410557184750733
1.040078201368524
1.0371456500488758
1.0332355816226784
1.029325513196481
1.0263929618768328
1.0234604105571847
1.021505376344086
1.0205278592375366
1.0195503421309873
1.018572825024438
1.018572825024438
1.0195503421309873
1.0224828934506354
1.0254154447702837
1.0254154447702837
1.024437927663734
1.0224828934506354
1.021505376344086
1.0234604105571847
1.032258064516129
1.053763440860215
1.093841642228739
1.1573802541544478
1.24633431085044
1.3421309872922775
1.4506353861192571
1.5884652981427174
1.7458455522971652
1.9120234604105573
2.078201368523949
2.2355816226783967
2.3792766373411536
2.505376344086021
2.6129032258064515
2.702834799608993
2.777126099706745
2.838709677419355
2.8807429130009776
2.9100684261974585
2.941348973607038
2.9696969696969697
2.992179863147605
3.0097751710654936
3.0205278592375366
3.0234604105571847
3.018572825024438
3.004887585532747
2.981427174975562
2.948191593352884
2.90811339198436
2.860215053763441
2.8025415444770285
2.736070381231672
2.66177908113392
2.5806451612903225
2.495601173020528
2.409579667644184
2.324535679374389
2.243401759530792
2.167155425219941
2.0977517106549364
2.035190615835777
1.9843597262952104
1.9423264907135875
1.902248289345064
1.865102639296188
1.8318670576735088
1.8005865102639296
1.76930596285435
1.7380254154447703
1.7067448680351909
1.6744868035190617
1.6412512218963833
1.607038123167155
1.5777126099706744
1.5503421309872922
1.5190615835777126
1.4858260019550342
1.452590420332356
1.4193548387096775
1.388074291300098
1.3587487781036167
1.3304007820136852
1.303030303030303
1.2776148582600195
1.2541544477028348
1.2326490713587488
1.217008797653959
1.2043010752688172
1.1886608015640274
1.1720430107526882
1.155425219941349
1.1397849462365592
1.126099706744868
1.1133919843597262
1.1016617790811338
1.0909090909090908
1.0811339198435972
1.072336265884653
1.0664711632453567
1.0635386119257086
1.0586510263929618
1.0527859237536656
1.04594330400782
1.0391006842619743
1.0332355816226784
1.0283479960899315
1.0234604105571847
1.0195503421309873
1.0156402737047898
1.0117302052785924
1.0087976539589445
1.0087976539589445
1.0097751710654936
1.0087976539589445
1.0068426197458455
1.0048875855327468
1.0039100684261977
1.002932551319648
1.0009775171065494
1.0
0.9990224828934506
0.9980449657869012
0.997067448680352
0.9990224828934506
1.0019550342130987
1.0048875855327468
1.010752688172043
1.0254154447702837
1.0547409579667644
1.1036168132942326
1.1779081133919844
1.2795698924731185
1.4066471163245358
1.5542521994134897
1.7165200391006843
1.884652981427175
2.029325513196481
2.157380254154448
2.291300097751711
2.418377321603128
2.532746823069404
2.631476050830889
2.713587487781036
2.782013685239492
2.8377321603128056
2.8836754643206257
2.920821114369501
2.951124144672532
2.967741935483871
2.975562072336266
2.983382209188661
2.9872922776148583
2.9853372434017595
2.975562072336266
2.956989247311828
2.9286412512218964
2.889540566959922
2.841642228739003
2.782991202346041
2.7145650048875853
2.6451612903225805
2.573802541544477
2.49266862170088
2.406647116324536
2.320625610948192
2.2375366568914954
2.160312805474096
2.090909090909091
2.029325513196481
1.9765395894428155
1.9305962854349952
1.8905180840664717
1.8543499511241448
1.825024437927664
1.7986314760508308
1.7702834799608993
1.7419354838709675
1.7126099706744868
1.683284457478006
1.6520039100684265
1.6207233626588464
1.5884652981427174
1.555229716520039
1.521994134897361
1.4887585532746823
1.4613880742913
1.4349951124144673
1.404692082111437
1.375366568914956
1.3479960899315735
1.3225806451612905
1.2981427174975562
1.2756598240469208
1.2551319648093842
1.2346041055718475
1.2150537634408602
1.1964809384164223
1.1788856304985338
1.166177908113392
1.1564027370478984
1.144672531769306
1.133919843597263
1.1221896383186705
1.1114369501466277
1.1026392961876832
1.0948191593352885
1.0869990224828934
1.0801564027370478
1.0733137829912025
1.0664711632453567
1.0635386119257086
1.06158357771261
1.0576735092864125
1.053763440860215
1.0488758553274682
1.0449657869012707
1.0410557184750733
1.0371456500488758
1.0332355816226784
1.0303030303030305
1.0273704789833822
1.0254154447702837
1.0234604105571847
1.024437927663734
1.0273704789833822
1.0283479960899315
1.029325513196481
1.029325513196481
1.0283479960899315
1.0263929618768328
1.024437927663734
1.0234604105571847
1.0224828934506354
1.024437927663734
1.0332355816226784
1.050830889540567
1.0791788856304985
1.1270772238514175
1.198435972629521
1.2961876832844574
1.418377321603128
1.5610948191593352
1.7174975562072337
1.8807429130009776
2.043010752688172
2.196480938416422
2.3362658846529816
2.458455522971652
2.550342130987292
2.621700879765396
2.6901270772238512
2.750733137829912
2.803519061583578
2.8484848484848486
2.8856304985337244
2.9159335288367547
2.940371456500489
2.9579667644183774
2.9696969696969697
2.9745845552297165
2.9687194525904204
2.9530791788856305
2.932551319648094
2.903225806451613
2.865102639296188
2.8181818181818183
2.7624633431085046
2.696969696969697
2.6236559139784945
2.544477028347996
2.4613880742913
2.377321603128055
2.294232649071359
2.220918866080156
2.157380254154448
2.0948191593352883
2.037145650048876
1.9853372434017595
1.9393939393939397
1.8993157380254155
1.8631476050830889
1.83088954056696
1.8005865102639296
1.7702834799608993
1.7409579667644184
1.7145650048875856
1.689149560117302
1.6598240469208212
1.6285434995112416
1.595307917888563
1.5620723362658846
1.5288367546432062
1.495601173020528
1.4633431085043989
1.4320625610948192
1.401759530791789
1.3724340175953078
1.3450635386119256
1.324535679374389
1.3069403714565004
1.2864125122189638
1.2668621700879763
1.2473118279569892
1.2287390029325511
1.2121212121212122
1.195503421309873
1.1788856304985338
1.163245356793744
1.1485826001955035
1.1348973607038124
1.126099706744868
1.1192570869990224
1.110459433040078
1.1016617790811338
1.0928641251221896
1.0850439882697946
1.0772238514173995
1.0703812316715542
1.064516129032258
1.0596285434995112
1.0547409579667644
1.050830889540567
1.0469208211143697
1.04594330400782
1.0469208211143697
1.04594330400782
1.0439882697947214
1.0420332355816226
1.0391006842619743
1.0371456500488758
1.0361681329423265
1.035190615835777
1.035190615835777
1.035190615835777
1.035190615835777
1.0371456500488758
1.040078201368524
1.040078201368524
1.0391006842619743
1.0361681329423265
1.0332355816226784
1.032258064516129
1.0371456500488758
1.0527859237536656
1.0840664711632453
1.1368523949169111
1.2140762463343109
1.3176930596285434
1.4252199413489737
1.5405669599217986
1.683284457478006
1.8406647116324533
2.0009775171065494
2.156402737047898
2.3010752688172045
2.429130009775171
2.5405669599217986
2.634408602150537
2.7116324535679373
2.7751710654936463
2.8181818181818183
2.8475073313782997
2.877810361681329
2.9042033235581624
2.9266862170087977
2.9442815249266863
2.956011730205278
2.960899315738025
2.9589442815249267
2.949169110459433
2.930596285434995
2.902248289345064
2.8641251221896384
2.820136852394917
2.76930596285435
2.708699902248289
2.638318670576735
2.5610948191593352
2.479960899315738
2.3958944281524928
2.3118279569892475
2.23069403714565
2.1544477028347995
2.085043988269794
2.0234604105571847
1.9745845552297163
1.9335288367546437
1.8944281524926687
1.858260019550342
1.8240469208211143
1.7927663734115349
1.761485826001955
1.7311827956989247
1.7008797653958945
1.6705767350928642
1.6392961876832846
1.607038123167155
1.5786901270772238
1.552297165200391
1.521994134897361
1.4897360703812317
1.457478005865103
1.426197458455523
1.3958944281524928
1.3665689149560116
1.33822091886608
1.3118279569892473
1.2873900293255132
1.2649071358748778
1.2434017595307918
1.2267839687194526
1.2140762463343109
1.198435972629521
1.181818181818182
1.1652003910068427
1.1495601173020529
1.1348973607038124
1.1202346041055715
1.10752688172043
1.0957966764418376
1.0850439882697946
1.075268817204301
1.0694037145650048
1.0664711632453567
1.06158357771261
1.0557184750733135
1.0498533724340176
1.043010752688172
1.0361681329423265
1.0303030303030305
1.0254154447702837
1.0205278592375366
1.0166177908113392
1.0127077223851415
1.0097751710654936
1.0097751710654936
1.0127077223851415
1.0127077223851415
1.0117302052785924
1.010752688172043
1.0097751710654936
1.0087976539589445
1.0068426197458455
1.0048875855327468
1.0039100684261977
1.002932551319648
1.0009775171065494
1.0009775171065494
1.002932551319648
1.0039100684261977
1.007820136852395
1.018572825024438
1.043010752688172
1.086021505376344
1.152492668621701
1.2453567937438903
1.3636363636363635
1.5034213098729228
1.6598240469208212
1.8240469208211143
1.967741935483871
2.096774193548387
2.231671554252199
2.358748778103617
2.4731182795698925
2.570869990224829
2.6529814271749754
2.720430107526881
2.777126099706745
2.8240469208211145
2.86217008797654
2.8944281524926687
2.913000977517106
2.9227761485826003
2.9315738025415445
2.936461388074292
2.935483870967742
2.9266862170087977
2.909090909090909
2.8826979472140764
2.8475073313782997
2.801564027370479
2.745845552297165
2.681329423264907
2.6080156402737047
2.535679374389052
2.463343108504399
2.3841642228739004
2.302052785923754
2.2218963831867056
2.145650048875855
2.0762463343108504
2.01564027370479
1.962854349951124
1.916911045943304
1.8778103616813293
1.842619745845552
1.8142717497556209
1.7878787878787878
1.7595307917888563
1.7302052785923754
1.699902248289345
1.667644183773216
1.6334310850439884
1.5972629521016617
1.5591397849462365
1.520039100684262
1.479960899315738
1.439882697947214
1.401759530791789
1.3695014662756595
1.3411534701857282
1.3098729227761483
1.278592375366569
1.249266862170088
1.2228739002932552
1.1994134897360704
1.1779081133919844
1.160312805474096
1.144672531769306
1.130987292277615
1.1192570869990224
1.1133919843597262
1.1094819159335287
1.104594330400782
1.1006842619745845
1.0977517106549364
1.0957966764418376
1.0957966764418376
1.0977517106549364
1.1006842619745845
1.1055718475073313
1.110459433040078
1.115347018572825
1.1192570869990224
1.1241446725317692
1.1290322580645162
1.1300097751710656
1.1280547409579669
1.1241446725317692
1.1192570869990224
1.1114369501466277
1.1026392961876832
1.0918866080156402
1.0801564027370478
1.067448680351906
1.053763440860215
1.0439882697947214
1.035190615835777
1.0234604105571847
1.010752688172043
0.9980449657869012
0.9863147605083088
0.975562072336266
0.9657869012707724
0.956989247311828
0.9511241446725318
0.9481915933528836
0.9511241446725318
0.9648093841642228
0.989247311827957
1.0283479960899315
1.0918866080156402
1.1837732160312806
1.3040078201368523
1.4496578690127078
1.6138807429130009
1.7898338220918866
1.967741935483871
2.1388074291300097
2.2961876832844577
2.4359726295210167
2.541544477028348
2.622678396871945
2.6989247311827955
2.7653958944281527
2.8211143695014664
2.866080156402737
2.902248289345064
2.930596285434995
2.951124144672532
2.964809384164223
2.972629521016618
2.972629521016618
2.963831867057673
2.945259042033236
2.919843597262952
2.887585532746823
2.84652981427175
2.7966764418377323
2.7390029325513194
2.6725317693059627
2.5992179863147604
2.5210166177908118
2.4408602150537635
2.361681329423265
2.2854349951124147
2.219941348973607
2.163245356793744
2.1094819159335287
2.06158357771261
2.0195503421309877
1.9824046920821117
1.949169110459433
1.9188660801564028
1.8905180840664717
1.86119257086999
1.83088954056696
1.7986314760508308
1.7683284457478006
1.7390029325513197
1.7057673509286413
1.6686217008797657
1.629521016617791
1.590420332355816
1.5503421309872922
1.5102639296187683
1.4711632453567938
1.434017595307918
1.3988269794721409
1.364613880742913
1.3313782991202343
1.3049853372434017
1.2834799608993157
1.260019550342131
1.2375366568914956
1.217008797653959
1.1994134897360704
1.18475073313783
1.1720430107526882
1.1622678396871946
1.1544477028347997
1.147605083088954
1.1407624633431086
1.1378299120234605
1.1358748778103618
1.1329423264907137
1.1290322580645162
1.1241446725317692
1.1192570869990224
1.1143695014662756
1.110459433040078
1.1055718475073313
1.099706744868035
1.093841642228739
1.0879765395894427
1.0821114369501466
1.078201368523949
1.0762463343108504
1.0713587487781036
1.0664711632453567
1.0606060606060606
1.0557184750733135
1.050830889540567
1.04594330400782
1.0410557184750733
1.035190615835777
1.0303030303030305
1.0254154447702837
1.024437927663734
1.0254154447702837
1.024437927663734
1.0224828934506354
1.021505376344086
1.021505376344086
1.024437927663734
1.0332355816226784
1.0527859237536656
1.088954056695992
1.1456500488758554
1.2267839687194526
1.3333333333333333
1.4437927663734116
1.563049853372434
1.7096774193548387
1.871945259042033
2.037145650048876
2.1974584555229715
2.346041055718475
2.4780058651026398
2.592375366568915
2.689149560117302
2.76930596285435
2.835777126099707
2.8807429130009776
2.911045943304008
2.9423264907135875
2.9696969696969697
2.9931573802541545
3.0117302052785924
3.024437927663734
3.03128054740958
3.03128054740958
3.022482893450636
3.005865102639296
2.9804496578690127
2.9442815249266863
2.9012707722385143
2.844574780058651
2.7751710654936463
2.702834799608993
2.627565982404692
2.547409579667644
2.466275659824047
2.3851417399804498
2.3059628543499517
2.23069403714565
2.161290322580645
2.0987292277614857
2.047898338220919
2.005865102639296
1.9657869012707725
1.927663734115347
1.8934506353861196
1.86119257086999
1.8299120234604105
1.8005865102639296
1.7712609970674489
1.7419354838709675
1.7116324535679377
1.6803519061583578
1.6480938416422288
1.6207233626588464
1.5943304007820136
1.5650048875855327
1.533724340175953
1.501466275659824
1.469208211143695
1.4379276637341154
1.4076246334310851
1.3782991202346042
1.3519061583577712
1.3284457478005864
1.3069403714565004
1.2913000977517106
1.278592375366569
1.2639296187683284
1.249266862170088
1.2346041055718475
1.219941348973607
1.2072336265884651
1.1945259042033236
1.1837732160312806
1.173998044965787
1.1652003910068427
1.1564027370478984
1.1485826001955035
1.144672531769306
1.142717497556207
1.13880742913001
1.1348973607038124
1.1300097751710656
1.1251221896383188
1.121212121212121
1.1173020527859236
1.1133919843597262
1.110459433040078
1.10752688172043
1.1036168132942326
1.1026392961876832
1.1026392961876832
1.1006842619745845
1.0977517106549364
1.0948191593352885
1.0918866080156402
1.0899315738025417
1.0879765395894427
1.0850439882697946
1.0821114369501466
1.0791788856304985
1.075268817204301
1.072336265884653
1.0733137829912025
1.078201368523949
1.0869990224828934
1.1055718475073313
1.1397849462365592
1.1945259042033236
1.273704789833822
1.3773216031280548
1.5034213098729228
1.6471163245356797
1.8025415444770283
1.9608993157380252
2.0957966764418376
2.212121212121212
2.332355816226784
2.444770283479961
2.544477028347996
2.6295210166177907
2.699902248289345
2.757575757575758
2.8054740957966766
2.844574780058651
2.87683284457478
2.903225806451613
2.9227761485826003
2.930596285434995
2.930596285434995
2.929618768328446
2.924731182795699
2.913000977517106
2.89247311827957
2.8641251221896384
2.8260019550342133
2.7781036168132944
2.721407624633431
2.6559139784946235
2.5835777126099706
2.5141739980449658
2.444770283479961
2.36950146627566
2.29227761485826
2.2170087976539588
2.145650048875855
2.080156402737048
2.021505376344086
1.9696969696969695
1.924731182795699
1.884652981427175
1.8494623655913975
1.8172043010752688
1.7898338220918866
1.7653958944281525
1.7390029325513197
1.7116324535679377
1.6823069403714566
1.6529814271749756
1.6226783968719452
1.5913978494623655
1.5591397849462365
1.5268817204301075
1.495601173020528
1.4643206256109482
1.439882697947214
1.418377321603128
1.393939393939394
1.3685239491691104
1.343108504398827
1.3186705767350928
1.295210166177908
1.2727272727272727
1.252199413489736
1.2326490713587488
1.2140762463343109
1.1964809384164223
1.18475073313783
1.1759530791788857
1.1652003910068427
1.155425219941349
1.144672531769306
1.1348973607038124
1.1251221896383188
1.115347018572825
1.1065493646138806
1.0977517106549364
1.0899315738025417
1.083088954056696
1.0772238514173995
1.0762463343108504
1.0762463343108504
1.0742913000977516
1.0713587487781036
1.0684261974584557
1.0654936461388074
1.0625610948191593
1.0586510263929618
1.0557184750733135
1.0527859237536656
1.050830889540567
1.0488758553274682
1.0498533724340176
1.0527859237536656
1.053763440860215
1.053763440860215
1.053763440860215
1.0527859237536656
1.0518084066471165
1.050830889540567
1.0488758553274682
1.0488758553274682
1.0518084066471165
1.06158357771261
1.0840664711632453
1.1173020527859236
1.1652003910068427
1.2375366568914956
1.335288367546432
1.457478005865103
1.5992179863147604
1.7526881720430108
1.911045943304008
2.0664711632453567
2.212121212121212
2.343108504398827
2.4574780058651027
2.541544477028348
2.6050830889540566
2.665689149560117
2.719452590420332
2.766373411534702
2.806451612903226
2.8396871945259043
2.866080156402737
2.887585532746823
2.903225806451613
2.911045943304008
2.9120234604105573
2.9042033235581624
2.887585532746823
2.863147605083089
2.831867057673509
2.792766373411535
2.744868035190616
2.687194525904203
2.6207233626588464
2.547409579667644
2.469208211143695
2.389051808406647
2.30791788856305
2.2297165200391005
2.1622678396871944
2.103616813294233
2.046920821114369
1.9951124144672527
1.949169110459433
1.90811339198436
1.8729227761485825
1.8416422287390029
1.812316715542522
1.7849462365591398
1.7575757575757576
1.7302052785923754
1.7018572825024438
1.6764418377321604
1.6529814271749756
1.6256109481915937
1.5962854349951123
1.565982404692082
1.5347018572825024
1.504398826979472
1.474095796676442
1.444770283479961
1.4164222873900294
1.3890518084066472
1.3636363636363635
1.3440860215053765
1.327468230694037
1.3079178885630498
1.2883675464320623
1.2697947214076246
1.252199413489736
1.2355816226783969
1.219941348973607
1.1964809384164223
1.1691104594330402
1.1495601173020529
1.133919843597263
1.121212121212121
1.1133919843597262
1.1085043988269794
1.1026392961876832
1.0957966764418376
1.088954056695992
1.0821114369501466
1.075268817204301
1.0694037145650048
1.064516129032258
1.0596285434995112
1.0547409579667644
1.0498533724340176
1.0488758553274682
1.0498533724340176
1.0478983382209188
1.0449657869012707
1.043010752688172
1.040078201368524
1.0381231671554252
1.035190615835777
1.0332355816226784
1.032258064516129
1.0312805474095796
1.0303030303030305
1.0303030303030305
1.032258064516129
1.035190615835777
1.035190615835777
1.035190615835777
1.0361681329423265
1.0420332355816226
1.056695992179863
1.0850439882697946
1.133919843597263
1.206256109481916
1.3040078201368523
1.4271749755620724
1.5493646138807429
1.675464320625611
1.825024437927664
1.9853372434017595
2.1436950146627565
2.29227761485826
2.426197458455523
2.5425219941348973
2.641251221896383
2.7233626588465296
2.791788856304985
2.8475073313782997
2.89345063538612
2.9237536656891496
2.9442815249266863
2.964809384164223
2.981427174975562
2.9931573802541545
2.9980449657869013
2.9960899315738025
2.986314760508309
2.967741935483871
2.940371456500489
2.903225806451613
2.857282502443793
2.806451612903226
2.750733137829912
2.6852394916911044
2.610948191593353
2.530791788856305
2.44672531769306
2.361681329423265
2.2795698924731185
2.201368523949169
2.1300097751710654
2.065493646138808
2.0087976539589443
1.959921798631476
1.919843597262952
1.8856304985337244
1.8523949169110456
1.8201368523949168
1.7898338220918866
1.7595307917888563
1.729227761485826
1.6989247311827955
1.667644183773216
1.6373411534701858
1.606060606060606
1.573802541544477
1.5454545454545454
1.520039100684262
1.490713587487781
1.4604105571847508
1.43108504398827
1.401759530791789
1.3724340175953078
1.3440860215053765
1.3186705767350928
1.2942326490713587
1.2717497556207231
1.2502443792766371
1.2297165200391007
1.2150537634408602
1.2023460410557183
1.187683284457478
1.1720430107526882
1.1573802541544478
1.1436950146627567
1.130987292277615
1.1202346041055715
1.110459433040078
1.1016617790811338
1.0928641251221896
1.0850439882697946
1.0801564027370478
1.078201368523949
1.0733137829912025
1.0684261974584557
1.0625610948191593
1.056695992179863
1.0518084066471165
1.0469208211143697
1.0420332355816226
1.0381231671554252
1.0342130987292275
1.0312805474095796
1.032258064516129
1.0342130987292275
1.0342130987292275
1.0332355816226784
1.032258064516129
1.0312805474095796
1.0303030303030305
1.029325513196481
1.029325513196481
1.0283479960899315
1.0273704789833822
1.0263929618768328
1.0254154447702837
1.029325513196481
1.0371456500488758
1.0518084066471165
1.0791788856304985
1.126099706744868
1.195503421309873
1.2913000977517106
1.4115347018572826
1.5542521994134897
1.7126099706744868
1.878787878787879
2.0439882697947214
2.1818181818181817
2.2981427174975564
2.4164222873900294
2.5249266862170088
2.618768328445748
2.6989247311827955
2.7653958944281527
2.8211143695014664
2.8670576735092865
2.906158357771261
2.93841642228739
2.964809384164223
2.9853372434017595
2.9931573802541545
2.992179863147605
2.989247311827957
2.9804496578690127
2.962854349951124
2.936461388074292
2.900293255131965
2.854349951124145
2.798631476050831
2.7341153470185726
2.66177908113392
2.582600195503421
2.50733137829912
2.4330400782013686
2.3519061583577714
2.2688172043010755
