ppg
3.222873900293255
3.2580645161290325
3.2737047898338223
3.272727272727273
3.2561094819159337
3.2267839687194524
3.185728250244379
3.1378299120234603
3.083088954056696
3.01564027370479
2.93841642228739
2.8533724340175954
2.7595307917888565
2.659824046920821
2.555229716520039
2.449657869012708
2.347018572825025
2.251221896383187
2.1652003910068425
2.096774193548387
2.0410557184750733
1.9902248289345064
1.948191593352884
1.9149560117302051
1.889540566959922
1.869012707722385
1.8523949169110456
1.8387096774193548
1.826001955034213
1.8132942326490715
1.7996089931573802
1.7839687194525904
1.7702834799608993
1.7565982404692082
1.7390029325513197
1.718475073313783
1.696969696969697
1.6735092864125125
1.6490713587487782
1.624633431085044
1.5992179863147604
1.5728250244379276
1.5464320625610948
1.521016617790811
1.500488758553275
1.4838709677419355
1.4652981427174976
1.4457478005865103
1.4271749755620724
1.409579667644184
1.3919843597262953
1.3734115347018572
1.3528836754643203
1.3284457478005864
1.300097751710655
1.2717497556207231
1.2531769305962854
1.2512218963831867
1.2766373411534702
1.3440860215053765
1.4643206256109482
1.640273704789834
1.865102639296188
2.1192570869990224
2.380254154447703
2.624633431085044
2.8367546432062563
3.006842619745845
3.133919843597263
3.2140762463343107
3.260019550342131
3.291300097751711
3.3069403714565007
3.3069403714565007
3.2932551319648096
3.2668621700879767
3.2267839687194524
3.1730205278592374
3.10752688172043
3.03128054740958
2.945259042033236
2.849462365591398
2.757575757575758
2.665689149560117
2.5620723362658846
2.453567937438905
2.346041055718475
2.243401759530792
2.1495601173020527
2.067448680351906
1.9980449657869013
1.9393939393939397
1.8914956011730208
1.8523949169110456
1.826001955034213
1.8054740957966764
1.7869012707722385
1.76930596285435
1.7526881720430108
1.7360703812316716
1.718475073313783
1.7008797653958945
1.683284457478006
1.6637341153470186
1.6441837732160314
1.624633431085044
1.6050830889540566
1.5884652981427174
1.5728250244379276
1.552297165200391
1.5288367546432062
1.504398826979472
1.478983382209189
1.4535679374389052
1.4301075268817205
1.4066471163245358
1.383186705767351
1.3607038123167154
1.3391984359726294
1.3235581622678396
1.310850439882698
1.2932551319648091
1.2727272727272727
1.249266862170088
1.2218963831867058
1.1945259042033236
1.1720430107526882
1.1671554252199414
1.1945259042033236
1.2688172043010753
1.3988269794721409
1.58455522971652
1.7790811339198436
1.9853372434017595
2.2297165200391005
2.47702834799609
2.701857282502444
2.811339198435973
2.8377321603128056
2.87683284457478
2.909090909090909
2.9266862170087977
2.929618768328446
2.919843597262952
2.900293255131965
2.8729227761485827
2.8377321603128056
2.791788856304985
2.735092864125122
2.6695992179863146
2.5943304007820136
2.5102639296187683
2.418377321603128
2.3196480938416424
2.217986314760508
2.117302052785924
2.0195503421309877
1.9374389051808407
1.868035190615836
1.801564027370479
1.7438905180840665
1.696969696969697
1.6608015640273706
1.635386119257087
1.616813294232649
1.603128054740958
1.5913978494623655
1.581622678396872
1.5708699902248289
1.5610948191593352
1.552297165200391
1.5395894428152492
1.5239491691104594
1.5063538611925709
1.4887585532746823
1.4701857282502444
1.4496578690127078
1.4301075268817205
1.4105571847507332
1.391006842619746
1.3714565004887584
1.3519061583577712
1.3372434017595307
1.324535679374389
1.3079178885630498
1.2883675464320623
1.2688172043010753
1.2512218963831867
1.2346041055718475
1.2179863147605083
1.203323558162268
1.187683284457478
1.1700879765395895
1.1495601173020529
1.133919843597263
1.1241446725317692
1.1251221896383188
1.1495601173020529
1.2140762463343109
1.3294232649071358
1.4975562072336266
1.70772238514174
1.9442815249266865
2.187683284457478
2.4164222873900294
2.6158357771261
2.7751710654936463
2.8807429130009776
2.9472140762463344
2.994134897360704
3.021505376344086
3.0303030303030303
3.024437927663734
3.005865102639296
2.975562072336266
2.935483870967742
2.8856304985337244
2.8269794721407626
2.7595307917888565
2.69208211143695
2.621700879765396
2.5386119257087
2.447702834799609
2.3528836754643208
2.2561094819159337
2.161290322580645
2.071358748778104
1.989247311827957
1.9178885630498532
1.8563049853372435
1.8054740957966764
1.7644183773216031
1.7331378299120237
1.710654936461388
1.6911045943304008
1.6744868035190617
1.6598240469208212
1.6451612903225807
1.6304985337243405
1.6158357771260996
1.6001955034213098
1.5826001955034212
1.563049853372434
1.541544477028348
1.521016617790811
1.501466275659824
1.478005865102639
1.4535679374389052
1.4291300097751711
1.4056695992179864
1.3822091886608017
1.3587487781036167
1.3372434017595307
1.3157380254154447
1.295210166177908
1.2756598240469208
1.2619745845552297
1.2512218963831867
1.2375366568914956
1.2228739002932552
1.2072336265884651
1.1906158357771262
1.1710654936461389
1.1485826001955035
1.1270772238514175
1.1143695014662756
1.1231671554252198
1.1671554252199414
1.2580645161290325
1.3734115347018572
1.5190615835777126
1.7194525904203324
1.9530791788856303
2.193548387096774
2.420332355816227
2.618768328445748
2.7781036168132944
2.895405669599218
2.9765395894428157
3.026392961876833
3.0518084066471163
3.0557184750733137
3.0449657869012707
3.0254154447702835
2.997067448680352
2.9589442815249267
2.9100684261974585
2.8514173998044967
2.7839687194525906
2.7067448680351904
2.618768328445748
2.52297165200391
2.421309872922776
2.315738025415445
2.220918866080156
2.134897360703812
2.0439882697947214
1.956989247311828
1.878787878787879
1.8103616813294232
1.7546432062561097
1.7116324535679377
1.6774193548387095
1.651026392961877
1.6304985337243405
1.6138807429130009
1.6001955034213098
1.5894428152492668
1.576735092864125
1.5620723362658846
1.5464320625610948
1.5288367546432062
1.5083088954056696
1.4868035190615836
1.4623655913978495
1.436950146627566
1.4115347018572826
1.3861192570869991
1.3616813294232648
1.3421309872922775
1.3255131964809383
1.305962854349951
1.2834799608993157
1.260019550342131
1.2365591397849462
1.2150537634408602
1.195503421309873
1.1779081133919844
1.1622678396871946
1.147605083088954
1.1329423264907137
1.1221896383186705
1.1094819159335287
1.088954056695992
1.0664711632453567
1.0518084066471165
1.056695992179863
1.0957966764418376
1.1808406647116323
1.3176930596285434
1.5034213098729228
1.7272727272727273
1.970674486803519
2.2111436950146626
2.406647116324536
2.5620723362658846
2.702834799608993
2.8152492668621703
2.8963831867057674
2.949169110459433
2.9775171065493646
2.986314760508309
2.9804496578690127
2.959921798631476
2.9257086999022484
2.8807429130009776
2.8299120234604107
2.773216031280548
2.705767350928641
2.627565982404692
2.5405669599217986
2.447702834799609
2.3499511241446727
2.2482893450635384
2.146627565982405
2.048875855327468
1.956989247311828
1.8748778103616808
1.8025415444770283
1.7458455522971652
1.7018572825024438
1.66177908113392
1.6275659824046922
1.5992179863147604
1.5757575757575757
1.5581622678396871
1.543499511241447
1.5278592375366569
1.512218963831867
1.495601173020528
1.47702834799609
1.4604105571847508
1.4437927663734116
1.4222873900293256
1.3988269794721409
1.3743890518084063
1.3479960899315735
1.3206256109481915
1.2932551319648091
1.2658846529814272
1.2375366568914956
1.209188660801564
1.1808406647116323
1.1436950146627567
1.110459433040078
1.088954056695992
1.0694037145650048
1.0518084066471165
1.0371456500488758
1.0254154447702837
1.013685239491691
0.9990224828934506
0.9804496578690128
0.959921798631476
0.9423264907135877
0.9393939393939394
0.95405669599218
0.997067448680352
1.0840664711632453
1.2228739002932552
1.4105571847507332
1.6344086021505375
1.87683284457478
2.115347018572825
2.3313782991202348
2.5112414467253177
2.649071358748778
2.7468230694037143
2.809384164222874
2.8406647116324537
2.849462365591398
2.8475073313782997
2.833822091886608
2.8103616813294234
2.776148582600196
2.732160312805474
2.678396871945259
2.6148582600195502
2.5425219941348973
2.4613880742913
2.372434017595308
2.289345063538612
2.206256109481916
2.113391984359726
2.0175953079178885
1.9237536656891496
1.836754643206256
1.758553274682307
1.6920821114369502
1.6373411534701858
1.5933528836754642
1.5571847507331378
1.5298142717497556
1.5083088954056696
1.4936461388074291
1.482893450635386
1.4711632453567938
1.457478005865103
1.4428152492668622
1.4281524926686218
1.412512218963832
1.3949169110459434
1.3763440860215057
1.356793743890518
1.3362658846529814
1.3147605083088951
1.2981427174975562
1.2825024437927663
1.262952101661779
1.241446725317693
1.219941348973607
1.1994134897360704
1.1798631476050832
1.1612903225806452
1.144672531769306
1.1300097751710656
1.1163245356793745
1.104594330400782
1.0928641251221896
1.0840664711632453
1.0733137829912025
1.056695992179863
1.0381231671554252
1.0254154447702837
1.032258064516129
1.0713587487781036
1.155425219941349
1.2913000977517106
1.4750733137829912
1.6959921798631477
1.935483870967742
2.1436950146627565
2.321603128054741
2.4946236559139785
2.6402737047898337
2.750733137829912
2.8269794721407626
2.8729227761485827
2.895405669599218
2.8993157380254155
2.8885630498533725
2.866080156402737
2.832844574780059
2.793743890518084
2.747800586510264
2.6930596285435
2.6295210166177907
2.5562072336265884
2.4750733137829912
2.386119257086999
2.290322580645161
2.1915933528836757
2.0928641251221896
1.997067448680352
1.90811339198436
1.828934506353861
1.7673509286412512
1.7204301075268815
1.678396871945259
1.6441837732160314
1.616813294232649
1.595307917888563
1.5786901270772238
1.563049853372434
1.5483870967741935
1.5347018572825024
1.520039100684262
1.5053763440860215
1.4926686217008798
1.479960899315738
1.4643206256109482
1.4457478005865103
1.426197458455523
1.404692082111437
1.3822091886608017
1.3587487781036167
1.335288367546432
1.310850439882698
1.2873900293255132
1.2649071358748778
1.2434017595307918
1.2287390029325511
1.217008797653959
1.2023460410557183
1.187683284457478
1.1730205278592376
1.1583577712609971
1.1436950146627567
1.1280547409579669
1.1114369501466277
1.0918866080156402
1.0703812316715542
1.0498533724340176
1.040078201368524
1.0469208211143697
1.0811339198435972
1.155425219941349
1.278592375366569
1.4516129032258065
1.6666666666666667
1.906158357771261
2.1485826001955037
2.3734115347018574
2.5650048875855327
2.717497556207233
2.8289345063538613
2.8963831867057674
2.9335288367546437
2.956011730205278
2.962854349951124
2.956989247311828
2.9393939393939394
2.911045943304008
2.8719452590420333
2.822091886608016
2.7624633431085046
2.69208211143695
2.611925708699902
2.5317693059628543
2.450635386119257
2.357771260997068
2.2580645161290325
2.156402737047898
2.0576735092864125
1.964809384164223
1.8826979472140764
1.8103616813294232
1.7497556207233629
1.7008797653958945
1.6608015640273706
1.6285434995112416
1.6050830889540566
1.5865102639296187
1.5679374389051808
1.5503421309872922
1.5317693059628543
1.5141739980449658
1.4965786901270772
1.478005865102639
1.4594330400782014
1.439882697947214
1.4193548387096775
1.3978494623655917
1.380254154447703
1.3636363636363635
1.3421309872922775
1.3186705767350928
1.2942326490713587
1.2688172043010753
1.2424242424242424
1.2179863147605083
1.1935483870967742
1.1710654936461389
1.1505376344086022
1.1329423264907137
1.1173020527859236
1.1065493646138806
1.0987292277614855
1.088954056695992
1.0762463343108504
1.0586510263929618
1.0371456500488758
1.0146627565982405
0.997067448680352
0.9951124144672532
1.021505376344086
1.0899315738025417
1.2072336265884651
1.3440860215053765
1.5063538611925709
1.7165200391006843
1.9501466275659824
2.182795698924731
2.393939393939394
2.570869990224829
2.7096774193548385
2.809384164222874
2.874877810361681
2.9149560117302054
2.9335288367546437
2.935483870967742
2.9227761485826003
2.8993157380254155
2.8670576735092865
2.825024437927664
2.773216031280548
2.7116324535679373
2.6392961876832843
2.558162267839687
2.469208211143695
2.3743890518084068
2.2737047898338223
2.1700879765395893
2.078201368523949
1.9951124144672527
1.9090909090909087
1.827956989247312
1.7565982404692082
1.696969696969697
1.6627565982404693
1.64613880742913
1.6265884652981428
1.6080156402737047
1.590420332355816
1.573802541544477
1.5581622678396871
1.5454545454545454
1.5327468230694037
1.517106549364614
1.499511241446725
1.479960899315738
1.457478005865103
1.434017595307918
1.4105571847507332
1.388074291300098
1.364613880742913
1.3411534701857282
1.3176930596285434
1.300097751710655
1.284457478005865
1.2649071358748778
1.2443792766373412
1.2238514173998043
1.203323558162268
1.1837732160312806
1.1671554252199414
1.1505376344086022
1.1348973607038124
1.1192570869990224
1.1036168132942326
1.0850439882697946
1.0694037145650048
1.053763440860215
1.032258064516129
1.0146627565982405
1.0127077223851415
1.0410557184750733
1.1124144672531768
1.2365591397849462
1.4105571847507332
1.6256109481915937
1.8621700879765395
2.1006842619745845
2.2961876832844577
2.452590420332356
2.5962854349951123
2.7096774193548385
2.790811339198436
2.844574780058651
2.874877810361681
2.8856304985337244
2.8807429130009776
2.8641251221896384
2.835777126099707
2.7976539589442817
2.7536656891495603
2.7038123167155423
2.643206256109482
2.5718475073313782
2.489736070381232
2.398826979472141
2.302052785923754
2.201368523949169
2.1006842619745845
2.0019550342130987
1.90811339198436
1.8240469208211143
1.750733137829912
1.6950146627565983
1.6529814271749756
1.6158357771260996
1.585532746823069
1.5610948191593352
1.541544477028348
1.5249266862170088
1.509286412512219
1.495601173020528
1.4819159335288368
1.4672531769305963
1.4506353861192571
1.436950146627566
1.423264907135875
1.4056695992179864
1.3841642228739004
1.359726295210166
1.335288367546432
1.3098729227761483
1.2854349951124144
1.2619745845552297
1.2404692082111437
1.219941348973607
1.2003910068426198
1.1827956989247312
1.1710654936461389
1.1612903225806452
1.1485826001955035
1.1348973607038124
1.1192570869990224
1.1026392961876832
1.0850439882697946
1.064516129032258
1.0420332355816226
1.021505376344086
1.0097751710654936
1.0166177908113392
1.0449657869012707
1.1036168132942326
1.2121212121212122
1.3714565004887584
1.573802541544477
1.8035190615835777
2.042033235581622
2.267839687194526
2.4652981427174976
2.625610948191593
2.744868035190616
2.8269794721407626
2.87683284457478
2.8993157380254155
2.902248289345064
2.89345063538612
2.874877810361681
2.84652981427175
2.8084066471163247
2.7614858260019552
2.705767350928641
2.641251221896383
2.5669599217986314
2.4838709677419355
2.393939393939394
2.3088954056695994
2.2267839687194524
2.1378299120234603
2.04594330400782
1.9579667644183771
1.8778103616813293
1.8093841642228736
1.7526881720430108
1.7067448680351909
1.6715542521994136
1.6441837732160314
1.6236559139784943
1.606060606060606
1.5933528836754642
1.5826001955034212
1.5698924731182795
1.5562072336265884
1.541544477028348
1.5249266862170088
1.5083088954056696
1.4897360703812317
1.469208211143695
1.4467253176930597
1.423264907135875
1.3978494623655917
1.3782991202346042
1.3607038123167154
1.3401759530791788
1.3196480938416422
1.2991202346041055
1.2795698924731185
1.2590420332355816
1.2394916911045943
1.2218963831867058
1.2043010752688172
1.1867057673509287
1.1710654936461389
1.1564027370478984
1.1456500488758554
1.1348973607038124
1.118279569892473
1.0977517106549364
1.078201368523949
1.0694037145650048
1.083088954056696
1.133919843597263
1.2316715542521994
1.380254154447703
1.5757575757575757
1.804496578690127
2.01564027370479
2.207233626588465
2.406647116324536
2.5865102639296187
2.7311827956989245
2.838709677419355
2.9120234604105573
2.956011730205278
2.9765395894428157
2.979472140762464
2.9687194525904204
2.946236559139785
2.913000977517106
2.8729227761485827
2.8260019550342133
2.76930596285435
2.704789833822092
2.63049853372434
2.548387096774193
2.458455522971652
2.3626588465298144
2.2639296187683287
2.1652003910068425
2.069403714565005
1.981427174975562
1.9090909090909087
1.8504398826979471
1.7947214076246334
1.7468230694037146
1.7086999022482894
1.6774193548387095
1.6520039100684265
1.6304985337243405
1.6109481915933528
1.5933528836754642
1.5757575757575757
1.5571847507331378
1.5376344086021505
1.521016617790811
1.5063538611925709
1.487781036168133
1.466275659824047
1.4428152492668622
1.4193548387096775
1.393939393939394
1.3685239491691104
1.343108504398827
1.3186705767350928
1.295210166177908
1.273704789833822
1.2580645161290325
1.2453567937438903
1.2297165200391007
1.2130987292277615
1.1964809384164223
1.1798631476050832
1.164222873900293
1.1485826001955035
1.1319648093841643
1.1143695014662756
1.0948191593352885
1.072336265884653
1.050830889540567
1.0391006842619743
1.0420332355816226
1.0684261974584557
1.1329423264907137
1.2453567937438903
1.4076246334310851
1.611925708699902
1.8416422287390029
2.0772238514174
2.2991202346041058
2.4916911045943304
2.6471163245356792
2.752688172043011
2.819159335288368
2.868035190615836
2.898338220918866
2.911045943304008
2.9100684261974585
2.897360703812317
2.873900293255132
2.8396871945259043
2.795698924731183
2.740957966764418
2.67644183773216
2.6021505376344085
2.5288367546432062
2.452590420332356
2.3626588465298144
2.264907135874878
2.164222873900293
2.0635386119257086
1.9667644183773216
1.8778103616813293
1.7986314760508308
1.732160312805474
1.6774193548387095
1.6334310850439884
1.6021505376344083
1.5796676441837731
1.5591397849462365
1.542521994134897
1.5268817204301075
1.5131964809384164
1.499511241446725
1.4838709677419355
1.4672531769305963
1.4496578690127078
1.4291300097751711
1.4076246334310851
1.3890518084066472
1.3724340175953078
1.3509286412512218
1.327468230694037
1.3040078201368523
1.2795698924731185
1.2551319648093842
1.23069403714565
1.2072336265884651
1.1857282502443791
1.1652003910068427
1.1456500488758554
1.1290322580645162
1.1173020527859236
1.1085043988269794
1.0977517106549364
1.0869990224828934
1.0742913000977516
1.0586510263929618
1.0391006842619743
1.0175953079178883
0.9990224828934506
0.9931573802541545
1.0146627565982405
1.075268817204301
1.163245356793744
1.284457478005865
1.4604105571847508
1.6735092864125125
1.9042033235581624
2.1300097751710654
2.333333333333333
2.501466275659824
2.63049853372434
2.7233626588465296
2.782991202346041
2.817204301075269
2.83088954056696
2.8289345063538613
2.8152492668621703
2.792766373411535
2.7614858260019552
2.720430107526881
2.668621700879765
2.6070381231671558
2.536656891495601
2.4565004887585533
2.3685239491691106
2.272727272727273
2.172043010752688
2.0821114369501466
1.9980449657869013
1.90811339198436
1.8201368523949168
1.7419354838709675
1.6744868035190617
1.6187683284457477
1.5728250244379276
1.5376344086021505
1.5112414467253177
1.490713587487781
1.474095796676442
1.4594330400782014
1.4486803519061584
1.439882697947214
1.4291300097751711
1.41544477028348
1.3998044965786902
1.3812316715542523
1.3607038123167154
1.3391984359726294
1.316715542521994
1.2932551319648091
1.2697947214076246
1.24633431085044
1.2287390029325511
1.2140762463343109
1.1964809384164223
1.176930596285435
1.1573802541544478
1.1378299120234605
1.1192570869990224
1.1026392961876832
1.0879765395894427
1.0733137829912025
1.0586510263929618
1.0410557184750733
1.0205278592375366
1.002932551319648
0.9882697947214076
0.9726295210166178
0.9687194525904204
0.9902248289345064
1.0518084066471165
1.1622678396871946
1.3235581622678396
1.5268817204301075
1.7565982404692082
1.992179863147605
2.2140762463343107
2.3870967741935485
2.517106549364614
2.63049853372434
2.716520039100684
2.774193548387097
2.807429130009776
2.8211143695014664
2.819159335288368
2.8044965786901277
2.779081133919844
2.7438905180840663
2.6989247311827955
2.643206256109482
2.5855327468230693
2.52297165200391
2.447702834799609
2.363636363636364
2.272727272727273
2.176930596285435
2.0791788856304985
1.9833822091886608
1.895405669599218
1.8172043010752688
1.7487781036168133
1.6930596285434996
1.6529814271749756
1.6236559139784943
1.5992179863147604
1.581622678396872
1.56891495601173
1.5591397849462365
1.5503421309872922
1.5405669599217986
1.5288367546432062
1.5151515151515151
1.498533724340176
1.478983382209189
1.458455522971652
1.4418377321603129
1.426197458455523
1.4076246334310851
1.3870967741935485
1.3665689149560116
1.3440860215053765
1.321603128054741
1.2981427174975562
1.2746823069403714
1.252199413489736
1.23069403714565
1.2111436950146628
1.1964809384164223
1.1857282502443791
1.1730205278592376
1.1593352883675463
1.1456500488758554
1.1300097751710656
1.1133919843597262
1.0948191593352885
1.075268817204301
1.06158357771261
1.0654936461388074
1.099706744868035
1.1759530791788857
1.2766373411534702
1.4086021505376345
1.5962854349951123
1.8201368523949168
2.0576735092864125
2.2873900293255134
2.49266862170088
2.6608015640273703
2.7869012707722387
2.875855327468231
2.932551319648094
2.963831867057673
2.972629521016618
2.9667644183773216
2.952101661779081
2.927663734115347
2.8944281524926687
2.852394916911046
2.7996089931573804
2.7370478983382207
2.6637341153470184
2.581622678396872
2.490713587487781
2.3929618768328447
2.29227761485826
2.201368523949169
2.117302052785924
2.029325513196481
1.946236559139785
1.8729227761485825
1.8084066471163245
1.7546432062561097
1.7116324535679377
1.6774193548387095
1.651026392961877
1.6304985337243405
1.6138807429130009
1.6011730205278591
1.5894428152492668
1.576735092864125
1.5620723362658846
1.547409579667644
1.530791788856305
1.512218963831867
1.4916911045943304
1.4701857282502444
1.447702834799609
1.4242424242424243
1.4007820136852396
1.3763440860215057
1.3558162267839686
1.33822091886608
1.3176930596285434
1.2961876832844574
1.273704789833822
1.252199413489736
1.2424242424242424
1.2394916911045943
1.2297165200391007
1.217008797653959
1.2043010752688172
1.1906158357771262
1.1798631476050832
1.1681329423264908
1.1495601173020529
1.1280547409579669
1.1124144672531768
1.1143695014662756
1.1466275659824048
1.2209188660801564
1.3450635386119256
1.5180840664711632
1.7282502443792769
1.9579667644183771
2.1593352883675463
2.334310850439883
2.50733137829912
2.6559139784946235
2.773216031280548
2.857282502443793
2.911045943304008
2.941348973607038
2.95405669599218
2.952101661779081
2.93841642228739
2.913978494623656
2.878787878787879
2.8377321603128056
2.789833822091887
2.730205278592375
2.659824046920821
2.5806451612903225
2.493646138807429
2.39980449657869
2.3010752688172045
2.201368523949169
2.102639296187683
2.0087976539589443
1.9237536656891496
1.855327468230694
1.8005865102639296
1.750733137829912
1.70772238514174
1.672531769305963
1.6441837732160314
1.6217008797653958
1.603128054740958
1.5865102639296187
1.5698924731182795
1.5532746823069403
1.5366568914956011
1.5190615835777126
1.5034213098729228
1.4887585532746823
1.4701857282502444
1.4486803519061584
1.4271749755620724
1.4056695992179864
1.3841642228739004
1.3636363636363635
1.3421309872922775
1.3206256109481915
1.2991202346041055
1.2776148582600195
1.2609970674486803
1.2473118279569892
1.2297165200391007
1.2121212121212122
1.1964809384164223
1.1808406647116323
1.166177908113392
1.1505376344086022
1.133919843597263
1.1133919843597262
1.0899315738025417
1.0694037145650048
1.0606060606060606
1.0694037145650048
1.1055718475073313
1.1837732160312806
1.310850439882698
1.4848484848484849
1.696969696969697
1.9296187683284456
2.161290322580645
