ppg
1.689149560117302
1.6744868035190617
1.6666666666666667
1.6627565982404693
1.6598240469208212
1.656891495601173
1.6529814271749756
1.6471163245356797
1.6373411534701858
1.6226783968719452
1.6041055718475072
1.581622678396872
1.5532746823069403
1.525904203323558
1.499511241446725
1.469208211143695
1.4408602150537635
1.4222873900293256
1.423264907135875
1.4535679374389052
1.5180840664711632
1.6177908113391983
1.747800586510264
1.900293255131965
2.0635386119257086
2.2052785923753664
2.3284457478005867
2.449657869012708
2.5542521994134897
2.634408602150537
2.6881720430107525
2.7155425219941347
2.719452590420332
2.705767350928641
2.679374389051808
2.6451612903225805
2.6050830889540566
2.5591397849462365
2.5131964809384164
2.4652981427174976
2.410557184750733
2.3489736070381237
2.2795698924731185
2.203323558162268
2.1192570869990224
2.027370478983382
1.9305962854349952
1.8318670576735088
1.7360703812316716
1.6451612903225807
1.5708699902248289
1.5131964809384164
1.4604105571847508
1.418377321603128
1.391006842619746
1.3782991202346042
1.3773216031280548
1.3841642228739004
1.396871945259042
1.4115347018572826
1.426197458455523
1.4389051808406648
1.447702834799609
1.4535679374389052
1.4545454545454546
1.4496578690127078
1.4389051808406648
1.4222873900293256
1.4007820136852396
1.3763440860215057
1.3479960899315735
1.3176930596285434
1.2864125122189638
1.2561094819159335
1.2258064516129032
1.2023460410557183
1.1827956989247312
1.160312805474096
1.1378299120234605
1.1173020527859236
1.096774193548387
1.078201368523949
1.0625610948191593
1.0488758553274682
1.0371456500488758
1.0263929618768328
1.0156402737047898
1.0058651026392962
1.0
0.9960899315738024
0.989247311827957
0.981427174975562
0.9745845552297164
0.9687194525904204
0.9648093841642228
0.9628543499511242
0.9618768328445748
0.9618768328445748
0.9618768328445748
0.9618768328445748
0.9638318670576737
0.9667644183773216
0.9657869012707724
0.9638318670576737
0.9628543499511242
0.9618768328445748
0.9618768328445748
0.9638318670576737
0.9667644183773216
0.9696969696969696
0.9726295210166178
0.975562072336266
0.981427174975562
0.9882697947214076
0.9931573802541545
0.997067448680352
1.0009775171065494
1.0058651026392962
1.010752688172043
1.0146627565982405
1.0166177908113392
1.0146627565982405
1.0087976539589445
1.0019550342130987
1.0039100684261977
1.0195503421309873
1.0576735092864125
1.1329423264907137
1.2531769305962854
1.423264907135875
1.6363636363636365
1.881720430107527
2.139784946236559
2.391006842619746
2.621700879765396
2.820136852394917
2.9804496578690127
3.089931573802541
3.161290322580645
3.218963831867057
3.2580645161290325
3.281524926686217
3.29227761485826
3.2932551319648096
3.2854349951124147
3.270772238514174
3.251221896383187
3.2277614858260018
3.201368523949169
3.1710654936461387
3.136852394916911
3.096774193548387
3.0527859237536656
3.002932551319648
2.946236559139785
2.881720430107527
2.807429130009776
2.724340175953079
2.633431085043988
2.536656891495601
2.4379276637341154
2.340175953079179
2.2551319648093844
2.179863147605083
2.1065493646138806
2.0410557184750733
1.9853372434017595
1.9393939393939397
1.9042033235581624
1.8807429130009776
1.8641251221896384
1.8514173998044965
1.8406647116324533
1.8299120234604105
1.8172043010752688
1.8035190615835777
1.7878787878787878
1.7673509286412512
1.7429130009775171
1.7165200391006843
1.6881720430107527
1.6578690127077225
1.624633431085044
1.5894428152492668
1.5513196480938416
1.5131964809384164
1.4760508308895406
1.4457478005865103
1.418377321603128
1.3870967741935485
1.3558162267839686
1.3255131964809383
1.2961876832844574
1.2688172043010753
1.2443792766373412
1.219941348973607
1.1974584555229717
1.1779081133919844
1.1612903225806452
1.1466275659824048
1.1378299120234605
1.1329423264907137
1.1270772238514175
1.121212121212121
1.1163245356793745
1.110459433040078
1.1055718475073313
1.1016617790811338
1.096774193548387
1.0918866080156402
1.0879765395894427
1.083088954056696
1.0811339198435972
1.0801564027370478
1.0762463343108504
1.0703812316715542
1.0606060606060606
1.0488758553274682
1.0391006842619743
1.040078201368524
1.0606060606060606
1.110459433040078
1.198435972629521
1.3304007820136852
1.5024437927663734
1.675464320625611
1.8533724340175952
2.0625610948191597
2.2766373411534704
2.4760508308895406
2.6480938416422286
2.7869012707722387
2.8914956011730206
2.9657869012707723
3.0127077223851417
3.040078201368524
3.050830889540567
3.046920821114369
3.032258064516129
3.0146627565982405
2.9931573802541545
2.9687194525904204
2.941348973607038
2.8514173998044967
2.730205278592375
2.653958944281525
2.5972629521016617
2.548387096774193
2.501466275659824
2.450635386119257
2.398826979472141
2.343108504398827
2.2766373411534704
2.201368523949169
2.120234604105572
2.035190615835777
1.951124144672532
1.870967741935484
1.7986314760508308
1.7350928641251222
1.6823069403714566
1.6412512218963833
1.6138807429130009
1.5962854349951123
1.5835777126099706
1.576735092864125
1.573802541544477
1.5728250244379276
1.5708699902248289
1.5669599217986314
1.560117302052786
1.5493646138807429
1.5356793743890518
1.5180840664711632
1.4975562072336266
1.478983382209189
1.4613880742913
1.4389051808406648
1.412512218963832
1.3851417399804498
1.356793743890518
1.3284457478005864
1.3010752688172045
1.2746823069403714
1.249266862170088
1.224828934506354
1.2023460410557183
1.1867057673509287
1.1749755620723363
1.160312805474096
1.144672531769306
1.1290322580645162
1.115347018572825
1.1036168132942326
1.093841642228739
1.086021505376344
1.0801564027370478
1.0762463343108504
1.072336265884653
1.0694037145650048
1.0694037145650048
1.0703812316715542
1.0694037145650048
1.067448680351906
1.064516129032258
1.0596285434995112
1.0527859237536656
1.0439882697947214
1.0342130987292275
1.0273704789833822
1.0303030303030305
1.0518084066471165
1.0899315738025417
1.152492668621701
1.2541544477028348
1.392961876832845
1.563049853372434
1.7526881720430108
1.9472140762463344
2.133919843597263
2.302052785923754
2.4457478005865103
2.5591397849462365
2.643206256109482
2.695014662756598
2.721407624633431
2.73802541544477
2.742913000977517
2.739980449657869
2.729227761485826
2.713587487781036
2.6940371456500487
2.6725317693059627
2.649071358748778
2.622678396871945
2.593352883675464
2.5620723362658846
2.5288367546432062
2.49266862170088
2.4516129032258065
2.404692082111437
2.3519061583577714
2.29227761485826
2.225806451612903
2.1515151515151514
2.0733137829912023
1.9931573802541545
1.913978494623656
1.8387096774193548
1.7761485826001957
1.7243401759530792
1.6764418377321604
1.6363636363636365
1.606060606060606
1.585532746823069
1.5728250244379276
1.5669599217986314
1.5650048875855327
1.563049853372434
1.560117302052786
1.5542521994134897
1.5464320625610948
1.5376344086021505
1.5268817204301075
1.5131964809384164
1.495601173020528
1.4750733137829912
1.4535679374389052
1.4301075268817205
1.4037145650048877
1.3763440860215057
1.3479960899315735
1.3206256109481915
1.2932551319648091
1.2717497556207231
1.2531769305962854
1.2316715542521994
1.209188660801564
1.1886608015640274
1.1700879765395895
1.152492668621701
1.1368523949169111
1.1231671554252198
1.110459433040078
1.1006842619745845
1.0928641251221896
1.0879765395894427
1.086021505376344
1.086021505376344
1.0850439882697946
1.083088954056696
1.0811339198435972
1.0791788856304985
1.0772238514173995
1.0742913000977516
1.0703812316715542
1.0635386119257086
1.053763440860215
1.0439882697947214
1.040078201368524
1.04594330400782
1.067448680351906
1.1143695014662756
1.195503421309873
1.3147605083088951
1.4672531769305963
1.6471163245356797
1.842619745845552
2.0391006842619745
2.2218963831867056
2.383186705767351
2.517106549364614
2.610948191593353
2.674486803519061
2.7262952101661777
2.7624633431085046
2.7839687194525906
2.792766373411535
2.792766373411535
2.7839687194525906
2.768328445747801
2.747800586510264
2.724340175953079
2.6989247311827955
2.6715542521994133
2.6422287390029324
2.610948191593353
2.5777126099706744
2.539589442815249
2.496578690127077
2.447702834799609
2.3929618768328447
2.3304007820136854
2.260997067448681
2.1837732160312804
2.102639296187683
2.0205278592375366
1.948191593352884
1.8836754643206255
1.818181818181818
1.7575757575757576
1.7067448680351909
1.664711632453568
1.6334310850439884
1.6129032258064515
1.6011730205278591
1.5943304007820136
1.590420332355816
1.5865102639296187
1.58455522971652
1.5806451612903225
1.573802541544477
1.563049853372434
1.5493646138807429
1.5327468230694037
1.5151515151515151
1.4946236559139785
1.4711632453567938
1.4457478005865103
1.4173998044965788
1.3890518084066472
1.3607038123167154
1.3372434017595307
1.3157380254154447
1.29227761485826
1.267839687194526
1.2443792766373412
1.2228739002932552
1.203323558162268
1.18475073313783
1.1681329423264908
1.152492668621701
1.1378299120234605
1.126099706744868
1.1192570869990224
1.1163245356793745
1.1114369501466277
1.1065493646138806
1.1016617790811338
1.0957966764418376
1.0909090909090908
1.0869990224828934
1.0840664711632453
1.0801564027370478
1.0742913000977516
1.0664711632453567
1.056695992179863
1.0488758553274682
1.0439882697947214
1.043010752688172
1.0557184750733135
1.0909090909090908
1.1593352883675463
1.2649071358748778
1.4066471163245358
1.5796676441837731
1.7741935483870968
1.975562072336266
2.16911045943304
2.364613880742913
2.552297165200391
2.705767350928641
2.823069403714565
2.90811339198436
2.964809384164223
2.997067448680352
3.0117302052785924
3.013685239491691
3.004887585532747
2.989247311827957
2.967741935483871
2.9423264907135875
2.913978494623656
2.8826979472140764
2.850439882697948
2.8152492668621703
2.7781036168132944
2.7370478983382207
2.6901270772238512
2.636363636363636
2.575757575757576
2.50733137829912
2.429130009775171
2.3440860215053765
2.2639296187683287
2.1837732160312804
2.0948191593352883
2.003910068426197
1.9159335288367547
1.8347996089931573
1.7644183773216031
1.7067448680351909
1.6627565982404693
1.632453567937439
1.6129032258064515
1.603128054740958
1.5972629521016617
1.5933528836754642
1.590420332355816
1.587487781036168
1.5826001955034212
1.5747800586510263
1.563049853372434
1.547409579667644
1.5268817204301075
1.5024437927663734
1.4750733137829912
1.444770283479961
1.4134897360703813
1.3870967741935485
1.3636363636363635
1.3362658846529814
1.3069403714565004
1.2776148582600195
1.2482893450635386
1.219941348973607
1.1925708699902249
1.166177908113392
1.142717497556207
1.1231671554252198
1.1055718475073313
1.0948191593352885
1.0879765395894427
1.0801564027370478
1.0713587487781036
1.06158357771261
1.0527859237536656
1.04594330400782
1.040078201368524
1.0332355816226784
1.0283479960899315
1.0224828934506354
1.0156402737047898
1.007820136852395
1.0019550342130987
0.9960899315738024
0.9853372434017597
0.9745845552297164
0.967741935483871
0.9726295210166178
0.9980449657869012
1.053763440860215
1.1485826001955035
1.284457478005865
1.4604105571847508
1.667644183773216
1.86119257086999
2.043010752688172
2.239491691104594
2.4281524926686218
2.592375366568915
2.7253176930596283
2.8260019550342133
2.898338220918866
2.945259042033236
2.9716520039100685
2.983382209188661
2.983382209188661
2.9745845552297165
2.956989247311828
2.9335288367546437
2.90811339198436
2.878787878787879
2.84652981427175
2.812316715542522
2.7751710654936463
2.735092864125122
2.6901270772238512
2.6392961876832843
2.5806451612903225
2.515151515151515
2.450635386119257
2.3822091886608017
2.3010752688172045
2.210166177908113
2.115347018572825
2.0205278592375366
1.9305962854349952
1.8484848484848484
1.7771260997067448
1.7194525904203324
1.6735092864125125
1.6392961876832846
1.6158357771260996
1.6021505376344083
1.5943304007820136
1.590420332355816
1.587487781036168
1.5835777126099706
1.5777126099706744
1.56891495601173
1.5581622678396871
1.543499511241447
1.525904203323558
1.5034213098729228
1.478005865102639
1.455522971652004
1.4330400782013686
1.4056695992179864
1.3763440860215057
1.346041055718475
1.3157380254154447
1.2864125122189638
1.2570869990224829
1.2287390029325511
1.2023460410557183
1.1788856304985338
1.1573802541544478
1.1368523949169111
1.1221896383186705
1.110459433040078
1.096774193548387
1.0840664711632453
1.0733137829912025
1.0635386119257086
1.0557184750733135
1.0488758553274682
1.0439882697947214
1.040078201368524
1.0371456500488758
1.0332355816226784
1.0312805474095796
1.029325513196481
1.0224828934506354
1.0127077223851415
1.0
0.9872922776148584
0.9794721407624634
0.9853372434017597
1.013685239491691
1.075268817204301
1.1798631476050832
1.327468230694037
1.5151515151515151
1.7008797653958945
1.8856304985337244
2.0948191593352883
2.302052785923754
2.490713587487781
2.6510263929618767
2.777126099706745
2.8690127077223853
2.9315738025415445
2.9696969696969697
2.989247311827957
2.995112414467253
2.988269794721408
2.9716520039100685
2.9530791788856305
2.9315738025415445
2.9071358748778104
2.8807429130009776
2.850439882697948
2.817204301075269
2.7810361681329425
2.740957966764418
2.695014662756598
2.6422287390029324
2.581622678396872
2.5210166177908118
2.455522971652004
2.376344086021505
2.2883675464320627
2.1945259042033234
2.0987292277614857
2.003910068426197
1.9159335288367547
1.8377321603128052
1.772238514173998
1.7194525904203324
1.6813294232649072
1.656891495601173
1.6422287390029326
1.6334310850439884
1.629521016617791
1.6275659824046922
1.624633431085044
1.6207233626588464
1.6129032258064515
1.6011730205278591
1.58455522971652
1.5650048875855327
1.541544477028348
1.5151515151515151
1.4916911045943304
1.469208211143695
1.4418377321603129
1.4115347018572826
1.3812316715542523
1.3499511241446724
1.3186705767350928
1.2873900293255132
1.2580645161290325
1.2287390029325511
1.2013685239491692
1.176930596285435
1.1593352883675463
1.1456500488758554
1.130987292277615
1.1173020527859236
1.1055718475073313
1.0957966764418376
1.0879765395894427
1.0801564027370478
1.0733137829912025
1.067448680351906
1.0625610948191593
1.056695992179863
1.0518084066471165
1.050830889540567
1.0498533724340176
1.0449657869012707
1.0381231671554252
1.0283479960899315
1.0166177908113392
1.0166177908113392
1.0283479960899315
1.0478983382209188
1.0899315738025417
1.164222873900293
1.2776148582600195
1.4056695992179864
1.5513196480938416
1.7390029325513197
1.9501466275659824
2.164222873900293
2.3655913978494625
2.541544477028348
2.6881720430107525
2.801564027370479
2.884652981427175
2.941348973607038
2.975562072336266
2.992179863147605
2.994134897360704
2.98435972629521
2.9696969696969697
2.9501466275659824
2.9286412512218964
2.9042033235581624
2.875855327468231
2.8455522971652005
2.812316715542522
2.776148582600196
2.735092864125122
2.689149560117302
2.641251221896383
2.591397849462365
2.530791788856305
2.4604105571847508
2.380254154447703
2.29227761485826
2.19941348973607
2.104594330400782
2.010752688172043
1.921798631476051
1.8435972629521016
1.7771260997067448
1.7272727272727273
1.6920821114369502
1.664711632453568
1.6451612903225807
1.632453567937439
1.624633431085044
1.6187683284457477
1.6129032258064515
1.6050830889540566
1.595307917888563
1.5826001955034212
1.565982404692082
1.5464320625610948
1.5278592375366569
1.5083088954056696
1.4838709677419355
1.456500488758553
1.426197458455523
1.3958944281524928
1.364613880742913
1.3333333333333333
1.3020527859237536
1.2727272727272727
1.2443792766373412
1.2179863147605083
1.198435972629521
1.181818181818182
1.1622678396871946
1.1436950146627567
1.126099706744868
1.1094819159335287
1.0948191593352885
1.0821114369501466
1.0713587487781036
1.0606060606060606
1.0527859237536656
1.0469208211143697
1.0410557184750733
1.0381231671554252
1.0371456500488758
1.032258064516129
1.0273704789833822
1.0205278592375366
1.0117302052785924
1.0009775171065494
0.9882697947214076
0.9765395894428152
0.9716520039100685
0.9833822091886608
1.0224828934506354
1.0811339198435972
1.166177908113392
1.2961876832844574
1.466275659824047
1.6666666666666667
1.8836754643206255
2.1006842619745845
2.303030303030303
2.479960899315738
2.624633431085044
2.736070381231672
2.81622678396872
2.870967741935484
2.898338220918866
2.9071358748778104
2.909090909090909
2.903225806451613
2.8905180840664717
2.8719452590420333
2.8484848484848486
2.8211143695014664
2.790811339198436
2.7595307917888565
2.727272727272727
2.6911045943304006
2.6529814271749754
2.6129032258064515
2.565982404692082
2.5112414467253177
2.447702834799609
2.3743890518084068
2.294232649071359
2.207233626588465
2.115347018572825
2.022482893450636
1.9305962854349952
1.844574780058651
1.7683284457478006
1.710654936461388
1.667644183773216
1.6314760508308896
1.6041055718475072
1.585532746823069
1.5757575757575757
1.5728250244379276
1.5728250244379276
1.5728250244379276
1.5708699902248289
1.565982404692082
1.555229716520039
1.543499511241447
1.5288367546432062
1.509286412512219
1.4868035190615836
1.4623655913978495
1.4349951124144673
1.4066471163245358
1.3773216031280548
1.3470185728250244
1.316715542521994
1.2864125122189638
1.2570869990224829
1.2287390029325511
1.2082111436950147
1.1906158357771262
1.1700879765395895
1.1485826001955035
1.1280547409579669
1.1094819159335287
1.0918866080156402
1.0762463343108504
1.06158357771261
1.0488758553274682
1.0381231671554252
1.0283479960899315
1.024437927663734
1.0234604105571847
1.021505376344086
1.018572825024438
1.0175953079178883
1.0156402737047898
1.0117302052785924
1.0058651026392962
0.9990224828934506
0.9882697947214076
0.9765395894428152
0.967741935483871
0.9696969696969696
0.9863147605083088
1.0263929618768328
1.1016617790811338
1.2179863147605083
1.3773216031280548
1.5708699902248289
1.7859237536656891
2.007820136852395
2.219941348973607
2.409579667644184
2.56891495601173
2.6940371456500487
2.777126099706745
2.8299120234604107
2.8690127077223853
2.89247311827957
2.9012707722385143
2.8993157380254155
2.889540566959922
2.873900293255132
2.852394916911046
2.8269794721407626
2.7996089931573804
2.76930596285435
2.7370478983382207
2.704789833822092
2.6695992179863146
2.63049853372434
2.5855327468230693
2.533724340175953
2.474095796676442
2.4056695992179864
2.3274682306940373
2.241446725317693
2.150537634408602
2.058651026392962
1.9687194525904204
1.8914956011730208
1.825024437927664
1.761485826001955
1.70772238514174
1.6627565982404693
1.6285434995112416
1.6050830889540566
1.5923753665689149
1.585532746823069
1.5826001955034212
1.5806451612903225
1.5786901270772238
1.573802541544477
1.5679374389051808
1.5591397849462365
1.544477028347996
1.5249266862170088
1.5024437927663734
1.47702834799609
1.447702834799609
1.4173998044965788
1.388074291300098
1.3587487781036167
1.3304007820136852
1.303030303030303
1.281524926686217
1.2619745845552297
1.2394916911045943
1.2160312805474096
1.1915933528836755
1.1671554252199414
1.144672531769306
1.1251221896383188
1.10752688172043
1.0918866080156402
1.0791788856304985
1.0684261974584557
1.0625610948191593
1.0713587487781036
1.083088954056696
1.0850439882697946
1.0850439882697946
1.083088954056696
1.0811339198435972
1.0772238514173995
1.0703812316715542
1.0635386119257086
1.0557184750733135
1.04594330400782
1.0342130987292275
1.0273704789833822
1.0263929618768328
1.0332355816226784
1.0596285434995112
1.1163245356793745
1.2111436950146628
1.3470185728250244
1.520039100684262
1.721407624633431
1.93841642228739
2.1544477028347995
2.35386119257087
2.509286412512219
2.6285434995112413
2.7341153470185726
2.81622678396872
2.8729227761485827
2.90811339198436
2.9257086999022484
2.927663734115347
2.918866080156403
2.9042033235581624
2.884652981427175
2.8611925708699903
2.835777126099707
2.809384164222874
2.7810361681329425
2.7517106549364616
2.721407624633431
2.686217008797654
2.6451612903225805
2.5992179863147604
2.5464320625610948
2.4858260019550342
2.4164222873900294
2.3391984359726297
2.2561094819159337
2.177908113391984
2.102639296187683
2.021505376344086
1.9413489736070384
1.868035190615836
1.8035190615835777
1.7517106549364614
1.7126099706744868
1.6842619745845553
1.6656891495601174
1.653958944281525
1.6471163245356797
1.6422287390029326
1.6392961876832846
1.635386119257087
1.6285434995112416
1.619745845552297
1.607038123167155
1.590420332355816
1.56891495601173
1.543499511241447
1.5161290322580645
1.4858260019550342
1.455522971652004
1.4252199413489737
1.4007820136852396
1.3782991202346042
1.3528836754643203
1.327468230694037
1.3020527859237536
1.2776148582600195
1.2561094819159335
1.2355816226783969
1.2150537634408602
1.195503421309873
1.176930596285435
1.1612903225806452
1.1485826001955035
1.141739980449658
1.1378299120234605
1.133919843597263
1.1300097751710656
1.1270772238514175
1.1241446725317692
1.1202346041055715
1.115347018572825
1.110459433040078
1.1036168132942326
1.0957966764418376
1.0869990224828934
1.0811339198435972
1.075268817204301
1.0664711632453567
1.0586510263929618
1.0596285434995112
1.0772238514173995
1.1241446725317692
1.2082111436950147
1.3343108504398826
1.500488758553275
1.6959921798631477
1.9100684261974583
2.1270772238514173
2.3069403714565007
2.4565004887585533
2.60019550342131
2.7223851417399803
2.817204301075269
2.8836754643206257
2.9266862170087977
2.951124144672532
2.959921798631476
2.956011730205278
2.9442815249266863
2.9266862170087977
2.9042033235581624
2.87683284457478
2.8484848484848486
2.819159335288368
2.787878787878788
2.755620723362659
2.719452590420332
2.6803519061583576
2.636363636363636
2.5855327468230693
2.527859237536657
2.462365591397849
2.3870967741935485
2.314760508308896
2.241446725317693
2.156402737047898
2.067448680351906
1.9794721407624636
1.8963831867057677
1.822091886608016
1.7605083088954057
1.710654936461388
1.672531769305963
1.6451612903225807
1.6275659824046922
1.6187683284457477
1.6148582600195502
1.6129032258064515
1.6109481915933528
1.607038123167155
1.5992179863147604
1.587487781036168
1.5718475073313782
1.5513196480938416
1.5288367546432062
1.504398826979472
1.47702834799609
1.447702834799609
1.423264907135875
1.401759530791789
1.3763440860215057
1.348973607038123
1.3196480938416422
1.2903225806451613
1.2619745845552297
1.2355816226783969
1.2101661779081134
1.1857282502443791
1.164222873900293
1.1456500488758554
1.1329423264907137
1.1241446725317692
1.1124144672531768
1.1006842619745845
1.0899315738025417
1.0801564027370478
1.0713587487781036
1.064516129032258
1.0586510263929618
1.0547409579667644
1.0518084066471165
1.0488758553274682
1.0469208211143697
1.0478983382209188
1.0498533724340176
1.0478983382209188
1.0420332355816226
1.0332355816226784
1.0234604105571847
1.0195503421309873
1.0303030303030305
1.0635386119257086
1.1290322580645162
1.2355816226783969
1.383186705767351
1.5376344086021505
1.699902248289345
1.8963831867057677
2.102639296187683
2.3010752688172045
2.4780058651026398
2.624633431085044
2.739980449657869
2.8240469208211145
2.8807429130009776
2.9149560117302054
2.9315738025415445
2.9345063538611926
2.9237536656891496
2.905180840664712
2.8836754643206257
2.859237536656892
2.832844574780059
2.8054740957966766
2.7751710654936463
2.742913000977517
2.70772238514174
2.668621700879765
2.624633431085044
2.573802541544477
2.5210166177908118
2.464320625610948
2.3958944281524928
2.318670576735093
2.2346041055718477
2.144672531769306
2.0518084066471163
1.9608993157380252
1.8758553274682308
1.7996089931573802
1.7350928641251222
1.6823069403714566
1.6441837732160314
1.6177908113391983
1.5972629521016617
