ppg
1.585532746823069
1.7419354838709675
1.90811339198436
2.078201368523949
2.247311827956989
2.4115347018572826
2.5640273704789838
2.7008797653958942
2.8025415444770285
2.878787878787879
2.9501466275659824
3.005865102639296
3.0439882697947214
3.0635386119257086
3.065493646138808
3.0498533724340176
3.0195503421309877
2.9775171065493646
2.9237536656891496
2.8611925708699903
2.795698924731183
2.7262952101661777
2.649071358748778
2.565982404692082
2.4789833822091887
2.389051808406647
2.2961876832844577
2.2023460410557183
2.10850439882698
2.0146627565982405
1.9227761485826005
1.833822091886608
1.7565982404692082
1.6881720430107527
1.616813294232649
1.5464320625610948
1.4809384164222874
1.4213098729227762
1.367546432062561
1.3206256109481915
1.2805474095796676
1.2482893450635386
1.2228739002932552
1.2052785923753666
1.1935483870967742
1.1886608015640274
1.1886608015640274
1.1906158357771262
1.195503421309873
1.203323558162268
1.2121212121212122
1.2218963831867058
1.23069403714565
1.2394916911045943
1.2473118279569892
1.2541544477028348
1.260019550342131
1.2649071358748778
1.267839687194526
1.2688172043010753
1.2688172043010753
1.2658846529814272
1.260019550342131
1.2541544477028348
1.24633431085044
1.2365591397849462
1.224828934506354
1.2121212121212122
1.1994134897360704
1.1867057673509287
1.1759530791788857
1.166177908113392
1.1534701857282503
1.1397849462365592
1.126099706744868
1.1124144672531768
1.0987292277614855
1.086021505376344
1.0742913000977516
1.0625610948191593
1.0518084066471165
1.0410557184750733
1.0342130987292275
1.029325513196481
1.0224828934506354
1.0156402737047898
1.007820136852395
1.0
0.9931573802541545
0.9863147605083088
0.9794721407624634
0.9736070381231672
0.967741935483871
0.9618768328445748
0.9696969696969696
0.9882697947214076
1.0039100684261977
1.0205278592375366
1.04594330400782
1.083088954056696
1.1368523949169111
1.2082111436950147
1.300097751710655
1.4105571847507332
1.5386119257087
1.6803519061583578
1.8328445747800584
1.9687194525904204
2.093841642228739
2.233626588465298
2.3743890518084068
2.506353861192571
2.625610948191593
2.727272727272727
2.809384164222874
2.870967741935484
2.911045943304008
2.9315738025415445
2.9345063538611926
2.920821114369501
2.89345063538612
2.8563049853372435
2.809384164222874
2.7536656891495603
2.689149560117302
2.6177908113391983
2.5405669599217986
2.4594330400782014
2.376344086021505
2.290322580645161
2.203323558162268
2.115347018572825
2.0361681329423265
1.962854349951124
1.8836754643206255
1.8035190615835777
1.7243401759530792
1.6471163245356797
1.5747800586510263
1.5073313782991202
1.4457478005865103
1.3900293255131966
1.3411534701857282
1.2991202346041055
1.2639296187683284
1.2394916911045943
1.2218963831867058
1.2072336265884651
1.1974584555229717
1.1925708699902249
1.1915933528836755
1.195503421309873
1.2023460410557183
1.2121212121212122
1.2218963831867058
1.2326490713587488
1.2424242424242424
1.252199413489736
1.2609970674486803
1.2688172043010753
1.2756598240469208
1.2795698924731185
1.2825024437927663
1.2825024437927663
1.2805474095796676
1.2776148582600195
1.2727272727272727
1.2658846529814272
1.2570869990224829
1.2473118279569892
1.238514173998045
1.23069403714565
1.219941348973607
1.2072336265884651
1.1945259042033236
1.1798631476050832
1.1652003910068427
1.1495601173020529
1.1348973607038124
1.1202346041055715
1.1065493646138806
1.0928641251221896
1.083088954056696
1.075268817204301
1.0654936461388074
1.0547409579667644
1.043010752688172
1.032258064516129
1.0224828934506354
1.013685239491691
1.0048875855327468
0.997067448680352
0.9902248289345064
0.9833822091886608
0.9765395894428152
0.9736070381231672
0.9726295210166178
0.9706744868035192
0.967741935483871
0.9638318670576737
0.959921798631476
0.9560117302052786
0.9530791788856304
0.95405669599218
0.9608993157380256
0.9775171065493646
1.0058651026392962
1.043010752688172
1.0909090909090908
1.160312805474096
1.2512218963831867
1.3616813294232648
1.4897360703812317
1.6314760508308896
1.782991202346041
1.9393939393939397
2.0948191593352883
2.2453567937438903
2.3841642228739004
2.5083088954056696
2.601173020527859
2.670576735092864
2.7341153470185726
2.7839687194525906
2.817204301075269
2.831867057673509
2.8289345063538613
2.8103616813294234
2.777126099706745
2.732160312805474
2.67644183773216
2.610948191593353
2.5454545454545454
2.4780058651026398
2.401759530791789
2.3196480938416424
2.232649071358749
2.1436950146627565
2.053763440860215
1.962854349951124
1.8729227761485825
1.7849462365591398
1.6989247311827955
1.616813294232649
1.547409579667644
1.487781036168133
1.4252199413489737
1.364613880742913
1.3079178885630498
1.2580645161290325
1.2140762463343109
1.1779081133919844
1.1485826001955035
1.1251221896383188
1.10752688172043
1.096774193548387
1.0899315738025417
1.0899315738025417
1.093841642228739
1.1006842619745845
1.1094819159335287
1.1202346041055715
1.130987292277615
1.142717497556207
1.1534701857282503
1.164222873900293
1.173998044965787
1.181818181818182
1.187683284457478
1.1925708699902249
1.1964809384164223
1.1974584555229717
1.1964809384164223
1.1935483870967742
1.1896383186705768
1.1827956989247312
1.173998044965787
1.164222873900293
1.1534701857282503
1.141739980449658
1.1290322580645162
1.1163245356793745
1.1065493646138806
1.0977517106549364
1.086021505376344
1.0733137829912025
1.0596285434995112
1.04594330400782
1.032258064516129
1.018572825024438
1.0058651026392962
0.9941348973607038
0.981427174975562
0.9687194525904204
0.9589442815249268
0.9521016617790812
0.9423264907135877
0.9315738025415444
0.9208211143695014
0.9110459433040078
0.9012707722385142
0.8914956011730205
0.8826979472140762
0.8758553274682307
0.8729227761485826
0.8748778103616813
0.8856304985337243
0.9042033235581622
0.9325513196480938
0.9775171065493646
1.040078201368524
1.121212121212121
1.219941348973607
1.3343108504398826
1.4633431085043989
1.6021505376344083
1.7448680351906158
1.8885630498533723
2.026392961876833
2.1388074291300097
2.231671554252199
2.324535679374389
2.407624633431085
2.4750733137829912
2.5249266862170088
2.5542521994134897
2.565982404692082
2.560117302052786
2.539589442815249
2.504398826979472
2.4565004887585533
2.3978494623655915
2.337243401759531
2.2737047898338223
2.20039100684262
2.1192570869990224
2.0332355816226784
1.943304007820137
1.8514173998044965
1.758553274682307
1.6666666666666667
1.576735092864125
1.490713587487781
1.4086021505376345
1.3401759530791788
1.281524926686217
1.219941348973607
1.155425219941349
1.1544477028347997
1.1515151515151516
1.1466275659824048
1.1407624633431086
1.1329423264907137
1.1241446725317692
1.115347018572825
1.1065493646138806
1.0957966764418376
1.088954056695992
1.083088954056696
1.0742913000977516
1.0635386119257086
1.0527859237536656
1.0420332355816226
1.0303030303030305
1.018572825024438
1.007820136852395
0.997067448680352
0.9863147605083088
0.975562072336266
0.9687194525904204
0.9638318670576737
0.9560117302052786
0.9472140762463344
0.9374389051808406
0.927663734115347
0.9188660801564028
0.9130009775171064
0.9110459433040078
0.913978494623656
0.9257086999022482
0.9491691104594332
0.9863147605083088
1.0312805474095796
1.0869990224828934
1.1622678396871946
1.2541544477028348
1.3607038123167154
1.478005865102639
1.6011730205278591
1.7272727272727273
1.8514173998044965
1.9687194525904204
2.0762463343108504
2.1710654936461387
2.241446725317693
2.29227761485826
2.3362658846529816
2.367546432062561
2.3841642228739004
2.386119257086999
2.372434017595308
2.345063538611926
2.3059628543499517
2.2561094819159337
2.196480938416422
2.1300097751710654
2.0557184750733137
1.986314760508309
1.9188660801564028
1.842619745845552
1.7624633431085044
1.6813294232649072
1.6021505376344083
1.5249266862170088
1.4506353861192571
1.380254154447703
1.3147605083088951
1.2541544477028348
1.1994134897360704
1.1564027370478984
1.1231671554252198
1.0909090909090908
1.06158357771261
1.0371456500488758
1.0175953079178883
1.0048875855327468
0.997067448680352
0.9931573802541545
0.9941348973607038
0.9990224828934506
1.0068426197458455
1.0175953079178883
1.0303030303030305
1.043010752688172
1.0557184750733135
1.0684261974584557
1.0791788856304985
1.088954056695992
1.0987292277614855
1.1065493646138806
1.1124144672531768
1.1163245356793745
1.1192570869990224
1.1202346041055715
1.1221896383186705
1.1241446725317692
1.1231671554252198
1.1202346041055715
1.1163245356793745
1.110459433040078
1.1026392961876832
1.093841642228739
1.0840664711632453
1.0742913000977516
1.0635386119257086
1.053763440860215
1.0469208211143697
1.0420332355816226
1.0332355816226784
1.0234604105571847
1.013685239491691
1.002932551319648
0.9921798631476052
0.981427174975562
0.9726295210166178
0.9667644183773216
0.9648093841642228
0.9687194525904204
0.981427174975562
1.0019550342130987
1.032258064516129
1.0762463343108504
1.1378299120234605
1.2160312805474096
1.310850439882698
1.418377321603128
1.5366568914956011
1.6627565982404693
1.7917888563049853
1.9178885630498532
2.0391006842619745
2.136852394916911
2.217986314760508
2.2981427174975564
2.3685239491691106
2.4252199413489737
2.4652981427174976
2.489736070381232
2.4975562072336266
2.490713587487781
2.4711632453567938
2.4389051808406648
2.3978494623655915
2.347996089931574
2.2961876832844577
2.242424242424242
2.179863147605083
2.1114369501466275
2.038123167155425
1.962854349951124
1.8856304985337244
1.8084066471163245
1.7311827956989247
1.6549364613880744
1.581622678396872
1.5112414467253177
1.452590420332356
1.4027370478983383
1.3509286412512218
1.3010752688172045
1.2551319648093842
1.2150537634408602
1.1798631476050832
1.1505376344086022
1.1280547409579669
1.1114369501466277
1.0987292277614855
1.0918866080156402
1.088954056695992
1.0899315738025417
1.0948191593352885
1.1006842619745845
1.10752688172043
1.115347018572825
1.1241446725317692
1.133919843597263
1.142717497556207
1.1505376344086022
1.1583577712609971
1.164222873900293
1.1700879765395895
1.1759530791788857
1.1808406647116323
1.1827956989247312
1.1837732160312806
1.1827956989247312
1.1808406647116323
1.176930596285435
1.1710654936461389
1.164222873900293
1.1564027370478984
1.147605083088954
1.1378299120234605
1.1270772238514175
1.1192570869990224
1.1133919843597262
1.104594330400782
1.093841642228739
1.0821114369501466
1.0703812316715542
1.0596285434995112
1.0518084066471165
1.0498533724340176
1.0547409579667644
1.0703812316715542
1.099706744868035
1.1368523949169111
1.1837732160312806
1.2502443792766371
1.3333333333333333
1.4320625610948192
1.544477028347996
1.6666666666666667
1.796676441837732
1.9286412512218964
2.058651026392962
2.182795698924731
2.2961876832844577
2.3958944281524928
2.4701857282502444
2.5239491691104594
2.5718475073313782
2.6080156402737047
2.63049853372434
2.6373411534701856
2.63049853372434
2.610948191593353
2.5806451612903225
2.5405669599217986
2.49266862170088
2.4379276637341154
2.4574780058651027
2.5112414467253177
2.496578690127077
2.4457478005865103
2.376344086021505
2.297165200391007
2.2130987292277613
2.126099706744868
2.0391006842619745
1.9530791788856303
1.8699902248289344
1.790811339198436
1.715542521994135
1.653958944281525
1.6011730205278591
1.5464320625610948
1.4936461388074291
1.4457478005865103
1.4027370478983383
1.3655913978494625
1.3343108504398826
1.310850439882698
1.2932551319648091
1.281524926686217
1.2746823069403714
1.2746823069403714
1.278592375366569
1.2825024437927663
1.2873900293255132
1.2942326490713587
1.3020527859237536
1.3118279569892473
1.3206256109481915
1.3294232649071358
1.33822091886608
1.346041055718475
1.3519061583577712
1.356793743890518
1.3607038123167154
1.364613880742913
1.3655913978494625
1.3636363636363635
1.359726295210166
1.35386119257087
1.346041055718475
1.3362658846529814
1.3255131964809383
1.313782991202346
1.3010752688172045
1.2873900293255132
1.2776148582600195
1.2688172043010753
1.2580645161290325
1.24633431085044
1.2365591397849462
1.2297165200391007
1.2287390029325511
1.2365591397849462
1.2561094819159335
1.2913000977517106
1.343108504398827
1.414467253176931
1.504398826979472
1.595307917888563
1.6930596285434996
1.81524926686217
1.95405669599218
2.101661779081134
2.251221896383187
2.3978494623655915
2.536656891495601
2.662756598240469
2.774193548387097
2.8670576735092865
2.941348973607038
2.988269794721408
3.0146627565982405
3.03128054740958
3.034213098729228
3.0234604105571847
2.99902248289345
2.962854349951124
2.916911045943304
2.86217008797654
2.798631476050831
2.729227761485826
2.653958944281525
2.5747800586510263
2.5004887585532747
2.4281524926686218
2.347996089931574
2.2629521016617797
2.175953079178885
2.088954056695992
2.0019550342130987
1.9159335288367547
1.8347996089931573
1.7575757575757576
1.686217008797654
1.619745845552297
1.5669599217986314
1.52297165200391
1.478983382209189
1.4389051808406648
1.4027370478983383
1.3724340175953078
1.3479960899315735
1.3294232649071358
1.3157380254154447
1.3069403714565004
1.3020527859237536
1.3020527859237536
1.3069403714565004
1.313782991202346
1.321603128054741
1.3304007820136852
1.3391984359726294
1.3479960899315735
1.356793743890518
1.3655913978494625
1.3714565004887584
1.375366568914956
1.3782991202346042
1.3792766373411536
1.3782991202346042
1.3782991202346042
1.3782991202346042
1.3763440860215057
1.3714565004887584
1.364613880742913
1.3558162267839686
1.346041055718475
1.335288367546432
1.3235581622678396
1.310850439882698
1.2981427174975562
1.284457478005865
1.2746823069403714
1.2658846529814272
1.2551319648093842
1.2434017595307918
1.23069403714565
1.2179863147605083
1.2052785923753666
1.1945259042033236
1.187683284457478
1.187683284457478
1.1974584555229717
1.2189638318670577
1.2561094819159335
1.303030303030303
1.3616813294232648
1.4428152492668622
1.5454545454545454
1.667644183773216
1.8064516129032255
1.9579667644183771
2.115347018572825
2.275659824046921
2.4330400782013686
2.582600195503421
2.719452590420332
2.825024437927664
2.906158357771261
2.983382209188661
3.046920821114369
3.093841642228739
3.12316715542522
3.133919843597263
3.1280547409579667
3.10752688172043
3.072336265884653
3.026392961876833
2.970674486803519
2.9071358748778104
2.8426197458455524
2.776148582600196
2.701857282502444
2.621700879765396
2.536656891495601
2.4486803519061584
2.357771260997068
2.2668621700879767
2.174975562072336
2.085043988269794
1.997067448680352
1.9130009775171064
1.842619745845552
1.7810361681329423
1.7174975562072337
1.656891495601173
1.5992179863147604
1.547409579667644
1.501466275659824
1.4623655913978495
1.4301075268817205
1.404692082111437
1.3851417399804498
1.3714565004887584
1.3636363636363635
1.3616813294232648
1.364613880742913
1.3695014662756595
1.375366568914956
1.383186705767351
1.3919843597262953
1.4007820136852396
1.409579667644184
1.4164222873900294
1.423264907135875
1.4281524926686218
1.4320625610948192
1.4349951124144673
1.436950146627566
1.436950146627566
1.434017595307918
1.4291300097751711
1.423264907135875
1.41544477028348
1.4056695992179864
1.3949169110459434
1.383186705767351
1.3714565004887584
1.3587487781036167
1.3450635386119256
1.335288367546432
1.327468230694037
1.3157380254154447
1.3020527859237536
1.2883675464320623
1.2756598240469208
1.262952101661779
1.2502443792766371
1.238514173998045
1.227761485826002
1.217008797653959
1.2072336265884651
1.2013685239491692
1.1964809384164223
1.1896383186705768
1.1827956989247312
1.176930596285435
1.1710654936461389
1.1652003910068427
1.1593352883675463
1.1544477028347997
1.1495601173020529
1.1456500488758554
1.141739980449658
1.1368523949169111
1.1358748778103618
1.13880742913001
1.142717497556207
1.152492668621701
1.1700879765395895
1.2003910068426198
1.2140762463343109
1.2287390029325511
1.2883675464320623
1.3822091886608017
1.501466275659824
1.6412512218963833
1.7732160312805474
1.905180840664712
2.060606060606061
2.225806451612903
2.391006842619746
2.549364613880743
2.695014662756598
2.8240469208211145
2.9335288367546437
3.0205278592375366
3.085043988269794
3.1270772238514173
3.1485826001955037
3.1495601173020527
3.134897360703812
3.1094819159335287
3.072336265884653
3.024437927663734
2.967741935483871
2.902248289345064
2.8299120234604107
2.7517106549364616
2.667644183773216
2.579667644183773
2.489736070381232
2.406647116324536
2.3255131964809386
2.2375366568914954
2.147605083088954
2.0576735092864125
1.9696969696969695
1.8856304985337244
1.8064516129032255
1.732160312805474
1.6637341153470186
1.6001955034213098
1.543499511241447
1.4936461388074291
1.455522971652004
1.426197458455523
1.3978494623655917
1.3734115347018572
1.3548387096774193
1.3421309872922775
1.3343108504398826
1.3313782991202343
1.332355816226784
1.335288367546432
1.3411534701857282
1.348973607038123
1.3587487781036167
1.367546432062561
1.3743890518084063
1.380254154447703
1.3851417399804498
1.3890518084066472
1.3919843597262953
1.392961876832845
1.3919843597262953
1.3890518084066472
1.3841642228739004
1.3773216031280548
1.3724340175953078
1.3665689149560116
1.356793743890518
1.3450635386119256
1.332355816226784
1.3186705767350928
1.3040078201368523
1.2883675464320623
1.2727272727272727
1.2570869990224829
1.2424242424242424
1.227761485826002
1.2140762463343109
1.2043010752688172
1.1964809384164223
1.1857282502443791
1.173998044965787
1.1622678396871946
1.1505376344086022
1.13880742913001
1.1280547409579669
1.1173020527859236
1.1085043988269794
1.1006842619745845
1.0928641251221896
1.088954056695992
1.0869990224828934
1.0821114369501466
1.0772238514173995
1.0733137829912025
1.0684261974584557
1.0635386119257086
1.0596285434995112
1.0557184750733135
1.0518084066471165
1.0488758553274682
1.0478983382209188
1.0518084066471165
1.0606060606060606
1.0772238514173995
1.104594330400782
1.1466275659824048
1.206256109481916
1.2854349951124144
1.3841642228739004
1.5024437927663734
1.6383186705767352
1.7888563049853372
1.9501466275659824
2.117302052785924
2.26197458455523
2.3919843597262958
2.5317693059628543
2.6695992179863146
2.795698924731183
2.9042033235581624
2.9931573802541545
3.06158357771261
3.1094819159335287
3.1358748778103616
3.1436950146627565
3.133919843597263
3.10850439882698
3.072336265884653
3.026392961876833
2.970674486803519
2.906158357771261
2.833822091886608
2.7546432062561097
2.6695992179863146
2.5806451612903225
2.4887585532746823
2.3958944281524928
2.302052785923754
2.2082111436950145
2.1251221896383186
2.048875855327468
1.967741935483871
1.8866080156402736
1.8084066471163245
1.7341153470185728
1.664711632453568
1.6011730205278591
1.544477028347996
1.4946236559139785
1.4516129032258065
1.4164222873900294
1.3890518084066472
1.3695014662756595
1.356793743890518
1.346041055718475
1.3391984359726294
1.3362658846529814
1.3372434017595307
1.3411534701857282
1.3470185728250244
1.3548387096774193
1.3636363636363635
1.3714565004887584
1.3782991202346042
1.3851417399804498
1.3919843597262953
1.396871945259042
1.4007820136852396
1.4037145650048877
1.404692082111437
1.4027370478983383
1.3988269794721409
1.392961876832845
1.3841642228739004
1.3743890518084063
1.3636363636363635
1.3519061583577712
1.3421309872922775
1.3333333333333333
1.3206256109481915
1.3069403714565004
1.2932551319648091
1.278592375366569
1.262952101661779
1.2482893450635386
1.2336265884652982
1.2189638318670577
1.2052785923753666
1.1915933528836755
1.181818181818182
1.173998044965787
1.164222873900293
1.1544477028347997
1.1456500488758554
1.1368523949169111
1.1280547409579669
1.1192570869990224
1.1124144672531768
1.1065493646138806
1.1006842619745845
1.0957966764418376
1.0918866080156402
1.0899315738025417
1.0899315738025417
1.0879765395894427
1.0850439882697946
1.0811339198435972
1.0762463343108504
1.0713587487781036
1.067448680351906
1.0654936461388074
1.067448680351906
1.075268817204301
1.0918866080156402
1.1163245356793745
1.1505376344086022
1.203323558162268
1.2746823069403714
1.367546432062561
1.4809384164222874
1.6129032258064515
1.7605083088954057
1.919843597262952
2.0869990224828934
2.2561094819159337
2.4222873900293256
2.5806451612903225
2.7067448680351904
2.809384164222874
2.9120234604105573
3.002932551319648
3.0762463343108504
3.1309872922776147
3.1652003910068425
3.179863147605083
3.175953079178885
3.1544477028347995
3.118279569892473
3.069403714565005
3.013685239491691
2.952101661779081
2.8807429130009776
2.8025415444770285
2.718475073313783
2.6295210166177907
2.5376344086021505
2.442815249266862
2.346041055718475
2.2502443792766376
2.1544477028347995
2.060606060606061
1.9696969696969695
1.868035190615836
1.7644183773216031
1.678396871945259
1.6041055718475072
1.5386119257087
1.4819159335288368
1.4330400782013686
1.391006842619746
1.356793743890518
1.327468230694037
1.3049853372434017
1.2883675464320623
1.2776148582600195
1.2727272727272727
1.2697947214076246
1.270772238514174
1.2746823069403714
1.2805474095796676
1.289345063538612
1.2991202346041055
1.3088954056695992
1.3196480938416422
1.3294232649071358
1.33822091886608
1.3450635386119256
1.3509286412512218
1.35386119257087
1.3548387096774193
1.35386119257087
1.3509286412512218
1.346041055718475
1.3401759530791788
1.332355816226784
1.3235581622678396
1.313782991202346
1.3020527859237536
1.289345063538612
1.278592375366569
1.2697947214076246
1.2590420332355816
1.24633431085044
1.2336265884652982
1.2209188660801564
1.2082111436950147
1.1964809384164223
1.18475073313783
1.1730205278592376
1.1622678396871946
1.1515151515151516
1.144672531769306
1.1397849462365592
1.1319648093841643
1.1241446725317692
1.115347018572825
1.10752688172043
1.099706744868035
1.0918866080156402
1.0840664711632453
1.075268817204301
1.067448680351906
1.0606060606060606
1.0547409579667644
1.0527859237536656
1.053763440860215
1.0576735092864125
1.0684261974584557
1.088954056695992
1.1221896383186705
1.1720430107526882
1.238514173998045
1.3225806451612905
1.4242424242424243
1.541544477028348
1.672531769305963
1.793743890518084
1.9090909090909087
2.042033235581622
2.179863147605083
2.313782991202346
2.4379276637341154
2.548387096774193
2.6422287390029324
2.717497556207233
2.773216031280548
2.809384164222874
2.8269794721407626
2.827956989247312
2.812316715542522
2.78494623655914
2.7468230694037143
2.697947214076246
2.6402737047898337
2.572825024437928
2.498533724340176
2.418377321603128
2.333333333333333
2.2453567937438903
2.155425219941349
2.064516129032258
1.9843597262952104
1.9100684261974583
1.83088954056696
1.750733137829912
1.6735092864125125
1.6001955034213098
1.5317693059628543
1.469208211143695
1.412512218963832
1.3636363636363635
1.3225806451612905
1.2883675464320623
1.2619745845552297
1.2453567937438903
1.2355816226783969
1.2297165200391007
1.227761485826002
1.2297165200391007
1.2346041055718475
1.2434017595307918
1.2541544477028348
1.2668621700879763
1.2805474095796676
1.2942326490713587
1.3069403714565004
1.3186705767350928
1.3294232649071358
1.33822091886608
1.3450635386119256
1.3499511241446724
1.3528836754643203
1.35386119257087
1.3528836754643203
1.3509286412512218
1.3479960899315735
1.343108504398827
1.3362658846529814
1.3284457478005864
1.321603128054741
1.3147605083088951
1.305962854349951
1.295210166177908
1.2834799608993157
1.270772238514174
1.2580645161290325
1.2453567937438903
1.2336265884652982
1.2218963831867058
1.2111436950146628
1.2003910068426198
1.1925708699902249
1.1857282502443791
1.1779081133919844
1.1681329423264908
1.1583577712609971
1.1485826001955035
1.13880742913001
1.1290322580645162
