ppg
1.76930596285435
1.932551319648094
2.10752688172043
2.280547409579668
2.442815249266862
2.5865102639296187
2.7096774193548385
2.8132942326490715
2.895405669599218
2.956011730205278
2.9960899315738025
3.0146627565982405
3.018572825024438
3.0146627565982405
3.0019550342130987
2.98435972629521
2.963831867057673
2.9393939393939394
2.909090909090909
2.87683284457478
2.841642228739003
2.8025415444770285
2.7565982404692084
2.701857282502444
2.6451612903225805
2.58455522971652
2.512218963831867
2.429130009775171
2.3382209188660803
2.243401759530792
2.1495601173020527
2.060606060606061
1.978494623655914
1.905180840664712
1.842619745845552
1.7888563049853372
1.7487781036168133
1.7194525904203324
1.6930596285434996
1.6715542521994136
1.6529814271749756
1.6392961876832846
1.629521016617791
1.6217008797653958
1.611925708699902
1.598240469208211
1.5835777126099706
1.5669599217986314
1.5503421309872922
1.5356793743890518
1.521016617790811
1.5024437927663734
1.4809384164222874
1.4594330400782014
1.4379276637341154
1.4173998044965788
1.396871945259042
1.3763440860215057
1.3587487781036167
1.3440860215053765
1.3313782991202343
1.324535679374389
1.321603128054741
1.316715542521994
1.3098729227761483
1.3010752688172045
1.289345063538612
1.2756598240469208
1.262952101661779
1.2512218963831867
1.2394916911045943
1.2287390029325511
1.2209188660801564
1.2111436950146628
1.203323558162268
1.1994134897360704
1.1945259042033236
1.1896383186705768
1.1837732160312806
1.1779081133919844
1.1720430107526882
1.1681329423264908
1.166177908113392
1.1652003910068427
1.164222873900293
1.164222873900293
1.1652003910068427
1.166177908113392
1.1652003910068427
1.164222873900293
1.164222873900293
1.164222873900293
1.164222873900293
1.164222873900293
1.164222873900293
1.164222873900293
1.164222873900293
1.1652003910068427
1.1671554252199414
1.1710654936461389
1.1759530791788857
1.176930596285435
1.1749755620723363
1.1710654936461389
1.1671554252199414
1.1671554252199414
1.1730205278592376
1.1915933528836755
1.2316715542521994
1.2961876832844574
1.3900293255131966
1.4936461388074291
1.611925708699902
1.7644183773216031
1.9345063538611929
2.1114369501466275
2.2844574780058653
2.443792766373412
2.5855327468230693
2.70772238514174
2.806451612903226
2.8836754643206257
2.941348973607038
2.981427174975562
3.002932551319648
3.010752688172043
3.013685239491691
3.0087976539589443
2.9960899315738025
2.978494623655914
2.956989247311828
2.929618768328446
2.898338220918866
2.86217008797654
2.820136852394917
2.76930596285435
2.716520039100684
2.659824046920821
2.590420332355816
2.5102639296187683
2.4222873900293256
2.3274682306940373
2.2297165200391005
2.133919843597263
2.042033235581622
1.956989247311828
1.8826979472140764
1.8191593352883677
1.7683284457478006
1.7331378299120237
1.7086999022482894
1.6881720430107527
1.6715542521994136
1.6588465298142718
1.6480938416422288
1.6383186705767352
1.6275659824046922
1.6148582600195502
1.6001955034213098
1.58455522971652
1.5679374389051808
1.5532746823069403
1.5405669599217986
1.5249266862170088
1.5083088954056696
1.4897360703812317
1.469208211143695
1.4486803519061584
1.4301075268817205
1.4115347018572826
1.393939393939394
1.3773216031280548
1.3616813294232648
1.3479960899315735
1.3411534701857282
1.33822091886608
1.332355816226784
1.3235581622678396
1.313782991202346
1.303030303030303
1.2903225806451613
1.2766373411534702
1.2639296187683284
1.2531769305962854
1.2443792766373412
1.2375366568914956
1.2336265884652982
1.2336265884652982
1.2316715542521994
1.2297165200391007
1.2287390029325511
1.2267839687194526
1.2258064516129032
1.224828934506354
1.2218963831867058
1.217008797653959
1.1720430107526882
1.1065493646138806
1.0703812316715542
1.0527859237536656
1.0439882697947214
1.0381231671554252
1.0361681329423265
1.0371456500488758
1.0391006842619743
1.043010752688172
1.0449657869012707
1.04594330400782
1.04594330400782
1.043010752688172
1.0420332355816226
1.0439882697947214
1.0449657869012707
1.04594330400782
1.04594330400782
1.0449657869012707
1.0439882697947214
1.0420332355816226
1.0381231671554252
1.035190615835777
1.035190615835777
1.0439882697947214
1.0713587487781036
1.1143695014662756
1.1779081133919844
1.2766373411534702
1.409579667644184
1.5698924731182795
1.750733137829912
1.9403714565004888
2.1280547409579667
2.3069403714565007
2.4711632453567938
2.613880742913001
2.7331378299120237
2.8299120234604107
2.89345063538612
2.9345063538611926
2.970674486803519
2.9980449657869013
3.016617790811339
3.0254154447702835
3.0254154447702835
3.016617790811339
2.9980449657869013
2.9716520039100685
2.940371456500489
2.9042033235581624
2.8641251221896384
2.819159335288368
2.766373411534702
2.702834799608993
2.627565982404692
2.5405669599217986
2.443792766373412
2.3411534701857284
2.2375366568914954
2.1358748778103616
2.040078201368524
1.9530791788856303
1.8758553274682308
1.81524926686217
1.7683284457478006
1.7243401759530792
1.6852394916911049
1.6520039100684265
1.6226783968719452
1.6011730205278591
1.585532746823069
1.5728250244379276
1.5620723362658846
1.5503421309872922
1.5386119257087
1.5298142717497556
1.520039100684262
1.5063538611925709
1.4897360703812317
1.4721407624633431
1.4545454545454546
1.435972629521017
1.4173998044965788
1.3988269794721409
1.380254154447703
1.3616813294232648
1.3421309872922775
1.321603128054741
1.3049853372434017
1.29227761485826
1.2766373411534702
1.2590420332355816
1.2443792766373412
1.23069403714565
1.2179863147605083
1.203323558162268
1.1896383186705768
1.1798631476050832
1.1720430107526882
1.1652003910068427
1.1612903225806452
1.1593352883675463
1.155425219941349
1.1485826001955035
1.1397849462365592
1.1300097751710656
1.1192570869990224
1.10752688172043
1.0987292277614855
1.0909090909090908
1.0840664711632453
1.0791788856304985
1.075268817204301
1.075268817204301
1.078201368523949
1.078201368523949
1.075268817204301
1.0703812316715542
1.064516129032258
1.0586510263929618
1.0527859237536656
1.0469208211143697
1.0420332355816226
1.040078201368524
1.0371456500488758
1.0371456500488758
1.040078201368524
1.043010752688172
1.0469208211143697
1.0488758553274682
1.0498533724340176
1.0498533724340176
1.0518084066471165
1.0527859237536656
1.0498533724340176
1.0469208211143697
1.0449657869012707
1.0439882697947214
1.0469208211143697
1.0557184750733135
1.0762463343108504
1.115347018572825
1.181818181818182
1.2805474095796676
1.4115347018572826
1.5708699902248289
1.7497556207233629
1.93841642228739
2.1270772238514173
2.3069403714565007
2.450635386119257
2.565982404692082
2.679374389051808
2.7810361681329425
2.8641251221896384
2.929618768328446
2.9775171065493646
3.010752688172043
3.0303030303030303
3.0391006842619745
3.037145650048876
3.0254154447702835
3.005865102639296
2.978494623655914
2.946236559139785
2.9120234604105573
2.870967741935484
2.8211143695014664
2.763440860215054
2.697947214076246
2.6236559139784945
2.539589442815249
2.447702834799609
2.350928641251222
2.251221896383187
2.1622678396871944
2.081133919843597
1.9951124144672527
1.911045943304008
1.8328445747800584
1.7663734115347018
1.7096774193548387
1.66177908113392
1.6236559139784943
1.5972629521016617
1.5786901270772238
1.5669599217986314
1.5581622678396871
1.552297165200391
1.547409579667644
1.5386119257087
1.5249266862170088
1.5083088954056696
1.4897360703812317
1.469208211143695
1.4486803519061584
1.426197458455523
1.401759530791789
1.3773216031280548
1.3528836754643203
1.3333333333333333
1.3157380254154447
1.2961876832844574
1.2746823069403714
1.2531769305962854
1.2316715542521994
1.2101661779081134
1.1915933528836755
1.1749755620723363
1.1573802541544478
1.13880742913001
1.1202346041055715
1.1036168132942326
1.0918866080156402
1.0850439882697946
1.078201368523949
1.0713587487781036
1.06158357771261
1.050830889540567
1.0410557184750733
1.0303030303030305
1.0195503421309873
1.0097751710654936
1.0019550342130987
0.9980449657869012
0.9980449657869012
0.9990224828934506
1.0
1.0
1.0
1.0
1.0
1.0
1.0
1.0
1.0
1.0
1.0
1.0019550342130987
1.002932551319648
1.0019550342130987
1.0009775171065494
1.0009775171065494
1.0009775171065494
1.0009775171065494
1.0009775171065494
1.0009775171065494
1.0009775171065494
1.0009775171065494
1.0009775171065494
1.0019550342130987
1.002932551319648
1.0019550342130987
1.0
0.9990224828934506
1.0009775171065494
1.010752688172043
1.040078201368524
1.0957966764418376
1.1837732160312806
1.305962854349951
1.455522971652004
1.6011730205278591
1.7458455522971652
1.913978494623656
2.085043988269794
2.247311827956989
2.3929618768328447
2.517106549364614
2.618768328445748
2.697947214076246
2.757575757575758
2.7996089931573804
2.825024437927664
2.834799608993157
2.8299120234604107
2.81622678396872
2.7966764418377323
2.7722385141739982
2.7419354838709675
2.7067448680351904
2.668621700879765
2.625610948191593
2.5747800586510263
2.5161290322580645
2.447702834799609
2.3685239491691106
2.289345063538612
2.2082111436950145
2.113391984359726
2.0127077223851417
1.911045943304008
1.812316715542522
1.7194525904203324
1.635386119257087
1.563049853372434
1.501466275659824
1.4496578690127078
1.4086021505376345
1.3792766373411536
1.3616813294232648
1.3499511241446724
1.33822091886608
1.3255131964809383
1.313782991202346
1.3020527859237536
1.2883675464320623
1.2727272727272727
1.2551319648093842
1.2355816226783969
1.217008797653959
1.2023460410557183
1.1915933528836755
1.1827956989247312
1.1710654936461389
1.1593352883675463
1.147605083088954
1.133919843597263
1.1192570869990224
1.1036168132942326
1.086021505376344
1.0684261974584557
1.0488758553274682
1.0303030303030305
1.013685239491691
1.0019550342130987
0.9931573802541545
0.981427174975562
0.9696969696969696
0.9579667644183774
0.946236559139785
0.9335288367546432
0.9217986314760508
0.9100684261974584
0.8973607038123167
0.8856304985337243
0.873900293255132
0.8660801564027371
0.8641251221896383
0.8592375366568915
0.8543499511241447
0.8504398826979472
0.8455522971652004
0.841642228739003
0.8396871945259042
0.8387096774193549
0.8377321603128055
0.8377321603128055
0.8377321603128055
0.8377321603128055
0.8406647116324536
0.844574780058651
0.8465298142717498
0.8475073313782991
0.8494623655913979
0.852394916911046
0.8572825024437928
0.8641251221896383
0.8699902248289345
0.8758553274682307
0.8817204301075269
0.8885630498533724
0.8973607038123167
0.9081133919843596
0.9178885630498532
0.9286412512218964
0.9403714565004888
0.9521016617790812
0.9638318670576737
0.975562072336266
0.989247311827957
1.0097751710654936
1.04594330400782
1.1026392961876832
1.1867057673509287
1.281524926686217
1.3919843597262953
1.5395894428152492
1.7126099706744868
1.900293255131965
2.089931573802541
2.275659824046921
2.449657869012708
2.606060606060606
2.739980449657869
2.850439882697948
2.940371456500489
3.0009775171065494
3.037145650048876
3.064516129032258
3.081133919843597
3.0879765395894427
3.083088954056696
3.070381231671554
3.053763440860215
3.0303030303030303
2.99902248289345
2.9589442815249267
2.9120234604105573
2.8582600195503423
2.7996089931573804
2.7341153470185726
2.6559139784946235
2.56891495601173
2.474095796676442
2.372434017595308
2.270772238514174
2.1710654936461387
2.075268817204301
1.9853372434017595
1.9042033235581624
1.8347996089931573
1.7820136852394917
1.739980449657869
1.7008797653958945
1.6666666666666667
1.6373411534701858
1.6109481915933528
1.5884652981427174
1.5728250244379276
1.5620723362658846
1.552297165200391
1.541544477028348
1.5298142717497556
1.5180840664711632
1.5073313782991202
1.4965786901270772
1.4819159335288368
1.4652981427174976
1.447702834799609
1.4301075268817205
1.412512218963832
1.3958944281524928
1.380254154447703
1.3636363636363635
1.346041055718475
1.3264907135874875
1.310850439882698
1.2981427174975562
1.2834799608993157
1.2688172043010753
1.2551319648093842
1.2404692082111437
1.2238514173998043
1.2082111436950147
1.1945259042033236
1.1798631476050832
1.1671554252199414
1.1573802541544478
1.1495601173020529
1.1456500488758554
1.1407624633431086
1.1319648093841643
1.1251221896383188
1.115347018572825
1.104594330400782
1.0957966764418376
1.086021505376344
1.0742913000977516
1.0654936461388074
1.0586510263929618
1.0518084066471165
1.0488758553274682
1.0488758553274682
1.0469208211143697
1.043010752688172
1.0381231671554252
1.0342130987292275
1.0303030303030305
1.0254154447702837
1.0205278592375366
1.0146627565982405
1.010752688172043
1.0087976539589445
1.007820136852395
1.0087976539589445
1.0087976539589445
1.007820136852395
1.0068426197458455
1.0068426197458455
1.007820136852395
1.0087976539589445
1.007820136852395
1.0068426197458455
1.0068426197458455
1.0048875855327468
1.0009775171065494
1.0
1.002932551319648
1.007820136852395
1.0234604105571847
1.06158357771261
1.1300097751710656
1.2326490713587488
1.367546432062561
1.5327468230694037
1.721407624633431
1.9227761485826005
2.124144672531769
2.29227761485826
2.434017595307918
2.572825024437928
2.697947214076246
2.8044965786901277
2.887585532746823
2.9501466275659824
2.9960899315738025
3.027370478983382
3.0439882697947214
3.050830889540567
3.026392961876833
2.983382209188661
2.949169110459433
2.917888563049853
2.887585532746823
2.855327468230694
2.8211143695014664
2.7859237536656893
2.7438905180840663
2.695014662756598
2.6392961876832843
2.575757575757576
2.5024437927663734
2.4222873900293256
2.345063538611926
2.2668621700879767
2.179863147605083
2.090909090909091
2.005865102639296
1.9237536656891496
1.8484848484848484
1.7810361681329423
1.7233626588465298
1.6764418377321604
1.6383186705767352
1.608993157380254
1.5865102639296187
1.5708699902248289
1.5620723362658846
1.5542521994134897
1.5483870967741935
1.542521994134897
1.5356793743890518
1.5278592375366569
1.5190615835777126
1.509286412512219
1.498533724340176
1.4897360703812317
1.4819159335288368
1.47702834799609
1.4750733137829912
1.469208211143695
1.4613880742913
1.452590420332356
1.4428152492668622
1.43108504398827
1.418377321603128
1.4066471163245358
1.3949169110459434
1.383186705767351
1.3695014662756595
1.3558162267839686
1.3450635386119256
1.3343108504398826
1.3235581622678396
1.3147605083088951
1.3079178885630498
1.3020527859237536
1.2961876832844574
1.2913000977517106
1.2854349951124144
1.2805474095796676
1.2746823069403714
1.2697947214076246
1.2668621700879763
1.2658846529814272
1.2619745845552297
1.2580645161290325
1.2541544477028348
1.2541544477028348
1.2551319648093842
1.2570869990224829
1.2590420332355816
1.2619745845552297
1.2658846529814272
1.270772238514174
1.2756598240469208
1.281524926686217
1.289345063538612
1.2942326490713587
1.2981427174975562
1.3020527859237536
1.3069403714565004
1.310850439882698
1.3128054740957966
1.313782991202346
1.3147605083088951
1.3147605083088951
1.3147605083088951
1.3157380254154447
1.3176930596285434
1.3186705767350928
1.3196480938416422
1.3196480938416422
1.3235581622678396
1.3391984359726294
1.3734115347018572
1.434017595307918
1.5239491691104594
1.6441837732160314
1.7927663734115349
1.962854349951124
2.1192570869990224
2.264907135874878
2.426197458455523
2.5835777126099706
2.7311827956989245
2.86217008797654
2.972629521016618
3.064516129032258
3.1378299120234603
3.1945259042033234
3.2355816226783967
3.260997067448681
3.269794721407625
3.267839687194526
3.2639296187683287
3.2561094819159337
3.244379276637341
3.2277614858260018
3.2052785923753664
3.177908113391984
3.146627565982405
3.1094819159335287
3.065493646138808
3.0175953079178885
2.963831867057673
2.906158357771261
2.8426197458455524
2.768328445747801
2.6852394916911044
2.5972629521016617
2.506353861192571
2.418377321603128
2.334310850439883
2.2551319648093844
2.1847507331378297
2.12316715542522
2.0684261974584555
2.024437927663734
1.991202346041056
1.9608993157380252
1.935483870967742
1.913978494623656
1.895405669599218
1.8778103616813293
1.8631476050830889
1.8484848484848484
1.833822091886608
1.8191593352883677
1.8064516129032255
1.7947214076246334
1.7849462365591398
1.7761485826001957
1.7653958944281525
1.750733137829912
1.732160312805474
1.7126099706744868
1.6920821114369502
1.672531769305963
1.6549364613880744
1.6412512218963833
1.6285434995112416
1.6148582600195502
1.6041055718475072
1.595307917888563
1.58455522971652
1.5708699902248289
1.5562072336265884
1.543499511241447
1.5317693059628543
1.521016617790811
1.5102639296187683
1.499511241446725
1.4897360703812317
1.479960899315738
1.469208211143695
1.4613880742913
1.457478005865103
1.4545454545454546
1.4496578690127078
1.4467253176930597
1.4437927663734116
1.439882697947214
1.435972629521017
1.43108504398827
1.426197458455523
1.4213098729227762
1.4134897360703813
1.4086021505376345
1.4056695992179864
1.401759530791789
1.3988269794721409
1.396871945259042
1.3958944281524928
1.3958944281524928
1.3958944281524928
1.3958944281524928
1.393939393939394
1.3919843597262953
1.391006842619746
1.3919843597262953
1.393939393939394
1.3949169110459434
1.3949169110459434
1.3949169110459434
1.3949169110459434
1.3949169110459434
1.3949169110459434
1.393939393939394
1.3900293255131966
1.3870967741935485
1.3870967741935485
1.393939393939394
1.409579667644184
1.4389051808406648
1.4916911045943304
1.573802541544477
1.6881720430107527
1.8328445747800584
2.0019550342130987
2.1837732160312804
2.3685239491691106
2.5464320625610948
2.7096774193548385
2.854349951124145
2.960899315738025
3.042033235581622
3.120234604105572
3.187683284457478
3.241446725317693
3.281524926686217
3.3088954056695994
3.3255131964809386
3.334310850439883
3.335288367546432
3.3304007820136854
3.321603128054741
3.3098729227761488
3.290322580645161
3.2639296187683287
3.2355816226783967
3.19941348973607
3.156402737047898
3.1055718475073317
3.04594330400782
2.979472140762464
2.905180840664712
2.822091886608016
2.7311827956989245
2.635386119257087
2.547409579667644
2.464320625610948
2.376344086021505
2.286412512218964
2.20039100684262
2.050830889540567
1.8748778103616808
1.7624633431085044
1.686217008797654
1.632453567937439
1.5933528836754642
1.563049853372434
1.5405669599217986
1.5239491691104594
1.509286412512219
1.4916911045943304
1.4721407624633431
1.452590420332356
1.4330400782013686
1.412512218963832
1.393939393939394
1.3773216031280548
1.3607038123167154
1.3440860215053765
1.324535679374389
1.3069403714565004
1.2903225806451613
1.2688172043010753
1.24633431085044
1.2267839687194526
1.2082111436950147
1.1886608015640274
1.1681329423264908
1.147605083088954
1.1290322580645162
1.110459433040078
1.0918866080156402
1.0762463343108504
1.0664711632453567
1.0586510263929618
1.050830889540567
1.0449657869012707
1.0391006842619743
1.0332355816226784
1.0283479960899315
1.0205278592375366
1.010752688172043
1.0
0.9882697947214076
0.9775171065493646
0.9726295210166178
0.967741935483871
0.959921798631476
0.9530791788856304
0.9472140762463344
0.9413489736070382
0.9364613880742912
0.9296187683284456
0.9217986314760508
0.913978494623656
0.9090909090909092
0.906158357771261
0.9051808406647116
0.9051808406647116
0.9051808406647116
0.9042033235581622
0.9042033235581622
0.9042033235581622
0.9042033235581622
0.9042033235581622
0.9042033235581622
0.9042033235581622
0.9042033235581622
0.9042033235581622
0.9042033235581622
0.9051808406647116
0.9051808406647116
0.9042033235581622
0.9042033235581622
0.9042033235581622
0.9042033235581622
0.9042033235581622
0.9042033235581622
0.9042033235581622
0.906158357771261
0.9188660801564028
0.9511241446725318
1.0087976539589445
1.0811339198435972
1.1720430107526882
1.2991202346041055
1.4516129032258065
1.616813294232649
1.7878787878787878
1.9550342130987293
2.110459433040078
2.2502443792766376
2.3734115347018574
2.4750733137829912
2.555229716520039
2.6070381231671558
2.6402737047898337
2.6695992179863146
2.6940371456500487
2.7126099706744866
2.724340175953079
2.7282502443792764
2.727272727272727
2.718475073313783
2.702834799608993
2.6803519061583576
2.6529814271749754
2.618768328445748
2.5806451612903225
2.5386119257087
2.487781036168133
2.426197458455523
2.355816226783969
2.278592375366569
2.1955034213098727
2.1065493646138806
2.013685239491691
1.919843597262952
1.8299120234604105
1.7468230694037146
1.678396871945259
1.6207233626588464
1.565982404692082
1.5190615835777126
1.478983382209189
1.444770283479961
1.4164222873900294
1.392961876832845
1.3743890518084063
1.3587487781036167
1.3440860215053765
1.3294232649071358
1.313782991202346
1.3010752688172045
1.289345063538612
1.2746823069403714
1.2570869990224829
1.238514173998045
1.219941348973607
1.2023460410557183
1.1827956989247312
1.163245356793744
1.142717497556207
1.1241446725317692
1.1055718475073313
1.0899315738025417
1.0772238514173995
1.0625610948191593
1.0478983382209188
1.0332355816226784
1.0175953079178883
1.002932551319648
0.9863147605083088
0.9687194525904204
0.9521016617790812
0.9364613880742912
0.9227761485826002
0.9100684261974584
0.9042033235581622
0.9042033235581622
0.9022482893450636
0.8983382209188661
0.8934506353861192
0.8866080156402737
0.8807429130009775
0.8748778103616813
0.8699902248289345
0.8651026392961877
0.8602150537634409
0.8563049853372434
0.8563049853372434
0.8592375366568915
0.8611925708699902
0.8621700879765396
0.8592375366568915
0.855327468230694
0.8533724340175953
0.852394916911046
0.852394916911046
0.852394916911046
0.852394916911046
0.852394916911046
0.8543499511241447
0.8582600195503421
0.8602150537634409
0.8611925708699902
0.8621700879765396
0.8621700879765396
0.8621700879765396
0.8621700879765396
0.8621700879765396
0.8621700879765396
0.863147605083089
0.8680351906158358
0.873900293255132
0.8817204301075269
0.8895405669599218
0.8934506353861192
0.8973607038123167
0.9012707722385142
0.9110459433040078
0.935483870967742
0.9804496578690128
1.053763440860215
1.1612903225806452
1.300097751710655
1.4623655913978495
1.6138807429130009
1.7595307917888563
1.921798631476051
2.083088954056696
2.2355816226783967
2.3734115347018574
2.4916911045943304
2.590420332355816
2.6715542521994133
2.7370478983382207
2.7859237536656893
2.822091886608016
2.84652981427175
2.854349951124145
2.852394916911046
2.8475073313782997
2.838709677419355
2.825024437927664
2.8054740957966766
2.7810361681329425
2.750733137829912
2.713587487781036
2.6695992179863146
2.616813294232649
2.555229716520039
2.490713587487781
2.423264907135875
2.343108504398827
2.254154447702835
2.160312805474096
2.0635386119257086
1.9687194525904204
1.8797653958944285
1.7986314760508308
1.7272727272727273
1.6656891495601174
1.6129032258064515
1.56891495601173
1.5366568914956011
1.5131964809384164
1.490713587487781
1.4721407624633431
1.456500488758553
1.4428152492668622
1.4291300097751711
1.414467253176931
1.4007820136852396
1.388074291300098
1.3743890518084063
1.3949169110459434
1.435972629521017
1.4516129032258065
1.4516129032258065
1.4428152492668622
1.4301075268817205
1.4164222873900294
1.4007820136852396
1.3822091886608017
1.3626588465298142
1.343108504398827
1.3235581622678396
1.303030303030303
1.2825024437927663
1.2658846529814272
1.2531769305962854
1.2394916911045943
1.224828934506354
1.2111436950146628
1.1994134897360704
1.1867057673509287
1.173998044965787
1.163245356793744
1.1515151515151516
1.1378299120234605
1.1231671554252198
1.1133919843597262
1.10752688172043
1.099706744868035
1.0918866080156402
