ppg
1.4242424242424243
1.409579667644184
1.392961876832845
1.375366568914956
1.3558162267839686
1.3372434017595307
1.3255131964809383
1.3333333333333333
1.3763440860215057
1.444770283479961
1.5454545454545454
1.6979472140762464
1.8856304985337244
2.0869990224828934
2.2795698924731185
2.441837732160313
2.5620723362658846
2.638318670576735
2.6725317693059627
2.674486803519061
2.6529814271749754
2.618768328445748
2.5777126099706744
2.529814271749756
2.474095796676442
2.4134897360703813
2.347996089931574
2.2795698924731185
2.210166177908113
2.1388074291300097
2.067448680351906
1.9960899315738023
1.9257086999022484
1.8563049853372435
1.796676441837732
1.7429130009775171
1.6842619745845553
1.6265884652981428
1.5718475073313782
1.521016617790811
1.4721407624633431
1.426197458455523
1.3870967741935485
1.3548387096774193
1.3294232649071358
1.3128054740957966
1.3079178885630498
1.313782991202346
1.327468230694037
1.3479960899315735
1.3763440860215057
1.4115347018572826
1.4516129032258065
1.4897360703812317
1.525904203323558
1.5591397849462365
1.5884652981427174
1.611925708699902
1.6285434995112416
1.6373411534701858
1.6412512218963833
1.6412512218963833
1.6383186705767352
1.632453567937439
1.6236559139784943
1.6148582600195502
1.6041055718475072
1.5923753665689149
1.5786901270772238
1.5650048875855327
1.5513196480938416
1.5395894428152492
1.5278592375366569
1.5141739980449658
1.500488758553275
1.4848484848484849
1.4701857282502444
1.455522971652004
1.4389051808406648
1.4213098729227762
1.4007820136852396
1.3792766373411536
1.3626588465298142
1.359726295210166
1.375366568914956
1.418377321603128
1.5034213098729228
1.635386119257087
1.8093841642228736
2.007820136852395
2.210166177908113
2.3929618768328447
2.5386119257087
2.641251221896383
2.697947214076246
2.7145650048875853
2.702834799608993
2.6725317693059627
2.627565982404692
2.573802541544477
2.5141739980449658
2.449657869012708
2.3841642228739004
2.315738025415445
2.24633431085044
2.175953079178885
2.102639296187683
2.0303030303030303
1.9589442815249267
1.8963831867057677
1.839687194525904
1.7781036168132942
1.7165200391006843
1.6549364613880744
1.5943304007820136
1.5347018572825024
1.478983382209189
1.4281524926686218
1.3812316715542523
1.3401759530791788
1.305962854349951
1.2825024437927663
1.2688172043010753
1.2619745845552297
1.2649071358748778
1.278592375366569
1.303030303030303
1.3362658846529814
1.375366568914956
1.418377321603128
1.4594330400782014
1.4965786901270772
1.5288367546432062
1.5542521994134897
1.5728250244379276
1.585532746823069
1.5933528836754642
1.5962854349951123
1.595307917888563
1.590420332355816
1.5806451612903225
1.56891495601173
1.555229716520039
1.541544477028348
1.5278592375366569
1.5151515151515151
1.5063538611925709
1.499511241446725
1.490713587487781
1.478005865102639
1.4623655913978495
1.444770283479961
1.4271749755620724
1.4115347018572826
1.3958944281524928
1.3792766373411536
1.3626588465298142
1.3450635386119256
1.324535679374389
1.3069403714565004
1.2932551319648091
1.2864125122189638
1.303030303030303
1.356793743890518
1.456500488758553
1.6021505376344083
1.782991202346041
1.9824046920821117
2.179863147605083
2.3528836754643208
2.487781036168133
2.572825024437928
2.6158357771261
2.633431085043988
2.625610948191593
2.5972629521016617
2.5532746823069403
2.498533724340176
2.436950146627566
2.372434017595308
2.304985337243402
2.236559139784946
2.167155425219941
2.096774193548387
2.0332355816226784
1.9745845552297163
1.9100684261974583
1.8455522971652003
1.7820136852394917
1.7204301075268815
1.6598240469208212
1.6011730205278591
1.544477028347996
1.490713587487781
1.4408602150537635
1.3949169110459434
1.359726295210166
1.3333333333333333
1.3079178885630498
1.2883675464320623
1.2766373411534702
1.2727272727272727
1.2776148582600195
1.29227761485826
1.3147605083088951
1.343108504398827
1.3763440860215057
1.4115347018572826
1.444770283479961
1.4750733137829912
1.504398826979472
1.5288367546432062
1.5493646138807429
1.5650048875855327
1.5747800586510263
1.5806451612903225
1.5826001955034212
1.581622678396872
1.5757575757575757
1.565982404692082
1.5542521994134897
1.543499511241447
1.533724340175953
1.521994134897361
1.509286412512219
1.4965786901270772
1.4848484848484849
1.4711632453567938
1.457478005865103
1.4437927663734116
1.43108504398827
1.4203323558162269
1.4076246334310851
1.3958944281524928
1.3841642228739004
1.367546432062561
1.3470185728250244
1.3264907135874875
1.3128054740957966
1.3186705767350928
1.3577712609970674
1.439882697947214
1.5669599217986314
1.737047898338221
1.9335288367546437
2.134897360703812
2.3010752688172045
2.43108504398827
2.5405669599217986
2.6148582600195502
2.653958944281525
2.659824046920821
2.641251221896383
2.6050830889540566
2.557184750733138
2.501466275659824
2.4408602150537635
2.378299120234604
2.3196480938416424
2.2629521016617797
2.19941348973607
2.132942326490713
2.067448680351906
2.0019550342130987
1.935483870967742
1.868035190615836
1.801564027370479
1.737047898338221
1.6744868035190617
1.6129032258064515
1.555229716520039
1.5102639296187683
1.4721407624633431
1.434017595307918
1.396871945259042
1.364613880742913
1.3391984359726294
1.321603128054741
1.313782991202346
1.316715542521994
1.3313782991202343
1.3558162267839686
1.388074291300098
1.4213098729227762
1.455522971652004
1.4916911045943304
1.525904203323558
1.5571847507331378
1.5826001955034212
1.6041055718475072
1.6187683284457477
1.6285434995112416
1.6334310850439884
1.6334310850439884
1.6314760508308896
1.6275659824046922
1.624633431085044
1.6226783968719452
1.616813294232649
1.607038123167155
1.595307917888563
1.5826001955034212
1.56891495601173
1.555229716520039
1.5395894428152492
1.52297165200391
1.5063538611925709
1.4926686217008798
1.482893450635386
1.4750733137829912
1.4623655913978495
1.4457478005865103
1.4252199413489737
1.4007820136852396
1.3763440860215057
1.3626588465298142
1.370478983382209
1.412512218963832
1.499511241446725
1.6363636363636365
1.8132942326490715
1.9853372434017595
2.150537634408602
2.326490713587488
2.482893450635386
2.603128054740958
2.6803519061583576
2.717497556207233
2.721407624633431
2.6989247311827955
2.6578690127077222
2.603128054740958
2.5405669599217986
2.4809384164222874
2.4222873900293256
2.356793743890518
2.2873900293255134
2.217986314760508
2.1495601173020527
2.081133919843597
2.010752688172043
1.9403714565004888
1.871945259042033
1.8064516129032255
1.7438905180840665
1.686217008797654
1.6383186705767352
1.5943304007820136
1.5483870967741935
1.501466275659824
1.456500488758553
1.414467253176931
1.3763440860215057
1.346041055718475
1.3235581622678396
1.310850439882698
1.3088954056695992
1.3196480938416422
1.3362658846529814
1.359726295210166
1.393939393939394
1.434017595307918
1.4760508308895406
1.5151515151515151
1.5503421309872922
1.5796676441837731
1.6021505376344083
1.6177908113391983
1.6275659824046922
1.6304985337243405
1.6285434995112416
1.624633431085044
1.6177908113391983
1.607038123167155
1.595307917888563
1.5826001955034212
1.5698924731182795
1.5591397849462365
1.547409579667644
1.5347018572825024
1.521994134897361
1.5083088954056696
1.4936461388074291
1.479960899315738
1.4672531769305963
1.4516129032258065
1.4349951124144673
1.4173998044965788
1.3978494623655917
1.3763440860215057
1.3528836754643203
1.3294232649071358
1.3147605083088951
1.3186705767350928
1.3558162267839686
1.436950146627566
1.5395894428152492
1.6695992179863148
1.8465298142717497
2.0439882697947214
2.236559139784946
2.403714565004888
2.532746823069404
2.6177908113391983
2.658846529814272
2.6637341153470184
2.643206256109482
2.6041055718475072
2.558162267839687
2.50733137829912
2.447702834799609
2.3851417399804498
2.3196480938416424
2.2502443792766376
2.179863147605083
2.10752688172043
2.035190615835777
1.963831867057673
1.8934506353861196
1.8240469208211143
1.7556207233626588
1.6979472140762464
1.6500488758553276
1.598240469208211
1.5454545454545454
1.495601173020528
1.447702834799609
1.401759530791789
1.3587487781036167
1.3206256109481915
1.2903225806451613
1.267839687194526
1.2551319648093842
1.252199413489736
1.2580645161290325
1.2727272727272727
1.295210166177908
1.324535679374389
1.3577712609970674
1.393939393939394
1.4320625610948192
1.4682306940371457
1.500488758553275
1.5268817204301075
1.5464320625610948
1.560117302052786
1.5679374389051808
1.5708699902248289
1.5698924731182795
1.5669599217986314
1.5610948191593352
1.5513196480938416
1.5395894428152492
1.5268817204301075
1.5141739980449658
1.5034213098729228
1.4936461388074291
1.4838709677419355
1.47702834799609
1.469208211143695
1.458455522971652
1.4467253176930597
1.4320625610948192
1.4164222873900294
1.4007820136852396
1.383186705767351
1.3655913978494625
1.346041055718475
1.3255131964809383
1.305962854349951
1.2942326490713587
1.300097751710655
1.3343108504398826
1.4086021505376345
1.5278592375366569
1.6901270772238517
1.8797653958944285
2.0772238514174
2.260997067448681
2.4144672531769307
2.5268817204301075
2.5962854349951123
2.625610948191593
2.6265884652981426
2.606060606060606
2.56891495601173
2.52297165200391
2.4711632453567938
2.4134897360703813
2.3519061583577714
2.2883675464320627
2.222873900293255
2.155425219941349
2.086021505376344
2.01564027370479
1.9530791788856303
1.8963831867057677
1.835777126099707
1.7732160312805474
1.7126099706744868
1.6549364613880744
1.598240469208211
1.542521994134897
1.4897360703812317
1.439882697947214
1.393939393939394
1.35386119257087
1.3196480938416422
1.2971652003910068
1.2834799608993157
1.2746823069403714
1.2756598240469208
1.2854349951124144
1.303030303030303
1.3255131964809383
1.3528836754643203
1.3851417399804498
1.4203323558162269
1.455522971652004
1.487781036168133
1.5141739980449658
1.5366568914956011
1.5571847507331378
1.573802541544477
1.58455522971652
1.5884652981427174
1.587487781036168
1.5826001955034212
1.5757575757575757
1.5679374389051808
1.5591397849462365
1.5513196480938416
1.541544477028348
1.5317693059628543
1.52297165200391
1.512218963831867
1.501466275659824
1.4897360703812317
1.47702834799609
1.4643206256109482
1.4535679374389052
1.4428152492668622
1.4291300097751711
1.412512218963832
1.392961876832845
1.375366568914956
1.359726295210166
1.3450635386119256
1.343108504398827
1.367546432062561
1.43108504398827
1.541544477028348
1.696969696969697
1.8836754643206255
2.0840664711632453
2.275659824046921
2.439882697947214
2.563049853372434
2.6373411534701856
2.6715542521994133
2.677419354838709
2.66177908113392
2.6285434995112413
2.5835777126099706
2.530791788856305
2.472140762463343
2.409579667644184
2.347018572825025
2.283479960899316
2.218963831867057
2.158357771260997
2.101661779081134
2.0391006842619745
1.9726295210166176
1.905180840664712
1.8377321603128052
1.772238514173998
1.7096774193548387
1.6500488758553276
1.5933528836754642
1.5405669599217986
1.4926686217008798
1.4496578690127078
1.4164222873900294
1.3919843597262953
1.367546432062561
1.3470185728250244
1.3313782991202343
1.3255131964809383
1.3294232649071358
1.3411534701857282
1.3616813294232648
1.3919843597262953
1.4281524926686218
1.4672531769305963
1.500488758553275
1.5298142717497556
1.5591397849462365
1.585532746823069
1.607038123167155
1.6226783968719452
1.6334310850439884
1.6373411534701858
1.6363636363636365
1.632453567937439
1.6256109481915937
1.6158357771260996
1.606060606060606
1.598240469208211
1.590420332355816
1.5796676441837731
1.5669599217986314
1.5542521994134897
1.5405669599217986
1.5268817204301075
1.5141739980449658
1.5034213098729228
1.4936461388074291
1.4838709677419355
1.4721407624633431
1.4604105571847508
1.4467253176930597
1.4252199413489737
1.3998044965786902
1.3782991202346042
1.3763440860215057
1.4076246334310851
1.4838709677419355
1.6080156402737047
1.7761485826001957
1.9736070381231672
2.177908113391984
2.366568914956012
2.5083088954056696
2.6041055718475072
2.6725317693059627
2.7067448680351904
2.710654936461388
2.689149560117302
2.649071358748778
2.5962854349951123
2.5347018572825024
2.4701857282502444
2.403714565004888
2.334310850439883
2.271749755620724
2.2130987292277613
2.150537634408602
2.086021505376344
2.018572825024438
1.951124144672532
1.8836754643206255
1.818181818181818
1.75366568914956
1.6911045943304008
1.629521016617791
1.5708699902248289
1.521994134897361
1.478983382209189
1.4330400782013686
1.3900293255131966
1.3519061583577712
1.321603128054741
1.2991202346041055
1.284457478005865
1.2805474095796676
1.2864125122189638
1.300097751710655
1.321603128054741
1.3499511241446724
1.3792766373411536
1.4086021505376345
1.4418377321603129
1.474095796676442
1.5024437927663734
1.5288367546432062
1.5513196480938416
1.5679374389051808
1.5796676441837731
1.585532746823069
1.58455522971652
1.5786901270772238
1.5708699902248289
1.563049853372434
1.552297165200391
1.5395894428152492
1.5268817204301075
1.5141739980449658
1.5034213098729228
1.4936461388074291
1.4838709677419355
1.474095796676442
1.4633431085043989
1.4506353861192571
1.436950146627566
1.4271749755620724
1.4164222873900294
1.401759530791789
1.3851417399804498
1.3665689149560116
1.346041055718475
1.324535679374389
1.3079178885630498
1.3088954056695992
1.3401759530791788
1.4134897360703813
1.5317693059628543
1.6637341153470186
1.8113391984359728
1.9902248289345064
2.172043010752688
2.334310850439883
2.4613880742913
2.5464320625610948
2.591397849462365
2.603128054740958
2.5884652981427174
2.555229716520039
2.5102639296187683
2.455522971652004
2.40078201368524
2.3440860215053765
2.280547409579668
2.21505376344086
2.1485826001955037
2.083088954056696
2.0195503421309877
1.9579667644183771
1.895405669599218
1.83088954056696
1.7663734115347018
1.7028347996089932
1.6480938416422288
1.5992179863147604
1.5464320625610948
1.4936461388074291
1.4428152492668622
1.396871945259042
1.356793743890518
1.321603128054741
1.29227761485826
1.270772238514174
1.2580645161290325
1.2541544477028348
1.260019550342131
1.273704789833822
1.2932551319648091
1.3186705767350928
1.348973607038123
1.3822091886608017
1.4173998044965788
1.4516129032258065
1.482893450635386
1.509286412512219
1.5317693059628543
1.547409579667644
1.555229716520039
1.5581622678396871
1.5591397849462365
1.5571847507331378
1.5532746823069403
1.5483870967741935
1.5405669599217986
1.5298142717497556
1.5180840664711632
1.5073313782991202
1.4975562072336266
1.4887585532746823
1.478983382209189
1.4701857282502444
1.4633431085043989
1.456500488758553
1.4467253176930597
1.436950146627566
1.423264907135875
1.4076246334310851
1.3900293255131966
1.3695014662756595
1.348973607038123
1.3313782991202343
1.3264907135874875
1.3470185728250244
1.3890518084066472
1.4633431085043989
1.5865102639296187
1.7497556207233629
1.9403714565004888
2.136852394916911
2.3167155425219943
2.4613880742913
2.5620723362658846
2.618768328445748
2.638318670576735
2.6285434995112413
2.5992179863147604
2.560117302052786
2.515151515151515
2.463343108504399
2.4086021505376345
2.3528836754643208
2.2952101661779083
2.2346041055718477
2.1700879765395893
2.103616813294233
2.035190615835777
1.9657869012707725
1.8963831867057677
1.836754643206256
1.7839687194525904
1.729227761485826
1.675464320625611
1.6236559139784943
1.573802541544477
1.525904203323558
1.479960899315738
1.435972629521017
1.3978494623655917
1.3665689149560116
1.3401759530791788
1.321603128054741
1.313782991202346
1.313782991202346
1.3225806451612905
1.33822091886608
1.3607038123167154
1.3900293255131966
1.4252199413489737
1.4643206256109482
1.5024437927663734
1.5366568914956011
1.565982404692082
1.5894428152492668
1.607038123167155
1.619745845552297
1.6275659824046922
1.6314760508308896
1.6314760508308896
1.629521016617791
1.6236559139784943
1.6148582600195502
1.606060606060606
1.5962854349951123
1.58455522971652
1.5718475073313782
1.5581622678396871
1.547409579667644
1.5376344086021505
1.525904203323558
1.5131964809384164
1.500488758553275
1.4897360703812317
1.478983382209189
1.4652981427174976
1.447702834799609
1.4271749755620724
1.4037145650048877
1.3851417399804498
1.3782991202346042
1.391006842619746
1.435972629521017
1.5249266862170088
1.6598240469208212
1.833822091886608
2.029325513196481
2.225806451612903
2.401759530791789
2.5425219941348973
2.641251221896383
2.696969696969697
2.716520039100684
2.70772238514174
2.6803519061583576
2.6402737047898337
2.590420332355816
2.5347018572825024
2.4750733137829912
2.412512218963832
2.347996089931574
2.281524926686217
2.2140762463343107
2.146627565982405
2.0772238514174
2.0146627565982405
1.9589442815249267
1.8983382209188664
1.836754643206256
1.775171065493646
1.715542521994135
1.6578690127077225
1.6011730205278591
1.5493646138807429
1.500488758553275
1.4535679374389052
1.409579667644184
1.375366568914956
1.3509286412512218
1.3294232649071358
1.313782991202346
1.3069403714565004
1.310850439882698
1.3255131964809383
1.348973607038123
1.3773216031280548
1.4115347018572826
1.447702834799609
1.482893450635386
1.5161290322580645
1.544477028347996
1.565982404692082
1.585532746823069
1.5992179863147604
1.6080156402737047
1.6109481915933528
1.6099706744868034
1.606060606060606
1.598240469208211
1.5884652981427174
1.5796676441837731
1.56891495601173
1.5591397849462365
1.5503421309872922
1.5386119257087
1.525904203323558
1.5112414467253177
1.4946236559139785
1.478983382209189
1.4643206256109482
1.4496578690127078
1.436950146627566
1.423264907135875
1.4076246334310851
1.3900293255131966
1.3743890518084063
1.3607038123167154
1.348973607038123
1.348973607038123
1.3714565004887584
1.43108504398827
1.5347018572825024
1.6813294232649072
1.8602150537634408
2.0547409579667644
2.2404692082111435
2.39980449657869
2.5131964809384164
2.5835777126099706
2.6236559139784945
2.633431085043988
2.619745845552297
2.587487781036168
2.5434995112414467
2.493646138807429
2.4379276637341154
2.377321603128055
2.312805474095797
2.2453567937438903
2.176930596285435
2.114369501466276
2.0557184750733137
1.992179863147605
1.9257086999022484
1.8602150537634408
1.7976539589442817
1.737047898338221
1.6793743890518085
1.6256109481915937
1.5747800586510263
1.5268817204301075
1.479960899315738
1.4408602150537635
1.4066471163245358
1.370478983382209
1.33822091886608
1.3088954056695992
1.2854349951124144
1.270772238514174
1.2649071358748778
1.2688172043010753
1.2825024437927663
1.3049853372434017
1.335288367546432
1.3695014662756595
1.4027370478983383
1.434017595307918
1.466275659824047
1.4975562072336266
1.5249266862170088
1.5464320625610948
1.5620723362658846
1.5708699902248289
1.573802541544477
1.5708699902248289
1.563049853372434
1.5542521994134897
1.547409579667644
1.5405669599217986
1.5327468230694037
1.52297165200391
1.512218963831867
1.5024437927663734
1.4926686217008798
1.4838709677419355
1.474095796676442
1.4643206256109482
1.4506353861192571
1.435972629521017
1.4213098729227762
1.4076246334310851
1.3949169110459434
1.380254154447703
1.3626588465298142
1.3421309872922775
1.3235581622678396
1.3176930596285434
1.3362658846529814
1.3919843597262953
1.4926686217008798
1.6373411534701858
1.8162267839687196
1.9872922776148585
2.144672531769306
2.304985337243402
2.442815249266862
2.541544477028348
2.5972629521016617
2.618768328445748
2.6129032258064515
2.5865102639296187
2.544477028347996
2.493646138807429
2.4389051808406648
2.380254154447703
2.3255131964809386
2.270772238514174
2.209188660801564
2.144672531769306
2.0791788856304985
2.013685239491691
1.948191593352884
1.881720430107527
1.8172043010752688
1.7526881720430108
1.6901270772238517
1.6304985337243405
1.5806451612903225
1.5386119257087
1.4946236559139785
1.4516129032258065
1.4115347018572826
1.3773216031280548
1.348973607038123
1.3264907135874875
1.3098729227761483
1.3020527859237536
1.3010752688172045
1.3088954056695992
1.3264907135874875
1.3479960899315735
1.3724340175953078
1.4027370478983383
1.435972629521017
1.469208211143695
1.4975562072336266
1.52297165200391
1.5454545454545454
1.563049853372434
1.576735092864125
1.585532746823069
1.590420332355816
1.5913978494623655
1.590420332355816
1.5865102639296187
1.581622678396872
1.5757575757575757
1.5679374389051808
1.5591397849462365
1.547409579667644
1.5347018572825024
1.521994134897361
1.509286412512219
1.498533724340176
1.4887585532746823
1.4819159335288368
1.4760508308895406
1.4682306940371457
1.458455522971652
1.4457478005865103
1.4281524926686218
1.4056695992179864
1.383186705767351
1.3685239491691104
1.3734115347018572
1.412512218963832
1.4965786901270772
1.603128054740958
1.7350928641251222
1.9120234604105573
2.1094819159335287
2.300097751710655
2.464320625610948
2.5884652981427174
2.668621700879765
2.7067448680351904
2.708699902248289
2.684261974584555
2.6422287390029324
2.5943304007820136
2.5434995112414467
2.486803519061584
2.4252199413489737
2.361681329423265
2.2981427174975564
2.233626588465298
2.167155425219941
2.0987292277614857
2.029325513196481
1.959921798631476
1.8934506353861196
1.83088954056696
1.7761485826001957
1.7272727272727273
1.6764418377321604
1.624633431085044
1.5718475073313782
1.52297165200391
1.47702834799609
1.434017595307918
1.3978494623655917
1.3695014662756595
1.348973607038123
1.3362658846529814
1.332355816226784
1.3362658846529814
1.3470185728250244
1.364613880742913
1.3900293255131966
1.4222873900293256
1.458455522971652
1.4946236559139785
1.5288367546432062
1.5591397849462365
1.58455522971652
1.606060606060606
1.6207233626588464
1.6304985337243405
1.6363636363636365
1.6392961876832846
1.640273704789834
1.6383186705767352
1.632453567937439
1.6226783968719452
1.6129032258064515
1.6050830889540566
1.5962854349951123
1.5865102639296187
1.5747800586510263
1.564027370478983
1.5542521994134897
1.541544477028348
1.525904203323558
1.509286412512219
1.4926686217008798
1.4760508308895406
1.4594330400782014
1.439882697947214
1.4164222873900294
1.392961876832845
1.3773216031280548
1.383186705767351
1.4115347018572826
1.4701857282502444
1.5777126099706744
1.732160312805474
1.9178885630498532
2.115347018572825
2.3304007820136854
2.504398826979472
2.6050830889540566
2.6715542521994133
2.7008797653958942
2.6989247311827955
2.67644183773216
2.641251221896383
2.593352883675464
2.5386119257087
2.4789833822091887
2.41544477028348
2.347996089931574
2.2766373411534704
2.2023460410557183
2.1270772238514173
2.053763440860215
1.981427174975562
1.911045943304008
1.8504398826979471
1.796676441837732
1.739980449657869
1.6852394916911049
1.6334310850439884
1.5826001955034212
1.5327468230694037
1.4848484848484849
1.4379276637341154
1.392961876832845
1.3528836754643203
1.3186705767350928
1.2961876832844574
1.281524926686217
1.270772238514174
1.267839687194526
1.2727272727272727
1.2864125122189638
1.3098729227761483
1.3391984359726294
1.3734115347018572
1.412512218963832
1.4516129032258065
1.4868035190615836
1.5180840664711632
1.542521994134897
1.5620723362658846
1.5757575757575757
1.5826001955034212
1.58455522971652
1.5806451612903225
1.5718475073313782
1.5610948191593352
1.5503421309872922
1.5405669599217986
1.5288367546432062
1.517106549364614
1.509286412512219
1.5034213098729228
1.495601173020528
1.4868035190615836
1.478005865102639
1.4672531769305963
1.452590420332356
1.436950146627566
1.4213098729227762
1.404692082111437
1.3870967741935485
1.367546432062561
1.3470185728250244
1.3304007820136852
1.321603128054741
1.3225806451612905
1.3470185728250244
1.4076246334310851
1.5112414467253177
