ppg
1.2316715542521994
1.2238514173998043
1.2160312805474096
1.2101661779081134
1.2082111436950147
1.2072336265884651
1.2052785923753666
1.2043010752688172
1.2043010752688172
1.203323558162268
1.2013685239491692
1.1974584555229717
1.1925708699902249
1.187683284457478
1.181818181818182
1.1759530791788857
1.1691104594330402
1.1671554252199414
1.1710654936461389
1.1808406647116323
1.2023460410557183
1.2434017595307918
1.310850439882698
1.4076246334310851
1.5327468230694037
1.6823069403714566
1.8494623655913975
2.026392961876833
2.2023460410557183
2.3489736070381237
2.4731182795698925
2.5992179863147604
2.7155425219941347
2.81622678396872
2.8993157380254155
2.9657869012707723
3.0175953079178885
3.056695992179863
3.085043988269794
3.103616813294233
3.113391984359726
3.1163245356793743
3.10850439882698
3.0928641251221896
3.074291300097752
3.0498533724340176
3.018572825024438
2.978494623655914
2.9286412512218964
2.870967741935484
2.807429130009776
2.73802541544477
2.664711632453568
2.591397849462365
2.5249266862170088
2.464320625610948
2.404692082111437
2.3489736070381237
2.2991202346041058
2.2551319648093844
2.2170087976539588
2.1847507331378297
2.1544477028347995
2.1251221896383186
2.096774193548387
2.067448680351906
2.0361681329423265
2.0087976539589443
1.981427174975562
1.9501466275659824
1.9178885630498532
1.8856304985337244
1.833822091886608
1.7732160312805474
1.7282502443792769
1.694037145650049
1.664711632453568
1.6363636363636365
1.6099706744868034
1.5884652981427174
1.5698924731182795
1.5493646138807429
1.5298142717497556
1.5102639296187683
1.4916911045943304
1.474095796676442
1.457478005865103
1.4418377321603129
1.4271749755620724
1.4134897360703813
1.4007820136852396
1.3890518084066472
1.3812316715542523
1.3743890518084063
1.364613880742913
1.35386119257087
1.3421309872922775
1.3304007820136852
1.3186705767350928
1.3079178885630498
1.2971652003910068
1.2854349951124144
1.2727272727272727
1.260019550342131
1.2512218963831867
1.2443792766373412
1.2355816226783969
1.2267839687194526
1.2189638318670577
1.2111436950146628
1.203323558162268
1.195503421309873
1.1886608015640274
1.1808406647116323
1.1730205278592376
1.164222873900293
1.1583577712609971
1.1544477028347997
1.1505376344086022
1.1505376344086022
1.160312805474096
1.1867057673509287
1.2365591397849462
1.3128054740957966
1.4173998044965788
1.5483870967741935
1.699902248289345
1.8621700879765395
2.027370478983382
2.1681329423264906
2.290322580645161
2.41544477028348
2.532746823069404
2.635386119257087
2.721407624633431
2.789833822091887
2.844574780058651
2.8856304985337244
2.9149560117302054
2.9345063538611926
2.9472140762463344
2.948191593352884
2.941348973607038
2.9335288367546437
2.920821114369501
2.902248289345064
2.874877810361681
2.8377321603128056
2.791788856304985
2.7370478983382207
2.673509286412512
2.601173020527859
2.52297165200391
2.441837732160313
2.367546432062561
2.2981427174975564
2.2267839687194524
2.157380254154448
2.0928641251221896
2.035190615835777
1.9853372434017595
1.9423264907135875
1.906158357771261
1.8748778103616808
1.847507331378299
1.8201368523949168
1.796676441837732
1.775171065493646
1.7517106549364614
1.726295210166178
1.6989247311827955
1.6695992179863148
1.6392961876832846
1.608993157380254
1.5786901270772238
1.5483870967741935
1.5180840664711632
1.4887585532746823
1.458455522971652
1.434017595307918
1.4115347018572826
1.3851417399804498
1.356793743890518
1.3294232649071358
1.303030303030303
1.2776148582600195
1.2531769305962854
1.2297165200391007
1.2072336265884651
1.1867057673509287
1.1681329423264908
1.155425219941349
1.1466275659824048
1.1348973607038124
1.121212121212121
1.1065493646138806
1.0928641251221896
1.0791788856304985
1.067448680351906
1.056695992179863
1.0478983382209188
1.0391006842619743
1.029325513196481
1.0195503421309873
1.013685239491691
1.0097751710654936
1.0039100684261977
0.997067448680352
0.9912023460410556
0.9853372434017597
0.9804496578690128
0.975562072336266
0.9706744868035192
0.9657869012707724
0.9618768328445748
0.956989247311828
0.9560117302052786
0.9560117302052786
0.9511241446725318
0.946236559139785
0.9472140762463344
0.959921798631476
0.9912023460410556
1.04594330400782
1.1280547409579669
1.2404692082111437
1.3782991202346042
1.5356793743890518
1.704789833822092
1.855327468230694
1.991202346041056
2.1358748778103616
2.274682306940372
2.398826979472141
2.506353861192571
2.5962854349951123
2.668621700879765
2.727272727272727
2.7722385141739982
2.807429130009776
2.833822091886608
2.84652981427175
2.850439882697948
2.852394916911046
2.8514173998044967
2.844574780058651
2.8299120234604107
2.8054740957966766
2.771260997067449
2.7262952101661777
2.6715542521994133
2.6080156402737047
2.5376344086021505
2.4613880742913
2.3900293255131966
2.321603128054741
2.2482893450635384
2.174975562072336
2.104594330400782
2.0410557184750733
1.9853372434017595
1.93841642228739
1.8983382209188664
1.8641251221896384
1.833822091886608
1.8064516129032255
1.7849462365591398
1.7644183773216031
1.7419354838709675
1.7194525904203324
1.6959921798631477
1.6715542521994136
1.64613880742913
1.6187683284457477
1.5884652981427174
1.5562072336265884
1.5239491691104594
1.4926686217008798
1.4633431085043989
1.439882697947214
1.4193548387096775
1.3949169110459434
1.3695014662756595
1.343108504398827
1.3176930596285434
1.29227761485826
1.267839687194526
1.2443792766373412
1.2209188660801564
1.198435972629521
1.176930596285435
1.1622678396871946
1.152492668621701
1.1397849462365592
1.126099706744868
1.1133919843597262
1.1016617790811338
1.0918866080156402
1.083088954056696
1.0742913000977516
1.0664711632453567
1.0586510263929618
1.0498533724340176
1.0410557184750733
1.0361681329423265
1.0342130987292275
1.029325513196481
1.0224828934506354
1.0156402737047898
1.0087976539589445
1.0039100684261977
0.9990224828934506
0.9941348973607038
0.989247311827957
0.9863147605083088
0.9833822091886608
0.9833822091886608
0.9843597262952102
0.9824046920821116
0.978494623655914
0.9736070381231672
0.9736070381231672
0.9833822091886608
1.010752688172043
1.0606060606060606
1.13880742913001
1.2473118279569892
1.3822091886608017
1.5288367546432062
1.6842619745845553
1.8514173998044965
2.0205278592375366
2.182795698924731
2.3313782991202348
2.463343108504399
2.575757575757576
2.6695992179863146
2.745845552297165
2.8054740957966766
2.850439882697948
2.8836754643206257
2.902248289345064
2.9100684261974585
2.916911045943304
2.919843597262952
2.917888563049853
2.9100684261974585
2.8963831867057674
2.8729227761485827
2.8406647116324537
2.7996089931573804
2.747800586510264
2.687194525904203
2.625610948191593
2.5610948191593352
2.487781036168133
2.409579667644184
2.3313782991202348
2.2551319648093844
2.1847507331378297
2.12316715542522
2.0684261974584555
2.0205278592375366
1.9794721407624636
1.9442815249266865
1.913978494623656
1.889540566959922
1.868035190615836
1.8455522971652003
1.822091886608016
1.7986314760508308
1.7741935483870968
1.7497556207233629
1.7223851417399805
1.6930596285434996
1.6637341153470186
1.635386119257087
1.607038123167155
1.5835777126099706
1.560117302052786
1.533724340175953
1.5053763440860215
1.47702834799609
1.4496578690127078
1.4222873900293256
1.3949169110459434
1.3695014662756595
1.346041055718475
1.3235581622678396
1.3020527859237536
1.2825024437927663
1.267839687194526
1.2561094819159335
1.241446725317693
1.2258064516129032
1.2101661779081134
1.195503421309873
1.1808406647116323
1.166177908113392
1.1534701857282503
1.142717497556207
1.1319648093841643
1.1231671554252198
1.1202346041055715
1.1192570869990224
1.115347018572825
1.1094819159335287
1.1026392961876832
1.0957966764418376
1.0899315738025417
1.0850439882697946
1.0801564027370478
1.075268817204301
1.0703812316715542
1.0664711632453567
1.0635386119257086
1.0635386119257086
1.0635386119257086
1.0606060606060606
1.056695992179863
1.0518084066471165
1.0488758553274682
1.050830889540567
1.0635386119257086
1.093841642228739
1.1485826001955035
1.23069403714565
1.3411534701857282
1.456500488758553
1.5796676441837731
1.7311827956989247
1.895405669599218
2.06158357771261
2.219941348973607
2.3655913978494625
2.493646138807429
2.6041055718475072
2.695014662756598
2.76930596285435
2.8289345063538613
2.874877810361681
2.903225806451613
2.918866080156403
2.9335288367546437
2.9442815249266863
2.9501466275659824
2.9501466275659824
2.9423264907135875
2.9266862170087977
2.902248289345064
2.8690127077223853
2.825024437927664
2.771260997067449
2.7145650048875853
2.654936461388074
2.5855327468230693
2.509286412512219
2.4301075268817205
2.3519061583577714
2.2766373411534704
2.206256109481916
2.131964809384164
2.070381231671554
2.0303030303030303
1.9931573802541545
1.9589442815249267
1.9315738025415443
1.9090909090909087
1.8866080156402736
1.8641251221896384
1.8406647116324533
1.8162267839687196
1.790811339198436
1.7653958944281525
1.7390029325513197
1.7116324535679377
1.683284457478006
1.651026392961877
1.624633431085044
1.603128054740958
1.576735092864125
1.5483870967741935
1.5190615835777126
1.4897360703812317
1.4604105571847508
1.4320625610948192
1.404692082111437
1.3792766373411536
1.35386119257087
1.3294232649071358
1.3079178885630498
1.29227761485826
1.2805474095796676
1.2658846529814272
1.2502443792766371
1.2336265884652982
1.2179863147605083
1.203323558162268
1.1886608015640274
1.1759530791788857
1.1652003910068427
1.1544477028347997
1.144672531769306
1.13880742913001
1.1358748778103618
1.130987292277615
1.1241446725317692
1.1173020527859236
1.1085043988269794
1.0987292277614855
1.0918866080156402
1.0869990224828934
1.0821114369501466
1.078201368523949
1.0762463343108504
1.0733137829912025
1.0733137829912025
1.075268817204301
1.0742913000977516
1.0703812316715542
1.064516129032258
1.0596285434995112
1.0586510263929618
1.0762463343108504
1.1192570869990224
1.1837732160312806
1.2746823069403714
1.3743890518084063
1.4858260019550342
1.6265884652981428
1.7869012707722385
1.9550342130987293
2.121212121212121
2.278592375366569
2.421309872922776
2.5210166177908118
2.613880742913001
2.718475073313783
2.7966764418377323
2.8563049853372435
2.89345063538612
2.917888563049853
2.940371456500489
2.9589442815249267
2.9716520039100685
2.978494623655914
2.978494623655914
2.970674486803519
2.9530791788856305
2.9257086999022484
2.8885630498533725
2.8426197458455524
2.792766373411535
2.73802541544477
2.6725317693059627
2.60019550342131
2.52297165200391
2.442815249266862
2.364613880742913
2.290322580645161
2.2218963831867056
2.160312805474096
2.1065493646138806
2.058651026392962
2.0175953079178885
1.9794721407624636
1.9364613880742916
1.8885630498533723
1.833822091886608
1.7741935483870968
1.710654936461388
1.6441837732160314
1.5757575757575757
1.5083088954056696
1.4428152492668622
1.3812316715542523
1.3225806451612905
1.2776148582600195
1.06158357771261
1.0596285434995112
1.0576735092864125
1.0547409579667644
1.0518084066471165
1.0498533724340176
1.0488758553274682
1.0488758553274682
1.050830889540567
1.0527859237536656
1.0547409579667644
1.0596285434995112
1.0664711632453567
1.0703812316715542
1.0742913000977516
1.0762463343108504
1.075268817204301
1.075268817204301
1.0772238514173995
1.083088954056696
1.0987292277614855
1.1300097751710656
1.1837732160312806
1.2658846529814272
1.3587487781036167
1.4672531769305963
1.608993157380254
1.775171065493646
1.9530791788856303
2.131964809384164
2.304007820136853
2.462365591397849
2.6041055718475072
2.727272727272727
2.83088954056696
2.916911045943304
2.9765395894428157
3.018572825024438
3.059628543499511
3.0948191593352883
3.124144672531769
3.147605083088954
3.1652003910068425
3.176930596285435
3.1808406647116323
3.176930596285435
3.163245356793744
3.1388074291300097
3.101661779081134
3.056695992179863
3.002932551319648
2.9393939393939394
2.866080156402737
2.7869012707722387
2.704789833822092
2.6207233626588464
2.5376344086021505
2.458455522971652
2.3841642228739004
2.315738025415445
2.2561094819159337
2.207233626588465
2.166177908113392
2.1280547409579667
2.0928641251221896
2.06158357771261
2.035190615835777
2.013685239491691
1.9960899315738023
1.9833822091886608
1.9736070381231672
1.967741935483871
1.9618768328445748
1.9530791788856303
1.9403714565004888
1.921798631476051
1.89247311827957
1.8533724340175952
1.8054740957966764
1.7517106549364614
1.696969696969697
1.6471163245356797
1.607038123167155
1.581622678396872
1.5708699902248289
1.5728250244379276
1.5806451612903225
1.5923753665689149
1.6050830889540566
1.6129032258064515
1.6099706744868034
1.5933528836754642
1.5650048875855327
1.525904203323558
1.479960899315738
1.4301075268817205
1.3792766373411536
1.3284457478005864
1.278592375366569
1.2375366568914956
1.2013685239491692
1.160312805474096
1.1192570869990224
1.0791788856304985
1.0410557184750733
1.0048875855327468
0.9736070381231672
0.946236559139785
0.9227761485826002
0.9022482893450636
0.8836754643206256
0.8719452590420332
0.863147605083089
0.8484848484848485
0.8318670576735093
0.8123167155425219
0.7908113391984359
0.7693059628543499
0.7468230694037146
0.7262952101661779
0.7116324535679375
0.7086999022482894
0.7243401759530792
0.7644183773216031
0.8220918866080157
0.9002932551319648
1.010752688172043
1.147605083088954
1.3049853372434017
1.4731182795698925
1.6422287390029326
1.804496578690127
1.95405669599218
2.0879765395894427
2.203323558162268
2.3010752688172045
2.372434017595308
2.426197458455523
2.4780058651026398
2.5249266862170088
2.565982404692082
2.601173020527859
2.63049853372434
2.6529814271749754
2.668621700879765
2.675464320625611
2.6725317693059627
2.66177908113392
2.6392961876832843
2.608993157380254
2.570869990224829
2.5210166177908118
2.4613880742913
2.393939393939394
2.321603128054741
2.24633431085044
2.1700879765395893
2.096774193548387
2.0283479960899315
1.9667644183773216
1.913978494623656
1.871945259042033
1.8387096774193548
1.8084066471163245
1.7810361681329423
1.7575757575757576
1.737047898338221
1.7174975562072337
1.6979472140762464
1.6774193548387095
1.656891495601173
1.635386119257087
1.611925708699902
1.5865102639296187
1.564027370478983
1.543499511241447
1.5180840664711632
1.490713587487781
1.4613880742913
1.4320625610948192
1.4007820136852396
1.3714565004887584
1.343108504398827
1.3147605083088951
1.2873900293255132
1.262952101661779
1.2443792766373412
1.2287390029325511
1.2111436950146628
1.1925708699902249
1.1749755620723363
1.1573802541544478
1.1397849462365592
1.1231671554252198
1.10752688172043
1.093841642228739
1.0801564027370478
1.067448680351906
1.0596285434995112
1.053763440860215
1.0469208211143697
1.0391006842619743
1.0303030303030305
1.021505376344086
1.0146627565982405
1.0087976539589445
1.002932551319648
0.9980449657869012
0.9931573802541545
0.9872922776148584
0.9824046920821116
0.981427174975562
0.9833822091886608
0.981427174975562
0.978494623655914
0.975562072336266
0.9726295210166178
0.9687194525904204
0.9638318670576737
0.9589442815249268
0.9560117302052786
0.9589442815249268
0.9736070381231672
0.9990224828934506
1.040078201368524
1.1065493646138806
1.2003910068426198
1.3225806451612905
1.4672531769305963
1.6285434995112416
1.7986314760508308
1.9667644183773216
2.126099706744868
2.270772238514174
2.396871945259042
2.5024437927663734
2.557184750733138
2.5777126099706744
2.6050830889540566
2.631476050830889
2.653958944281525
2.6715542521994133
2.6852394916911044
2.695014662756598
2.7008797653958942
2.702834799608993
2.699902248289345
2.6911045943304006
2.675464320625611
2.654936461388074
2.627565982404692
2.5943304007820136
2.555229716520039
2.509286412512219
2.4594330400782014
2.4056695992179864
2.3499511241446727
2.2952101661779083
2.241446725317693
2.1915933528836757
2.146627565982405
2.1094819159335287
2.078201368523949
2.048875855327468
2.022482893450636
1.9990224828934504
1.9775171065493649
1.9579667644183771
1.9403714565004888
1.9227761485826005
1.905180840664712
1.8875855327468232
1.869012707722385
1.8523949169110456
1.836754643206256
1.818181818181818
1.7976539589442817
1.7781036168132942
1.758553274682307
1.739980449657869
1.7223851417399805
1.7057673509286413
1.689149560117302
1.672531769305963
1.656891495601173
1.643206256109482
1.6334310850439884
1.6236559139784943
1.611925708699902
1.5992179863147604
1.585532746823069
1.5708699902248289
1.5571847507331378
1.542521994134897
1.5288367546432062
1.5161290322580645
1.504398826979472
1.4926686217008798
1.4848484848484849
1.478983382209189
1.4711632453567938
1.4633431085043989
1.456500488758553
1.4486803519061584
1.4418377321603129
1.4349951124144673
1.4281524926686218
1.4203323558162269
1.4134897360703813
1.4066471163245358
1.401759530791789
1.3998044965786902
1.3998044965786902
1.3988269794721409
1.3978494623655917
1.3958944281524928
1.392961876832845
1.3890518084066472
1.3851417399804498
1.3822091886608017
1.3841642228739004
1.3949169110459434
1.4193548387096775
1.4545454545454546
1.5034213098729228
1.5777126099706744
1.6764418377321604
1.7947214076246334
1.927663734115347
2.0664711632453567
2.204301075268817
2.334310850439883
2.453567937438905
2.558162267839687
2.6480938416422286
2.7223851417399803
2.7751710654936463
2.812316715542522
2.8475073313782997
2.877810361681329
2.9012707722385143
2.919843597262952
2.9345063538611926
2.9442815249266863
2.949169110459433
2.949169110459433
2.9423264907135875
2.9286412512218964
2.9071358748778104
2.878787878787879
2.843597262952102
2.7996089931573804
2.747800586510264
2.6901270772238512
2.627565982404692
2.563049853372434
2.498533724340176
2.4359726295210167
2.377321603128055
2.324535679374389
2.27761485826002
2.2385141739980448
2.206256109481916
2.176930596285435
2.1495601173020527
2.124144672531769
2.101661779081134
2.080156402737048
2.0576735092864125
2.0361681329423265
2.0146627565982405
1.992179863147605
1.967741935483871
1.946236559139785
1.924731182795699
1.900293255131965
1.873900293255132
1.8484848484848484
1.823069403714565
1.7986314760508308
1.7741935483870968
1.7497556207233629
1.726295210166178
1.7028347996089932
1.6793743890518085
1.653958944281525
1.6334310850439884
1.6148582600195502
1.5943304007820136
1.5728250244379276
1.5503421309872922
1.5278592375366569
1.5063538611925709
1.4848484848484849
1.4652981427174976
1.447702834799609
1.4320625610948192
1.4173998044965788
1.4066471163245358
1.3978494623655917
1.3870967741935485
1.375366568914956
1.364613880742913
1.35386119257087
1.3450635386119256
1.3362658846529814
1.3284457478005864
1.3235581622678396
1.3196480938416422
1.316715542521994
1.3147605083088951
1.3147605083088951
1.316715542521994
1.316715542521994
1.3157380254154447
1.313782991202346
1.3098729227761483
1.3049853372434017
1.300097751710655
1.2961876832844574
1.2971652003910068
1.3069403714565004
1.3313782991202343
1.3665689149560116
1.4164222873900294
1.4916911045943304
1.5913978494623655
1.710654936461388
1.842619745845552
1.9804496578690127
2.1163245356793743
2.244379276637341
2.3597262952101663
2.4594330400782014
2.5434995112414467
2.6041055718475072
2.649071358748778
2.6911045943304006
2.7282502443792764
2.7595307917888565
2.7839687194525906
2.8025415444770285
2.8152492668621703
2.8240469208211145
2.8269794721407626
2.8240469208211145
2.814271749755621
2.7976539589442817
2.7751710654936463
2.744868035190616
2.70772238514174
2.66177908113392
2.6080156402737047
2.547409579667644
2.482893450635386
2.4164222873900294
2.350928641251222
2.289345063538612
2.23069403714565
2.176930596285435
2.132942326490713
2.096774193548387
2.0625610948191597
2.032258064516129
2.004887585532747
1.9794721407624636
1.9560117302052784
1.9335288367546437
1.9120234604105573
1.889540566959922
1.866080156402737
1.8416422287390029
1.8162267839687196
1.793743890518084
1.772238514173998
1.7468230694037146
1.7204301075268815
1.694037145650049
1.667644183773216
1.6422287390029326
1.6177908113391983
1.5933528836754642
1.5698924731182795
1.5464320625610948
1.5239491691104594
1.5063538611925709
1.4916911045943304
1.474095796676442
1.455522971652004
1.436950146627566
1.418377321603128
1.4007820136852396
1.3157380254154447
1.1974584555229717
1.130987292277615
1.0918866080156402
1.067448680351906
1.050830889540567
1.0410557184750733
1.0361681329423265
1.0283479960899315
1.0195503421309873
1.0097751710654936
1.0
0.9902248289345064
0.981427174975562
0.9726295210166178
0.9648093841642228
0.956989247311828
0.9501466275659824
0.9481915933528836
0.9481915933528836
0.946236559139785
0.9423264907135877
0.9374389051808406
0.9315738025415444
0.9237536656891496
0.9149560117302052
0.906158357771261
0.8993157380254154
0.8983382209188661
0.9081133919843596
0.935483870967742
0.9765395894428152
1.0371456500488758
1.1270772238514175
1.2453567937438903
1.388074291300098
1.5464320625610948
1.7126099706744868
1.87683284457478
2.0332355816226784
2.176930596285435
2.304007820136853
2.4115347018572826
2.489736070381232
2.5464320625610948
2.598240469208211
2.6422287390029324
2.678396871945259
2.7067448680351904
2.7282502443792764
2.7438905180840663
2.7536656891495603
2.757575757575758
2.7536656891495603
2.7390029325513194
2.713587487781036
2.6823069403714563
2.644183773216031
2.5972629521016617
2.5405669599217986
2.4760508308895406
2.404692082111437
2.3284457478005867
2.2502443792766376
2.1730205278592374
2.099706744868035
2.0332355816226784
1.9736070381231672
1.9257086999022484
1.8875855327468232
1.8514173998044965
1.818181818181818
1.7888563049853372
1.7634408602150538
1.7390029325513197
1.715542521994135
1.6920821114369502
1.667644183773216
1.643206256109482
1.6177908113391983
1.590420332355816
1.565982404692082
1.543499511241447
1.517106549364614
1.487781036168133
1.458455522971652
1.4281524926686218
1.3988269794721409
1.3714565004887584
1.3450635386119256
1.3186705767350928
1.29227761485826
1.2668621700879763
1.24633431085044
1.2287390029325511
1.2082111436950147
1.1867057673509287
1.1652003910068427
1.144672531769306
1.126099706744868
1.1094819159335287
1.093841642228739
1.0791788856304985
1.064516129032258
1.0498533724340176
1.0371456500488758
1.029325513196481
1.0254154447702837
1.0195503421309873
1.0127077223851415
1.0058651026392962
0.9990224828934506
0.9912023460410556
0.9843597262952102
0.975562072336266
0.9667644183773216
0.959921798631476
0.9521016617790812
0.9491691104594332
0.9491691104594332
0.946236559139785
0.9423264907135877
0.9374389051808406
0.9325513196480938
0.927663734115347
0.9227761485826002
0.916911045943304
0.9120234604105572
0.9120234604105572
0.9237536656891496
0.9521016617790812
0.9931573802541545
1.0527859237536656
1.141739980449658
1.2590420332355816
1.4007820136852396
1.560117302052786
1.7282502443792769
1.8963831867057677
2.056695992179863
2.203323558162268
2.332355816226784
2.441837732160313
2.5219941348973607
2.581622678396872
2.6373411534701856
2.684261974584555
2.7223851417399803
2.752688172043011
2.7751710654936463
2.790811339198436
2.80058651026393
2.8025415444770285
2.7966764418377323
2.782991202346041
2.760508308895406
2.730205278592375
2.6911045943304006
2.643206256109482
2.5865102639296187
2.5219941348973607
2.449657869012708
2.372434017595308
2.294232649071359
2.2170087976539588
2.1436950146627565
2.075268817204301
2.0146627565982405
1.964809384164223
1.9237536656891496
1.884652981427175
1.8494623655913975
1.818181818181818
1.790811339198436
1.7653958944281525
1.7429130009775171
1.7204301075268815
1.6979472140762464
1.6744868035190617
1.6500488758553276
