ppg
2.5386119257087
2.490713587487781
2.444770283479961
2.4027370478983383
2.3626588465298144
2.324535679374389
2.2883675464320627
2.257086999022483
2.2267839687194524
2.1945259042033234
2.1593352883675463
2.124144672531769
2.088954056695992
2.0518084066471163
2.013685239491691
1.975562072336266
1.9393939393939397
1.9042033235581624
1.869012707722385
1.835777126099707
1.8074291300097751
1.782991202346041
1.7556207233626588
1.726295210166178
1.6989247311827955
1.6735092864125125
1.6490713587487782
1.6256109481915937
1.6050830889540566
1.58455522971652
1.563049853372434
1.541544477028348
1.525904203323558
1.512218963831867
1.4965786901270772
1.478983382209189
1.4613880742913
1.4437927663734116
1.426197458455523
1.409579667644184
1.393939393939394
1.3782991202346042
1.3626588465298142
1.346041055718475
1.3294232649071358
1.3176930596285434
1.3088954056695992
1.2971652003910068
1.2834799608993157
1.267839687194526
1.2512218963831867
1.2355816226783969
1.2238514173998043
1.2179863147605083
1.2209188660801564
1.2365591397849462
1.2688172043010753
1.3128054740957966
1.3685239491691104
1.4467253176930597
1.5454545454545454
1.6598240469208212
1.7859237536656891
1.919843597262952
2.0557184750733137
2.187683284457478
2.313782991202346
2.3919843597262958
2.4389051808406648
2.5004887585532747
2.5542521994134897
2.598240469208211
2.644183773216031
2.6852394916911044
2.720430107526881
2.7497556207233624
2.771260997067449
2.7859237536656893
2.7947214076246336
2.7996089931573804
2.7996089931573804
2.7966764418377323
2.788856304985337
2.7751710654936463
2.758553274682307
2.7370478983382207
2.7096774193548385
2.67644183773216
2.6373411534701856
2.591397849462365
2.5386119257087
2.4819159335288368
2.421309872922776
2.358748778103617
2.2961876832844577
2.2404692082111435
2.1915933528836757
2.1407624633431084
2.09188660801564
2.0449657869012707
2.0019550342130987
1.9618768328445748
1.9257086999022484
1.8914956011730208
1.8592375366568916
1.825024437927664
1.790811339198436
1.7624633431085044
1.7360703812316716
1.7067448680351909
1.6774193548387095
1.6471163245356797
1.6158357771260996
1.58455522971652
1.552297165200391
1.520039100684262
1.4887585532746823
1.455522971652004
1.4213098729227762
1.388074291300098
1.3626588465298142
1.3411534701857282
1.3157380254154447
1.2903225806451613
1.2658846529814272
1.241446725317693
1.2179863147605083
1.195503421309873
1.173998044965787
1.152492668621701
1.133919843597263
1.118279569892473
1.1094819159335287
1.1016617790811338
1.0899315738025417
1.078201368523949
1.0664711632453567
1.0527859237536656
1.0391006842619743
1.0263929618768328
1.0156402737047898
1.0058651026392962
0.9960899315738024
0.9872922776148584
0.978494623655914
0.9736070381231672
0.9696969696969696
0.9618768328445748
0.95405669599218
0.9491691104594332
0.9491691104594332
0.959921798631476
0.9843597262952102
1.0273704789833822
1.0899315738025417
1.1720430107526882
1.2727272727272727
1.3734115347018572
1.478983382209189
1.6050830889540566
1.7409579667644184
1.8807429130009776
2.0195503421309877
2.1515151515151514
2.272727272727273
2.380254154447703
2.4760508308895406
2.560117302052786
2.631476050830889
2.6911045943304006
2.7331378299120237
2.764418377321604
2.7947214076246336
2.822091886608016
2.8455522971652005
2.8641251221896384
2.875855327468231
2.8826979472140764
2.884652981427175
2.881720430107527
2.874877810361681
2.8611925708699903
2.8406647116324537
2.8152492668621703
2.782991202346041
2.744868035190616
2.699902248289345
2.649071358748778
2.592375366568915
2.530791788856305
2.466275659824047
2.40078201368524
2.3362658846529816
2.272727272727273
2.212121212121212
2.1593352883675463
2.113391984359726
2.0684261974584555
2.0254154447702835
1.986314760508309
1.948191593352884
1.9100684261974583
1.8729227761485825
1.836754643206256
1.8005865102639296
1.7644183773216031
1.7272727272727273
1.6959921798631477
1.667644183773216
1.635386119257087
1.6021505376344083
1.5679374389051808
1.5327468230694037
1.4965786901270772
1.4604105571847508
1.4252199413489737
1.391006842619746
1.3577712609970674
1.3255131964809383
1.2942326490713587
1.2697947214076246
1.249266862170088
1.2258064516129032
1.2013685239491692
1.176930596285435
1.1534701857282503
1.130987292277615
1.110459433040078
1.0918866080156402
1.0733137829912025
1.0547409579667644
1.0381231671554252
1.0283479960899315
1.021505376344086
1.0117302052785924
1.0009775171065494
0.989247311827957
0.9775171065493646
0.9648093841642228
0.9521016617790812
0.93841642228739
0.9257086999022482
0.9130009775171064
0.9012707722385142
0.8944281524926686
0.8914956011730205
0.8885630498533724
0.8895405669599218
0.8993157380254154
0.9217986314760508
0.959921798631476
1.0166177908113392
1.093841642228739
1.1915933528836755
1.305962854349951
1.4330400782013686
1.56891495601173
1.6911045943304008
1.804496578690127
1.9286412512218964
2.053763440860215
2.172043010752688
2.2795698924731185
2.375366568914956
2.4604105571847508
2.5347018572825024
2.598240469208211
2.652003910068426
2.695014662756598
2.7223851417399803
2.740957966764418
2.758553274682307
2.773216031280548
2.782991202346041
2.788856304985337
2.789833822091887
2.7869012707722387
2.7781036168132944
2.7624633431085046
2.7390029325513194
2.70772238514174
2.668621700879765
2.6265884652981426
2.582600195503421
2.5317693059628543
2.4750733137829912
2.41544477028348
2.35386119257087
2.29227761485826
2.231671554252199
2.172043010752688
2.117302052785924
2.0664711632453567
2.0195503421309877
1.9794721407624636
1.945259042033236
1.9100684261974583
1.8758553274682308
1.8416422287390029
1.8093841642228736
1.7771260997067448
1.7448680351906158
1.7126099706744868
1.6813294232649072
1.6480938416422288
1.6138807429130009
1.5806451612903225
1.5513196480938416
1.5239491691104594
1.4936461388074291
1.4613880742913
1.4291300097751711
1.3958944281524928
1.3626588465298142
1.3304007820136852
1.2991202346041055
1.2697947214076246
1.2424242424242424
1.2160312805474096
1.1974584555229717
1.1827956989247312
1.164222873900293
1.144672531769306
1.1544477028347997
1.1788856304985338
1.1827956989247312
1.1759530791788857
1.164222873900293
1.152492668621701
1.141739980449658
1.1300097751710656
1.118279569892473
1.1114369501466277
1.1065493646138806
1.0977517106549364
1.0869990224828934
1.0762463343108504
1.064516129032258
1.0547409579667644
1.04594330400782
1.0371456500488758
1.029325513196481
1.0224828934506354
1.0205278592375366
1.0273704789833822
1.043010752688172
1.0703812316715542
1.1143695014662756
1.1779081133919844
1.2619745845552297
1.3636363636363635
1.4809384164222874
1.608993157380254
1.7438905180840665
1.881720430107527
2.018572825024438
2.1515151515151514
2.260019550342131
2.35386119257087
2.449657869012708
2.5386119257087
2.616813294232649
2.684261974584555
2.7419354838709675
2.789833822091887
2.827956989247312
2.8582600195503423
2.8807429130009776
2.895405669599218
2.900293255131965
2.8993157380254155
2.897360703812317
2.89247311827957
2.8826979472140764
2.8670576735092865
2.8455522971652005
2.817204301075269
2.7810361681329425
2.73802541544477
2.689149560117302
2.636363636363636
2.579667644183773
2.5268817204301075
2.47702834799609
2.4242424242424243
2.3704789833822093
2.317693059628544
2.2668621700879767
2.219941348973607
2.175953079178885
2.134897360703812
2.0977517106549364
2.0625610948191597
2.0283479960899315
1.9990224828934504
1.9736070381231672
1.945259042033236
1.913978494623656
1.8826979472140764
1.8504398826979471
1.818181818181818
1.7839687194525904
1.7487781036168133
1.7145650048875856
1.6803519061583578
1.64613880742913
1.6109481915933528
1.581622678396872
1.5562072336265884
1.5278592375366569
1.4975562072336266
1.4672531769305963
1.4379276637341154
1.409579667644184
1.383186705767351
1.3577712609970674
1.3343108504398826
1.3118279569892473
1.2913000977517106
1.2766373411534702
1.2649071358748778
1.2502443792766371
1.2365591397849462
1.2238514173998043
1.2111436950146628
1.198435972629521
1.1867057673509287
1.1749755620723363
1.1622678396871946
1.1505376344086022
1.1407624633431086
1.130987292277615
1.126099706744868
1.1231671554252198
1.115347018572825
1.1055718475073313
1.0948191593352885
1.0840664711632453
1.075268817204301
1.0694037145650048
1.0703812316715542
1.0821114369501466
1.1085043988269794
1.1515151515151516
1.203323558162268
1.2688172043010753
1.3558162267839686
1.4613880742913
1.5826001955034212
1.7145650048875856
1.8523949169110456
1.991202346041056
2.126099706744868
2.2551319648093844
2.3743890518084068
2.482893450635386
2.579667644183773
2.6529814271749754
2.710654936461388
2.768328445747801
2.819159335288368
2.86217008797654
2.895405669599218
2.919843597262952
2.936461388074292
2.946236559139785
2.9501466275659824
2.949169110459433
2.943304007820137
2.930596285434995
2.913000977517106
2.8905180840664717
2.8611925708699903
2.8240469208211145
2.7810361681329425
2.7331378299120237
2.681329423264907
2.6265884652981426
2.56891495601173
2.5112414467253177
2.453567937438905
2.4027370478983383
2.356793743890518
2.310850439882698
2.264907135874878
2.220918866080156
2.1808406647116323
2.145650048875855
2.112414467253177
2.081133919843597
2.0498533724340176
2.018572825024438
1.9872922776148585
1.956989247311828
1.9305962854349952
1.9071358748778104
1.8807429130009776
1.8514173998044965
1.8201368523949168
1.7898338220918866
1.7595307917888563
1.729227761485826
1.6989247311827955
1.6695992179863148
1.6392961876832846
1.6099706744868034
1.5865102639296187
1.565982404692082
1.542521994134897
1.5190615835777126
1.495601173020528
1.4721407624633431
1.4496578690127078
1.4291300097751711
1.409579667644184
1.391006842619746
1.3724340175953078
1.3548387096774193
1.3391984359726294
1.3294232649071358
1.3225806451612905
1.3147605083088951
1.3069403714565004
1.2981427174975562
1.289345063538612
1.2805474095796676
1.270772238514174
1.260019550342131
1.2482893450635386
1.2375366568914956
1.2287390029325511
1.2238514173998043
1.2218963831867058
1.2179863147605083
1.2130987292277615
1.209188660801564
1.209188660801564
1.2160312805474096
1.2316715542521994
1.2619745845552297
1.310850439882698
1.3782991202346042
1.4633431085043989
1.565982404692082
1.6666666666666667
1.76930596285435
1.8914956011730208
2.0234604105571847
2.1593352883675463
2.29227761485826
2.418377321603128
2.5347018572825024
2.6392961876832843
2.729227761485826
2.806451612903226
2.8719452590420333
2.917888563049853
2.949169110459433
2.978494623655914
3.002932551319648
3.0234604105571847
3.038123167155425
3.046920821114369
3.0498533724340176
3.047898338220919
3.0391006842619745
3.024437927663734
3.003910068426197
2.9765395894428157
2.945259042033236
2.909090909090909
2.868035190615836
2.8211143695014664
2.76930596285435
2.713587487781036
2.656891495601173
2.6021505376344085
2.549364613880743
2.5004887585532747
2.4457478005865103
2.389051808406647
2.347018572825025
2.313782991202346
2.281524926686217
2.2502443792766376
2.219941348973607
2.189638318670577
2.160312805474096
2.131964809384164
2.102639296187683
2.0733137829912023
2.0439882697947214
2.0146627565982405
1.9843597262952104
1.9579667644183771
1.9335288367546437
1.9071358748778104
1.8778103616813293
1.847507331378299
1.8162267839687196
1.7849462365591398
1.7546432062561097
1.7253176930596286
1.6979472140762464
1.6735092864125125
1.6500488758553276
1.6314760508308896
1.6158357771260996
1.598240469208211
1.5806451612903225
1.5620723362658846
1.543499511241447
1.5249266862170088
1.5073313782991202
1.4926686217008798
1.478983382209189
1.466275659824047
1.4545454545454546
1.4437927663734116
1.435972629521017
1.4291300097751711
1.4213098729227762
1.4134897360703813
1.404692082111437
1.396871945259042
1.3900293255131966
1.3822091886608017
1.3724340175953078
1.3636363636363635
1.3558162267839686
1.348973607038123
1.346041055718475
1.348973607038123
1.359726295210166
1.3812316715542523
1.4164222873900294
1.4672531769305963
1.5366568914956011
1.6236559139784943
1.726295210166178
1.842619745845552
1.9687194525904204
2.099706744868035
2.23069403714565
2.3411534701857284
2.436950146627566
2.5376344086021505
2.634408602150537
2.721407624633431
2.7976539589442817
2.863147605083089
2.916911045943304
2.960899315738025
2.997067448680352
3.0254154447702835
3.046920821114369
3.056695992179863
3.058651026392962
3.059628543499511
3.0576735092864125
3.0518084066471163
3.042033235581622
3.027370478983382
3.005865102639296
2.978494623655914
2.945259042033236
2.905180840664712
2.857282502443793
2.803519061583578
2.7497556207233624
2.695014662756598
2.634408602150537
2.572825024437928
2.5102639296187683
2.4486803519061584
2.389051808406647
2.333333333333333
2.280547409579668
2.23069403714565
2.185728250244379
2.144672531769306
2.1094819159335287
2.0772238514174
2.043010752688172
2.007820136852395
1.9716520039100685
1.9345063538611929
1.8963831867057677
1.858260019550342
1.8201368523949168
1.782991202346041
1.7458455522971652
1.70772238514174
1.675464320625611
1.64613880742913
1.6129032258064515
1.5786901270772238
1.544477028347996
1.509286412512219
1.4750733137829912
1.4418377321603129
1.409579667644184
1.3782991202346042
1.348973607038123
1.321603128054741
1.2961876832844574
1.2766373411534702
1.2609970674486803
1.241446725317693
1.2228739002932552
1.2043010752688172
1.1867057673509287
1.1691104594330402
1.1515151515151516
1.1348973607038124
1.121212121212121
1.1094819159335287
1.0977517106549364
1.0909090909090908
1.086021505376344
1.0772238514173995
1.0664711632453567
1.0547409579667644
1.043010752688172
1.032258064516129
1.0234604105571847
1.0166177908113392
1.013685239491691
1.0166177908113392
1.029325513196481
1.0557184750733135
1.0918866080156402
1.1407624633431086
1.2101661779081134
1.300097751710655
1.4076246334310851
1.5288367546432062
1.6608015640273706
1.7976539589442817
1.935483870967742
2.0684261974584555
2.196480938416422
2.315738025415445
2.4086021505376345
2.482893450635386
2.557184750733138
2.624633431085044
2.6823069403714563
2.732160312805474
2.774193548387097
2.8103616813294234
2.8406647116324537
2.865102639296188
2.884652981427175
2.8993157380254155
2.90811339198436
2.909090909090909
2.9042033235581624
2.897360703812317
2.886608015640274
2.8699902248289346
2.8475073313782997
2.8181818181818183
2.782013685239492
2.7390029325513194
2.6881720430107525
2.632453567937439
2.572825024437928
2.5180840664711632
2.464320625610948
2.406647116324536
2.347996089931574
2.289345063538612
2.233626588465298
2.1818181818181817
2.133919843597263
2.089931573802541
2.048875855327468
2.0097751710654936
1.9736070381231672
1.9393939393939397
1.9100684261974583
1.8826979472140764
1.8523949169110456
1.8211143695014664
1.790811339198436
1.7595307917888563
1.726295210166178
1.6920821114369502
1.6559139784946235
1.6207233626588464
1.587487781036168
1.5542521994134897
1.5278592375366569
1.504398826979472
1.478005865102639
1.4496578690127078
1.4213098729227762
1.393939393939394
1.367546432062561
1.3411534701857282
1.316715542521994
1.2932551319648091
1.270772238514174
1.249266862170088
1.2297165200391007
1.2160312805474096
1.206256109481916
1.1935483870967742
1.1798631476050832
1.164222873900293
1.1495601173020529
1.1358748778103618
1.1231671554252198
1.1114369501466277
1.1006842619745845
1.088954056695992
1.0772238514173995
1.0694037145650048
1.0635386119257086
1.0527859237536656
1.0410557184750733
1.0312805474095796
1.0234604105571847
1.018572825024438
1.0195503421309873
1.029325513196481
1.0527859237536656
1.0928641251221896
1.1515151515151516
1.2297165200391007
1.3128054740957966
1.404692082111437
1.5180840664711632
1.6451612903225807
1.7712609970674489
1.89247311827957
2.01564027370479
2.1358748778103616
2.2482893450635384
2.350928641251222
2.441837732160313
2.520039100684262
2.5777126099706744
2.621700879765396
2.665689149560117
2.7038123167155423
2.735092864125122
2.7614858260019552
2.782013685239492
2.7966764418377323
2.806451612903226
2.811339198435973
2.812316715542522
2.8084066471163247
2.7996089931573804
2.7859237536656893
2.766373411534702
2.740957966764418
2.70772238514174
2.668621700879765
2.622678396871945
2.5718475073313782
2.5161290322580645
2.4574780058651027
2.3978494623655915
2.3391984359726297
2.280547409579668
2.2297165200391005
2.182795698924731
2.133919843597263
2.0869990224828934
2.042033235581622
2.0009775171065494
1.9618768328445748
1.9266862170087975
1.8934506353861196
1.86119257086999
1.828934506353861
1.7976539589442817
1.7663734115347018
1.7409579667644184
1.715542521994135
1.686217008797654
1.6549364613880744
1.6236559139784943
1.5913978494623655
1.5581622678396871
1.5239491691104594
1.4916911045943304
1.4613880742913
1.43108504398827
1.4007820136852396
1.3782991202346042
1.359726295210166
1.3372434017595307
1.3118279569892473
1.2883675464320623
1.2658846529814272
1.2434017595307918
1.2228739002932552
1.2043010752688172
1.1867057673509287
1.1691104594330402
1.1515151515151516
1.133919843597263
1.1221896383186705
1.1133919843597262
1.1036168132942326
1.0928641251221896
1.0811339198435972
1.0713587487781036
1.0625610948191593
1.053763440860215
1.0439882697947214
1.0332355816226784
1.0224828934506354
1.0117302052785924
1.0048875855327468
1.0019550342130987
0.997067448680352
0.9931573802541545
0.9960899315738024
1.007820136852395
1.0303030303030305
1.0684261974584557
1.1231671554252198
1.1974584555229717
1.289345063538612
1.396871945259042
1.501466275659824
1.6050830889540566
1.7243401759530792
1.8494623655913975
1.9765395894428155
2.0987292277614857
2.2130987292277613
2.3167155425219943
2.407624633431085
2.487781036168133
2.5562072336265884
2.6129032258064515
2.659824046920821
2.6901270772238512
2.7096774193548385
2.7282502443792764
2.742913000977517
2.7536656891495603
2.760508308895406
2.763440860215054
2.7614858260019552
2.7536656891495603
2.740957966764418
2.721407624633431
2.6959921798631474
2.665689149560117
2.63049853372434
2.589442815249267
2.5425219941348973
2.490713587487781
2.4359726295210167
2.378299120234604
2.320625610948192
2.2629521016617797
2.2082111436950145
2.156402737047898
2.10850439882698
2.064516129032258
2.027370478983382
1.9951124144672527
1.962854349951124
1.9315738025415443
1.9012707722385145
1.871945259042033
1.8435972629521016
1.81524926686217
1.7869012707722385
1.7575757575757576
1.726295210166178
1.694037145650049
1.6666666666666667
1.6412512218963833
1.611925708699902
1.5806451612903225
1.5493646138807429
1.517106549364614
1.4848484848484849
1.452590420332356
1.4213098729227762
1.3919843597262953
1.3655913978494625
1.3401759530791788
1.316715542521994
1.300097751710655
1.2864125122189638
1.2697947214076246
1.2512218963831867
1.2316715542521994
1.2130987292277615
1.1964809384164223
1.1827956989247312
1.1700879765395895
1.1583577712609971
1.1466275659824048
1.1348973607038124
1.1280547409579669
1.1231671554252198
1.115347018572825
1.1065493646138806
1.0987292277614855
1.0899315738025417
1.0811339198435972
1.072336265884653
1.0625610948191593
1.0518084066471165
1.040078201368524
1.0303030303030305
1.0234604105571847
1.0224828934506354
1.0283479960899315
1.0410557184750733
1.0664711632453567
1.10752688172043
1.1671554252199414
1.2453567937438903
1.3421309872922775
1.455522971652004
1.5806451612903225
1.710654936461388
1.8416422287390029
1.95405669599218
2.056695992179863
2.1652003910068425
2.270772238514174
2.367546432062561
2.455522971652004
2.5317693059628543
2.595307917888563
2.6480938416422286
2.6901270772238512
2.7233626588465296
2.748778103616813
2.7673509286412514
2.776148582600196
2.7781036168132944
2.779081133919844
2.777126099706745
2.771260997067449
2.760508308895406
2.742913000977517
2.719452590420332
2.6881720430107525
2.650048875855328
2.6050830889540566
2.5542521994134897
2.5034213098729228
2.453567937438905
2.398826979472141
2.3421309872922778
2.286412512218964
2.2346041055718477
2.1867057673509285
2.1417399804496577
2.099706744868035
2.059628543499511
2.0234604105571847
1.9902248289345064
1.959921798631476
1.9335288367546437
1.911045943304008
1.8856304985337244
1.8592375366568916
1.8318670576735088
1.8035190615835777
1.7732160312805474
1.7429130009775171
1.7126099706744868
1.6813294232649072
1.6500488758553276
1.6187683284457477
1.5923753665689149
1.5669599217986314
1.5376344086021505
1.5063538611925709
1.4760508308895406
1.4467253176930597
1.4193548387096775
1.393939393939394
1.3695014662756595
1.346041055718475
1.3225806451612905
1.3098729227761483
1.3040078201368523
1.2971652003910068
1.289345063538612
1.2766373411534702
1.2619745845552297
1.2473118279569892
1.2326490713587488
1.219941348973607
1.2082111436950147
1.1974584555229717
1.187683284457478
1.1759530791788857
1.166177908113392
1.1612903225806452
1.1573802541544478
1.1485826001955035
1.13880742913001
1.1290322580645162
1.1202346041055715
1.110459433040078
1.1006842619745845
1.0928641251221896
1.0869990224828934
1.0869990224828934
1.096774193548387
1.1202346041055715
1.1544477028347997
1.2043010752688172
1.2766373411534702
1.3685239491691104
1.478983382209189
1.6050830889540566
1.7419354838709675
1.884652981427175
2.0283479960899315
2.16911045943304
2.303030303030303
2.426197458455523
2.5239491691104594
2.606060606060606
2.6881720430107525
2.7624633431085046
2.827956989247312
2.8836754643206257
2.929618768328446
2.9657869012707723
2.9931573802541545
3.013685239491691
3.029325513196481
3.037145650048876
3.0361681329423265
3.0283479960899315
3.0175953079178885
3.0009775171065494
2.979472140762464
2.951124144672532
2.917888563049853
2.878787878787879
2.834799608993157
2.78494623655914
2.732160312805474
2.677419354838709
2.6207233626588464
2.56891495601173
2.5210166177908118
2.4701857282502444
2.420332355816227
2.372434017595308
2.3274682306940373
2.2854349951124147
2.24633431085044
2.210166177908113
2.174975562072336
2.1407624633431084
2.110459433040078
2.083088954056696
2.056695992179863
2.0283479960899315
1.9990224828934504
1.9687194525904204
1.93841642228739
1.90811339198436
1.8758553274682308
1.8435972629521016
1.8113391984359728
1.780058651026393
1.7497556207233629
1.7204301075268815
1.6950146627565983
1.672531769305963
1.6480938416422288
1.6226783968719452
1.595307917888563
1.56891495601173
1.544477028347996
1.521016617790811
1.498533724340176
1.478983382209189
1.4613880742913
1.444770283479961
1.4330400782013686
1.423264907135875
1.412512218963832
1.401759530791789
1.391006842619746
1.3812316715542523
1.3714565004887584
1.3607038123167154
1.3509286412512218
1.3401759530791788
1.3313782991202343
1.3235581622678396
1.316715542521994
1.313782991202346
1.3128054740957966
1.3088954056695992
1.3040078201368523
1.2991202346041055
1.2971652003910068
1.300097751710655
1.3098729227761483
1.3304007820136852
1.3655913978494625
1.4173998044965788
1.487781036168133
1.563049853372434
1.6480938416422288
1.7575757575757576
1.8836754643206255
2.018572825024438
2.158357771260997
2.2981427174975564
2.4330400782013686
2.5591397849462365
2.673509286412512
2.7751710654936463
2.8641251221896384
2.93841642228739
2.991202346041056
3.027370478983382
3.06158357771261
3.090909090909091
3.114369501466276
3.131964809384164
3.1436950146627565
3.1495601173020527
3.1495601173020527
3.142717497556207
3.1300097751710654
3.1114369501466275
3.0869990224828934
3.0576735092864125
3.022482893450636
2.9804496578690127
2.9335288367546437
2.881720430107527
2.8269794721407626
2.76930596285435
