ppg
2.0009775171065494
1.9931573802541545
1.9872922776148585
1.9804496578690127
1.9726295210166176
1.964809384164223
1.9589442815249267
1.95405669599218
1.9501466275659824
1.9472140762463344
1.9442815249266865
1.9423264907135875
1.943304007820137
1.945259042033236
1.948191593352884
1.9530791788856303
1.956989247311828
1.9608993157380252
1.963831867057673
1.9667644183773216
1.9667644183773216
1.9657869012707725
1.963831867057673
1.9608993157380252
1.9550342130987293
1.9472140762463344
1.9403714565004888
1.935483870967742
1.9305962854349952
1.9335288367546437
1.9560117302052784
2.006842619745845
2.090909090909091
2.209188660801564
2.355816226783969
2.5180840664711632
2.6803519061583576
2.8240469208211145
2.93841642228739
3.010752688172043
3.048875855327468
3.0635386119257086
3.0527859237536656
3.022482893450636
2.9824046920821115
2.93841642228739
2.8963831867057674
2.859237536656892
2.8289345063538613
2.806451612903226
2.789833822091887
2.776148582600196
2.7653958944281527
2.7565982404692084
2.745845552297165
2.730205278592375
2.7067448680351904
2.6725317693059627
2.6285434995112413
2.576735092864125
2.5180840664711632
2.4565004887585533
2.3949169110459434
2.337243401759531
2.291300097751711
2.2561094819159337
2.225806451612903
2.2023460410557183
2.185728250244379
2.174975562072336
2.1681329423264906
2.161290322580645
2.15347018572825
2.142717497556207
2.129032258064516
2.112414467253177
2.096774193548387
2.081133919843597
2.0625610948191597
2.042033235581622
2.021505376344086
2.0019550342130987
1.9824046920821117
1.964809384164223
1.949169110459433
1.935483870967742
1.9237536656891496
1.9120234604105573
1.903225806451613
1.8973607038123168
1.8944281524926687
1.889540566959922
1.884652981427175
1.8797653958944285
1.8748778103616808
1.871945259042033
1.8699902248289344
1.869012707722385
1.869012707722385
1.871945259042033
1.8758553274682308
1.8807429130009776
1.8875855327468232
1.8934506353861196
1.8993157380254155
1.905180840664712
1.911045943304008
1.9159335288367547
1.919843597262952
1.921798631476051
1.921798631476051
1.919843597262952
1.913978494623656
1.905180840664712
1.8983382209188664
1.8963831867057677
1.903225806451613
1.927663734115347
1.9775171065493649
2.058651026392962
2.1730205278592374
2.314760508308896
2.4711632453567938
2.6295210166177907
2.771260997067449
2.8856304985337244
2.960899315738025
3.0019550342130987
3.0195503421309877
3.0146627565982405
2.991202346041056
2.956989247311828
2.917888563049853
2.878787878787879
2.844574780058651
2.817204301075269
2.7966764418377323
2.782991202346041
2.774193548387097
2.7673509286412514
2.7595307917888565
2.7517106549364616
2.740957966764418
2.721407624633431
2.6930596285435
2.653958944281525
2.6070381231671558
2.5532746823069403
2.495601173020528
2.4389051808406648
2.3851417399804498
2.343108504398827
2.3098729227761488
2.280547409579668
2.257086999022483
2.2385141739980448
2.2248289345063537
2.2140762463343107
2.204301075268817
2.1945259042033234
2.1818181818181817
2.166177908113392
2.147605083088954
2.1270772238514173
2.10850439882698
2.090909090909091
2.070381231671554
2.048875855327468
2.027370478983382
2.005865102639296
1.9853372434017595
1.9657869012707725
1.948191593352884
1.932551319648094
1.9188660801564028
1.9071358748778104
1.8993157380254155
1.8944281524926687
1.8885630498533723
1.881720430107527
1.873900293255132
1.8670576735092863
1.8602150537634408
1.855327468230694
1.8533724340175952
1.8523949169110456
1.8523949169110456
1.8543499511241448
1.857282502443793
1.8621700879765395
1.8670576735092863
1.871945259042033
1.87683284457478
1.8826979472140764
1.8885630498533723
1.8944281524926687
1.8993157380254155
1.902248289345064
1.903225806451613
1.9012707722385145
1.8963831867057677
1.8914956011730208
1.8885630498533723
1.889540566959922
1.9042033235581624
1.9423264907135875
2.010752688172043
2.112414467253177
2.244379276637341
2.3978494623655915
2.558162267839687
2.708699902248289
2.8367546432062563
2.9257086999022484
2.979472140762464
3.0097751710654936
3.01564027370479
3.0009775171065494
2.970674486803519
2.932551319648094
2.89247311827957
2.854349951124145
2.822091886608016
2.795698924731183
2.7751710654936463
2.7595307917888565
2.7468230694037143
2.735092864125122
2.7233626588465296
2.705767350928641
2.6803519061583576
2.64613880742913
2.603128054740958
2.5513196480938416
2.363636363636364
2.0957966764418376
1.9090909090909087
1.7683284457478006
1.6666666666666667
1.590420332355816
1.5249266862170088
1.4731182795698925
1.435972629521017
1.4105571847507332
1.392961876832845
1.3782991202346042
1.3626588465298142
1.343108504398827
1.3196480938416422
1.2932551319648091
1.2609970674486803
1.2316715542521994
1.2013685239491692
1.164222873900293
1.1241446725317692
1.0801564027370478
1.0361681329423265
0.9941348973607038
0.9530791788856304
0.9149560117302052
0.8807429130009775
0.8504398826979472
0.8211143695014663
0.7996089931573802
0.7820136852394917
0.7585532746823069
0.7350928641251222
0.7155425219941349
0.6989247311827957
0.6862170087976539
0.6774193548387096
0.6715542521994134
0.6695992179863147
0.6715542521994134
0.6744868035190615
0.678396871945259
0.6862170087976539
0.696969696969697
0.7057673509286413
0.7126099706744868
0.718475073313783
0.7223851417399805
0.7243401759530792
0.7253176930596286
0.7233626588465298
0.7194525904203324
0.7126099706744868
0.7018572825024438
0.6959921798631477
0.6940371456500489
0.6950146627565983
0.7116324535679375
0.7595307917888563
0.855327468230694
1.010752688172043
1.2258064516129032
1.490713587487781
1.7839687194525904
2.074291300097752
2.332355816226784
2.536656891495601
2.6695992179863146
2.7390029325513194
2.764418377321604
2.750733137829912
2.7067448680351904
2.643206256109482
2.570869990224829
2.498533724340176
2.4330400782013686
2.378299120234604
2.337243401759531
2.3098729227761488
2.290322580645161
2.275659824046921
2.264907135874878
2.2521994134897363
2.228739002932551
2.1925708699902247
2.1436950146627565
2.0821114369501466
2.010752688172043
1.9345063538611929
1.8592375366568916
1.7917888563049853
1.737047898338221
1.6979472140762464
1.6715542521994136
1.6529814271749756
1.6412512218963833
1.635386119257087
1.6314760508308896
1.6256109481915937
1.6158357771260996
1.6001955034213098
1.5806451612903225
1.555229716520039
1.5268817204301075
1.500488758553275
1.4750733137829912
1.444770283479961
1.4134897360703813
1.383186705767351
1.35386119257087
1.3264907135874875
1.3020527859237536
1.281524926686217
1.2649071358748778
1.249266862170088
1.2346041055718475
1.2209188660801564
1.2101661779081134
1.2013685239491692
1.1906158357771262
1.1798631476050832
1.1700879765395895
1.1612903225806452
1.1534701857282503
1.1466275659824048
1.13880742913001
1.1329423264907137
1.1290322580645162
1.1270772238514175
1.1300097751710656
1.1358748778103618
1.1407624633431086
1.147605083088954
1.1583577712609971
1.1710654936461389
1.1837732160312806
1.1974584555229717
1.2082111436950147
1.2160312805474096
1.219941348973607
1.2189638318670577
1.2130987292277615
1.206256109481916
1.2003910068426198
1.2013685239491692
1.2238514173998043
1.2834799608993157
1.393939393939394
1.5620723362658846
1.7859237536656891
2.047898338220919
2.3255131964809386
2.590420332355816
2.819159335288368
2.979472140762464
3.0791788856304985
3.1407624633431084
3.158357771260997
3.1407624633431084
3.0987292277614857
3.043010752688172
2.98435972629521
2.9315738025415445
2.887585532746823
2.8533724340175954
2.83088954056696
2.819159335288368
2.8084066471163247
2.795698924731183
2.7839687194525906
2.766373411534702
2.73802541544477
2.6930596285435
2.63049853372434
2.5513196480938416
2.458455522971652
2.356793743890518
2.251221896383187
2.1485826001955037
2.0625610948191597
1.9902248289345064
1.9257086999022484
1.8729227761485825
1.83088954056696
1.8005865102639296
1.7790811339198436
1.758553274682307
1.7380254154447703
1.7165200391006843
1.689149560117302
1.6549364613880744
1.6158357771260996
1.5806451612903225
1.5464320625610948
1.5063538611925709
1.4623655913978495
1.4203323558162269
1.3773216031280548
1.3333333333333333
1.2903225806451613
1.2482893450635386
1.206256109481916
1.1671554252199414
1.130987292277615
1.1026392961876832
1.0772238514173995
1.0478983382209188
1.0195503421309873
0.9921798631476052
0.9667644183773216
0.9433040078201368
0.9217986314760508
0.9042033235581622
0.8885630498533724
0.8748778103616813
0.8641251221896383
0.8602150537634409
0.8582600195503421
0.8533724340175953
0.8484848484848485
0.8426197458455523
0.8357771260997068
0.8279569892473119
0.8191593352883676
0.8103616813294232
0.8005865102639296
0.7917888563049853
0.7800586510263929
0.7634408602150538
0.7497556207233627
0.7370478983382209
0.7223851417399805
0.7155425219941349
0.729227761485826
0.782991202346041
0.8934506353861192
1.0684261974584557
1.303030303030303
1.5786901270772238
1.869012707722385
2.146627565982405
2.3626588465298144
2.517106549364614
2.631476050830889
2.69208211143695
2.701857282502444
2.670576735092864
2.610948191593353
2.5386119257087
2.464320625610948
2.393939393939394
2.334310850439883
2.2883675464320627
2.2580645161290325
2.2375366568914954
2.225806451612903
2.220918866080156
2.217986314760508
2.210166177908113
2.1945259042033234
2.167155425219941
2.126099706744868
2.0733137829912023
2.0117302052785924
1.946236559139785
1.8826979472140764
1.83088954056696
1.7898338220918866
1.7546432062561097
1.7302052785923754
1.7165200391006843
1.7096774193548387
1.70772238514174
1.7057673509286413
1.7028347996089932
1.6979472140762464
1.6881720430107527
1.6735092864125125
1.6559139784946235
1.6373411534701858
1.619745845552297
1.5992179863147604
1.5777126099706744
1.555229716520039
1.533724340175953
1.512218963831867
1.4946236559139785
1.479960899315738
1.4672531769305963
1.455522971652004
1.4437927663734116
1.435972629521017
1.43108504398827
1.4271749755620724
1.423264907135875
1.4193548387096775
1.41544477028348
1.412512218963832
1.4115347018572826
1.4134897360703813
1.4164222873900294
1.4213098729227762
1.4291300097751711
1.4379276637341154
1.4486803519061584
1.4594330400782014
1.4701857282502444
1.479960899315738
1.487781036168133
1.4936461388074291
1.498533724340176
1.501466275659824
1.5034213098729228
1.5034213098729228
1.500488758553275
1.4946236559139785
1.4887585532746823
1.4809384164222874
1.4711632453567938
1.466275659824047
1.478005865102639
1.5180840664711632
1.5962854349951123
1.7174975562072337
1.881720430107527
2.0772238514174
2.286412512218964
2.4887585532746823
2.6637341153470184
2.7869012707722387
2.8641251221896384
2.9120234604105573
2.9266862170087977
2.913000977517106
2.8797653958944283
2.835777126099707
2.787878787878788
2.7419354838709675
2.701857282502444
2.668621700879765
2.644183773216031
2.625610948191593
2.611925708699902
2.603128054740958
2.593352883675464
2.579667644183773
2.558162267839687
2.525904203323558
2.479960899315738
2.4222873900293256
2.35386119257087
2.278592375366569
2.198435972629521
2.1192570869990224
2.0527859237536656
1.997067448680352
1.9472140762463344
1.906158357771261
1.8748778103616808
1.8533724340175952
1.8387096774193548
1.827956989247312
1.818181818181818
1.8064516129032255
1.7898338220918866
1.76930596285435
1.7468230694037146
1.7233626588465298
1.6950146627565983
1.664711632453568
1.6344086021505375
1.6041055718475072
1.5747800586510263
1.5454545454545454
1.5180840664711632
1.495601173020528
1.4750733137829912
1.455522971652004
1.436950146627566
1.4222873900293256
1.409579667644184
1.3949169110459434
1.380254154447703
1.3655913978494625
1.3528836754643203
1.3440860215053765
1.33822091886608
1.335288367546432
1.3343108504398826
1.3333333333333333
1.3333333333333333
1.335288367546432
1.33822091886608
1.3401759530791788
1.343108504398827
1.346041055718475
1.3499511241446724
1.3528836754643203
1.3558162267839686
1.356793743890518
1.3577712609970674
1.3577712609970674
1.3548387096774193
1.3470185728250244
1.3401759530791788
1.3313782991202343
1.3196480938416422
1.313782991202346
1.324535679374389
1.3655913978494625
1.447702834799609
1.573802541544477
1.739980449657869
1.932551319648094
2.132942326490713
2.320625610948192
2.462365591397849
2.560117302052786
2.6285434995112413
2.6608015640273703
2.656891495601173
2.624633431085044
2.575757575757576
2.5190615835777126
2.462365591397849
2.410557184750733
2.366568914956012
2.3313782991202348
2.304985337243402
2.2854349951124147
2.269794721407625
2.2551319648093844
2.239491691104594
2.218963831867057
2.189638318670577
2.147605083088954
2.09188660801564
2.026392961876833
1.951124144672532
1.870967741935484
1.7917888563049853
1.726295210166178
1.6744868035190617
1.6265884652981428
1.5865102639296187
1.5571847507331378
1.5376344086021505
1.5268817204301075
1.5190615835777126
1.5112414467253177
1.5034213098729228
1.4936461388074291
1.4819159335288368
1.4701857282502444
1.458455522971652
1.4408602150537635
1.418377321603128
1.3958944281524928
1.3734115347018572
1.3499511241446724
1.3255131964809383
1.3020527859237536
1.2795698924731185
1.2590420332355816
1.2404692082111437
1.2218963831867058
1.209188660801564
1.2003910068426198
1.1906158357771262
1.1798631476050832
1.1691104594330402
1.160312805474096
1.155425219941349
1.152492668621701
1.1515151515151516
1.1515151515151516
1.1534701857282503
1.1564027370478984
1.1612903225806452
1.1681329423264908
1.1759530791788857
1.1857282502443791
1.1964809384164223
1.2072336265884651
1.2179863147605083
1.2287390029325511
1.2394916911045943
1.249266862170088
1.2561094819159335
1.2590420332355816
1.2570869990224829
1.2561094819159335
1.2551319648093842
1.2561094819159335
1.267839687194526
1.3010752688172045
1.367546432062561
1.4760508308895406
1.6265884652981428
1.812316715542522
2.018572825024438
2.2248289345063537
2.412512218963832
2.552297165200391
2.649071358748778
2.717497556207233
2.750733137829912
2.752688172043011
2.730205278592375
2.6901270772238512
2.644183773216031
2.598240469208211
2.5562072336265884
2.5219941348973607
2.4975562072336266
2.482893450635386
2.474095796676442
2.4672531769305963
2.464320625610948
2.4604105571847508
2.4516129032258065
2.432062561094819
2.398826979472141
2.3528836754643208
2.2961876832844577
2.231671554252199
2.163245356793744
2.0977517106549364
2.0449657869012707
2.003910068426197
1.9687194525904204
1.9442815249266865
1.9305962854349952
1.9237536656891496
1.920821114369501
1.920821114369501
1.920821114369501
1.9188660801564028
1.911045943304008
1.8983382209188664
1.881720430107527
1.865102639296188
1.847507331378299
1.8240469208211143
1.7986314760508308
1.772238514173998
1.7468230694037146
1.7223851417399805
1.6989247311827955
1.6774193548387095
1.6578690127077225
1.6412512218963833
1.6275659824046922
1.6187683284457477
1.6138807429130009
1.6109481915933528
1.611925708699902
1.6158357771260996
1.6226783968719452
1.6304985337243405
1.6383186705767352
1.64613880742913
1.6559139784946235
1.6686217008797657
1.683284457478006
1.6989247311827955
1.7126099706744868
1.726295210166178
1.7409579667644184
1.7546432062561097
1.7653958944281525
1.7732160312805474
1.7771260997067448
1.7761485826001957
1.7702834799608993
1.761485826001955
1.7497556207233629
1.7331378299120237
1.7135874877810362
1.6911045943304008
1.6656891495601174
1.643206256109482
1.6314760508308896
1.643206256109482
1.6920821114369502
1.7849462365591398
1.9237536656891496
2.1006842619745845
2.2991202346041058
2.4995112414467253
2.679374389051808
2.8084066471163247
2.8905180840664717
2.943304007820137
2.9579667644183774
2.93841642228739
2.8914956011730206
2.827956989247312
2.7565982404692084
2.684261974584555
2.616813294232649
2.5591397849462365
2.512218963831867
2.474095796676442
2.443792766373412
2.418377321603128
2.393939393939394
2.3685239491691106
2.3362658846529816
2.29227761485826
2.236559139784946
2.166177908113392
2.0821114369501466
1.989247311827957
1.8905180840664717
1.7927663734115349
1.7116324535679377
1.643206256109482
1.5786901270772238
1.525904203323558
1.4858260019550342
1.4594330400782014
1.4418377321603129
1.4291300097751711
1.418377321603128
1.4076246334310851
1.392961876832845
1.3734115347018572
1.3548387096774193
1.3343108504398826
1.3049853372434017
1.2697947214076246
1.2316715542521994
1.1925708699902249
1.1534701857282503
1.1143695014662756
1.075268817204301
1.0381231671554252
1.002932551319648
0.9696969696969696
0.9442815249266864
0.9237536656891496
0.9022482893450636
0.8826979472140762
0.8660801564027371
0.8514173998044966
0.8387096774193549
0.8260019550342131
0.8132942326490714
0.8015640273704789
0.7908113391984359
0.7839687194525904
0.7800586510263929
0.782991202346041
0.7898338220918866
0.7976539589442815
0.8074291300097751
0.8181818181818182
0.83088954056696
0.844574780058651
0.8572825024437928
0.8690127077223851
0.8787878787878788
0.8856304985337243
0.8875855327468231
0.8895405669599218
0.8885630498533724
0.8807429130009775
0.873900293255132
0.8768328445747801
0.9022482893450636
0.9657869012707724
1.0772238514173995
1.2404692082111437
1.4506353861192571
1.6901270772238517
1.9374389051808407
2.167155425219941
2.3411534701857284
2.462365591397849
2.550342130987292
2.595307917888563
2.601173020527859
2.575757575757576
2.530791788856305
2.47702834799609
2.421309872922776
2.3704789833822093
2.3284457478005867
2.2981427174975564
2.2766373411534704
2.2639296187683287
2.257086999022483
2.2531769305962857
2.247311827956989
2.231671554252199
2.2023460410557183
2.158357771260997
2.099706744868035
2.0303030303030303
1.9560117302052784
1.881720430107527
1.812316715542522
1.7575757575757576
1.7145650048875856
1.678396871945259
1.651026392961877
1.6334310850439884
1.6236559139784943
1.6187683284457477
1.6158357771260996
1.6109481915933528
1.603128054740958
1.5913978494623655
1.573802541544477
1.5542521994134897
1.5347018572825024
1.512218963831867
1.4887585532746823
1.4643206256109482
1.439882697947214
1.4164222873900294
1.3949169110459434
1.3782991202346042
1.3636363636363635
1.3509286412512218
1.3391984359726294
1.3304007820136852
1.3264907135874875
1.324535679374389
1.321603128054741
1.3186705767350928
1.3157380254154447
1.3147605083088951
1.313782991202346
1.313782991202346
1.3157380254154447
1.3186705767350928
1.3225806451612905
1.3264907135874875
1.332355816226784
1.3411534701857282
1.3519061583577712
1.3616813294232648
1.3714565004887584
1.380254154447703
1.3861192570869991
1.3890518084066472
1.391006842619746
1.3919843597262953
1.3900293255131966
1.3851417399804498
1.3773216031280548
1.370478983382209
1.364613880742913
1.3558162267839686
1.3548387096774193
1.3724340175953078
1.4203323558162269
1.5112414467253177
1.6500488758553276
1.833822091886608
2.048875855327468
2.275659824046921
2.493646138807429
2.66177908113392
2.7839687194525906
2.881720430107527
2.941348973607038
2.963831867057673
2.956011730205278
2.9266862170087977
2.886608015640274
2.843597262952102
2.801564027370479
2.766373411534702
2.73802541544477
2.717497556207233
2.7008797653958942
2.686217008797654
2.673509286412512
2.6608015640273703
2.644183773216031
2.6177908113391983
2.579667644183773
2.529814271749756
2.4682306940371457
2.3949169110459434
2.312805474095797
2.2277614858260018
2.15347018572825
2.088954056695992
2.024437927663734
1.9667644183773216
1.920821114369501
1.8866080156402736
1.86119257086999
1.8416422287390029
1.825024437927664
1.8084066471163245
1.790811339198436
1.772238514173998
1.7517106549364614
1.732160312805474
1.7126099706744868
1.6881720430107527
1.66177908113392
1.6334310850439884
1.6050830889540566
1.576735092864125
1.547409579667644
1.5190615835777126
1.4926686217008798
1.466275659824047
1.4418377321603129
1.423264907135875
1.4086021505376345
1.392961876832845
1.3773216031280548
1.3607038123167154
1.3421309872922775
1.3255131964809383
1.310850439882698
1.2971652003910068
1.2854349951124144
1.2746823069403714
1.2668621700879763
1.2609970674486803
1.260019550342131
1.2619745845552297
1.262952101661779
1.262952101661779
1.262952101661779
1.262952101661779
1.262952101661779
1.2639296187683284
1.2639296187683284
1.2619745845552297
1.2580645161290325
1.2512218963831867
1.2453567937438903
1.2365591397849462
1.2218963831867058
1.206256109481916
1.1994134897360704
1.2121212121212122
1.2570869990224829
1.343108504398827
1.4760508308895406
1.6500488758553276
1.8514173998044965
2.060606060606061
2.2580645161290325
2.409579667644184
2.5161290322580645
2.593352883675464
2.633431085043988
2.636363636363636
2.610948191593353
2.567937438905181
2.5180840664711632
2.466275659824047
2.419354838709677
2.3812316715542523
2.3519061583577714
2.3304007820136854
2.317693059628544
2.3098729227761488
2.304007820136853
2.2952101661779083
2.280547409579668
2.2561094819159337
2.218963831867057
2.1681329423264906
2.1055718475073317
2.0332355816226784
1.956989247311828
1.889540566959922
1.83088954056696
1.7732160312805474
1.7223851417399805
1.6823069403714566
1.653958944281525
1.6363636363636365
1.6265884652981428
1.6217008797653958
1.616813294232649
1.6109481915933528
1.603128054740958
1.5894428152492668
1.5757575757575757
1.5620723362658846
1.543499511241447
1.521016617790811
1.4975562072336266
1.474095796676442
1.4516129032258065
1.4320625610948192
1.4134897360703813
1.396871945259042
1.3812316715542523
1.3665689149560116
1.3558162267839686
1.346041055718475
1.3343108504398826
1.321603128054741
1.310850439882698
1.303030303030303
1.2971652003910068
1.29227761485826
1.2883675464320623
1.284457478005865
1.2825024437927663
1.2834799608993157
1.2854349951124144
1.2913000977517106
1.300097751710655
1.3098729227761483
1.3176930596285434
1.3255131964809383
1.3333333333333333
1.3411534701857282
1.3470185728250244
1.3499511241446724
1.3509286412512218
1.3509286412512218
1.3479960899315735
1.3440860215053765
1.3391984359726294
1.3304007820136852
1.3225806451612905
1.3264907135874875
1.3528836754643203
1.412512218963832
1.5112414467253177
1.6529814271749756
1.8328445747800584
2.037145650048876
2.24633431085044
2.4408602150537635
2.589442815249267
2.695014662756598
2.7751710654936463
2.8211143695014664
2.833822091886608
2.820136852394917
2.788856304985337
2.7497556207233624
2.710654936461388
2.675464320625611
2.6480938416422286
2.6285434995112413
2.6129032258064515
2.6021505376344085
2.5972629521016617
2.5962854349951123
2.593352883675464
2.58455522971652
2.5650048875855327
2.5317693059628543
2.484848484848485
2.4252199413489737
2.3548387096774195
2.260997067448681
2.175953079178885
2.124144672531769
2.075268817204301
2.026392961876833
1.9843597262952104
1.951124144672532
1.927663734115347
1.911045943304008
1.8983382209188664
1.8875855327468232
1.8778103616813293
1.865102639296188
1.8494623655913975
1.8318670576735088
1.812316715542522
1.7888563049853372
1.761485826001955
1.7311827956989247
1.699902248289345
1.6695992179863148
1.643206256109482
1.6187683284457477
1.5962854349951123
1.573802541544477
1.5532746823069403
1.5366568914956011
1.525904203323558
1.5180840664711632
1.5083088954056696
1.4975562072336266
1.487781036168133
1.478983382209189
1.4711632453567938
1.4652981427174976
1.4604105571847508
1.457478005865103
1.458455522971652
1.4604105571847508
1.4643206256109482
1.4701857282502444
1.478983382209189
1.4887585532746823
1.498533724340176
1.5063538611925709
1.5141739980449658
1.521016617790811
1.525904203323558
1.530791788856305
1.5347018572825024
1.5366568914956011
1.5347018572825024
1.5317693059628543
