ppg
1.6011730205278591
1.7057673509286413
1.828934506353861
1.963831867057673
2.1006842619745845
2.21505376344086
2.3098729227761488
2.4027370478983383
2.479960899315738
2.5376344086021505
2.5718475073313782
2.58455522971652
2.576735092864125
2.5532746823069403
2.515151515151515
2.4672531769305963
2.410557184750733
2.347018572825025
2.2854349951124147
2.2238514173998043
2.15347018572825
2.078201368523949
2.0
1.919843597262952
1.839687194525904
1.7605083088954057
1.6842619745845553
1.611925708699902
1.544477028347996
1.482893450635386
1.4349951124144673
1.396871945259042
1.3626588465298142
1.3343108504398826
1.3147605083088951
1.3049853372434017
1.3049853372434017
1.3128054740957966
1.327468230694037
1.346041055718475
1.3685239491691104
1.393939393939394
1.4173998044965788
1.4389051808406648
1.4604105571847508
1.4809384164222874
1.498533724340176
1.512218963831867
1.521016617790811
1.525904203323558
1.5268817204301075
1.52297165200391
1.5151515151515151
1.504398826979472
1.4897360703812317
1.4760508308895406
1.4623655913978495
1.4437927663734116
1.4222873900293256
1.3988269794721409
1.3743890518084063
1.3528836754643203
1.3391984359726294
1.3372434017595307
1.35386119257087
1.393939393939394
1.4613880742913
1.5376344086021505
1.6265884652981428
1.7438905180840665
1.8778103616813293
2.018572825024438
2.15347018572825
2.274682306940372
2.3743890518084068
2.5083088954056696
2.6471163245356792
2.716520039100684
2.73802541544477
2.7253176930596283
2.6930596285435
2.64613880742913
2.58455522971652
2.512218963831867
2.43108504398827
2.343108504398827
2.2502443792766376
2.1524926686217007
2.0527859237536656
1.9501466275659824
1.847507331378299
1.7448680351906158
1.6334310850439884
1.542521994134897
1.4760508308895406
1.401759530791789
1.3284457478005864
1.2609970674486803
1.2023460410557183
1.155425219941349
1.121212121212121
1.099706744868035
1.0909090909090908
1.093841642228739
1.1065493646138806
1.1251221896383188
1.147605083088954
1.1759530791788857
1.206256109481916
1.2355816226783969
1.262952101661779
1.2873900293255132
1.305962854349951
1.3196480938416422
1.327468230694037
1.3294232649071358
1.3255131964809383
1.3206256109481915
1.313782991202346
1.3010752688172045
1.284457478005865
1.2639296187683284
1.241446725317693
1.2179863147605083
1.1925708699902249
1.166177908113392
1.1397849462365592
1.1124144672531768
1.0840664711632453
1.0557184750733135
1.0342130987292275
1.018572825024438
1.0058651026392962
1.002932551319648
1.0195503421309873
1.0635386119257086
1.1397849462365592
1.252199413489736
1.3978494623655917
1.5708699902248289
1.7605083088954057
1.95405669599218
2.117302052785924
2.2531769305962857
2.383186705767351
2.4916911045943304
2.5698924731182795
2.6158357771261
2.63049853372434
2.6177908113391983
2.582600195503421
2.529814271749756
2.462365591397849
2.3851417399804498
2.300097751710655
2.218963831867057
2.1388074291300097
2.047898338220919
1.951124144672532
1.8494623655913975
1.7458455522971652
1.643206256109482
1.541544477028348
1.4428152492668622
1.3499511241446724
1.2639296187683284
1.187683284457478
1.1300097751710656
1.086021505376344
1.04594330400782
1.0146627565982405
0.9951124144672532
0.9872922776148584
0.9912023460410556
1.0058651026392962
1.029325513196481
1.0586510263929618
1.0918866080156402
1.126099706744868
1.160312805474096
1.1906158357771262
1.217008797653959
1.2424242424242424
1.2639296187683284
1.2795698924731185
1.289345063538612
1.2932551319648091
1.29227761485826
1.2864125122189638
1.2766373411534702
1.2639296187683284
1.249266862170088
1.2355816226783969
1.2228739002932552
1.206256109481916
1.1867057673509287
1.1652003910068427
1.142717497556207
1.118279569892473
1.093841642228739
1.0684261974584557
1.043010752688172
1.0166177908113392
0.9902248289345064
0.9648093841642228
0.9472140762463344
0.9374389051808406
0.935483870967742
0.9511241446725318
0.9921798631476052
1.0664711632453567
1.1779081133919844
1.3235581622678396
1.4975562072336266
1.6911045943304008
1.8914956011730208
2.086021505376344
2.242424242424242
2.364613880742913
2.474095796676442
2.5591397849462365
2.611925708699902
2.631476050830889
2.622678396871945
2.5884652981427174
2.533724340175953
2.463343108504399
2.3812316715542523
2.290322580645161
2.1915933528836757
2.099706744868035
2.010752688172043
1.9100684261974583
1.804496578690127
1.6959921798631477
1.5884652981427174
1.4838709677419355
1.383186705767351
1.289345063538612
1.203323558162268
1.1280547409579669
1.0635386119257086
1.0175953079178883
0.9863147605083088
0.9618768328445748
0.9472140762463344
0.9452590420332356
0.95405669599218
0.9726295210166178
1.0
1.0332355816226784
1.0713587487781036
1.110459433040078
1.1495601173020529
1.1827956989247312
1.2111436950146628
1.2375366568914956
1.2590420332355816
1.2756598240469208
1.2864125122189638
1.2913000977517106
1.2913000977517106
1.2873900293255132
1.2795698924731185
1.267839687194526
1.2531769305962854
1.2365591397849462
1.2218963831867058
1.2082111436950147
1.1896383186705768
1.1681329423264908
1.144672531769306
1.1202346041055715
1.0948191593352885
1.0694037145650048
1.0439882697947214
1.018572825024438
0.9921798631476052
0.9657869012707724
0.946236559139785
0.9315738025415444
0.9178885630498532
0.9149560117302052
0.9305962854349952
0.9726295210166178
1.04594330400782
1.1534701857282503
1.2932551319648091
1.4604105571847508
1.6441837732160314
1.833822091886608
2.016617790811339
2.163245356793744
2.27761485826002
2.380254154447703
2.4574780058651027
2.5034213098729228
2.5180840664711632
2.5034213098729228
2.4652981427174976
2.4056695992179864
2.3304007820136854
2.243401759530792
2.146627565982405
2.0547409579667644
1.964809384164223
1.8621700879765395
1.7526881720430108
1.6412512218963833
1.5288367546432062
1.418377321603128
1.3118279569892473
1.2111436950146628
1.118279569892473
1.0332355816226784
0.9589442815249268
0.895405669599218
0.8494623655913979
0.8181818181818182
0.7917888563049853
0.7751710654936461
0.7693059628543499
0.7751710654936461
0.7917888563049853
0.8172043010752689
0.8494623655913979
0.8856304985337243
0.9247311827956988
0.9638318670576737
1.0
1.032258064516129
1.121212121212121
1.2355816226783969
1.3010752688172045
1.3401759530791788
1.3616813294232648
1.3734115347018572
1.3782991202346042
1.3773216031280548
1.3724340175953078
1.364613880742913
1.35386119257087
1.3450635386119256
1.3372434017595307
1.324535679374389
1.3098729227761483
1.29227761485826
1.273704789833822
1.2482893450635386
1.2238514173998043
1.206256109481916
1.18475073313783
1.1622678396871946
1.13880742913001
1.1202346041055715
1.1055718475073313
1.0899315738025417
1.0811339198435972
1.0850439882697946
1.110459433040078
1.1964809384164223
1.2971652003910068
1.388074291300098
1.521016617790811
1.6842619745845553
1.865102639296188
2.050830889540567
2.207233626588465
2.340175953079179
2.4701857282502444
2.579667644183773
2.6608015640273703
2.710654936461388
2.729227761485826
2.719452590420332
2.684261974584555
2.6285434995112413
2.5562072336265884
2.4711632453567938
2.3870967741935485
2.302052785923754
2.204301075268817
2.0987292277614857
1.9902248289345064
1.881720430107527
1.7761485826001957
1.675464320625611
1.581622678396872
1.495601173020528
1.4203323558162269
1.356793743890518
1.305962854349951
1.2727272727272727
1.2541544477028348
1.2443792766373412
1.24633431085044
1.2590420332355816
1.2834799608993157
1.3157380254154447
1.3548387096774193
1.396871945259042
1.4408602150537635
1.4838709677419355
1.5239491691104594
1.5562072336265884
1.5826001955034212
1.6050830889540566
1.6226783968719452
1.635386119257087
1.6422287390029326
1.6451612903225807
1.6441837732160314
1.6383186705767352
1.6285434995112416
1.616813294232649
1.6021505376344083
1.585532746823069
1.5708699902248289
1.5562072336265884
1.5386119257087
1.5190615835777126
1.4975562072336266
1.4760508308895406
1.452590420332356
1.4213098729227762
1.3919843597262953
1.370478983382209
1.346041055718475
1.3225806451612905
1.3079178885630498
1.3040078201368523
1.313782991202346
1.346041055718475
1.4086021505376345
1.5053763440860215
1.6373411534701858
1.8005865102639296
1.986314760508309
2.1847507331378297
2.3822091886608017
2.5669599217986314
2.729227761485826
2.84652981427175
2.9257086999022484
2.9853372434017595
3.0175953079178885
3.0195503421309877
2.994134897360704
2.946236559139785
2.8797653958944283
2.798631476050831
2.705767350928641
2.6041055718475072
2.496578690127077
2.3978494623655915
2.303030303030303
2.1974584555229715
2.0869990224828934
1.975562072336266
1.866080156402737
1.7605083088954057
1.6608015640273706
1.5669599217986314
1.482893450635386
1.4086021505376345
1.346041055718475
1.2961876832844574
1.262952101661779
1.2443792766373412
1.2326490713587488
1.2316715542521994
1.241446725317693
1.2609970674486803
1.2883675464320623
1.3225806451612905
1.359726295210166
1.4076246334310851
1.4516129032258065
1.4809384164222874
1.5083088954056696
1.5317693059628543
1.5542521994134897
1.5718475073313782
1.58455522971652
1.5923753665689149
1.5943304007820136
1.5913978494623655
1.58455522971652
1.573802541544477
1.5591397849462365
1.542521994134897
1.5268817204301075
1.512218963831867
1.4926686217008798
1.4701857282502444
1.4467253176930597
1.4213098729227762
1.3949169110459434
1.367546432062561
1.3391984359726294
1.3098729227761483
1.2805474095796676
1.2531769305962854
1.23069403714565
1.2267839687194526
1.2346041055718475
1.2541544477028348
1.305962854349951
1.393939393939394
1.5190615835777126
1.6774193548387095
1.8631476050830889
2.064516129032258
2.2688172043010755
2.463343108504399
2.636363636363636
2.782991202346041
2.8826979472140764
2.941348973607038
2.9775171065493646
2.973607038123167
2.9501466275659824
2.920821114369501
2.866080156402737
2.766373411534702
2.6666666666666665
2.589442815249267
2.495601173020528
2.391006842619746
2.294232649071359
2.20039100684262
2.0948191593352883
1.956989247311828
1.8318670576735088
1.7429130009775171
1.6471163245356797
1.5327468230694037
1.4164222873900294
1.3411534701857282
1.289345063538612
1.2365591397849462
1.1974584555229717
1.1720430107526882
1.1534701857282503
1.1436950146627567
1.142717497556207
1.152492668621701
1.1827956989247312
1.2267839687194526
1.260019550342131
1.2873900293255132
1.3313782991202343
1.3812316715542523
1.414467253176931
1.4408602150537635
1.469208211143695
1.490713587487781
1.504398826979472
1.512218963831867
1.517106549364614
1.5180840664711632
1.5131964809384164
1.501466275659824
1.487781036168133
1.4711632453567938
1.457478005865103
1.4428152492668622
1.4242424242424243
1.4027370478983383
1.3792766373411536
1.35386119257087
1.327468230694037
1.300097751710655
1.2717497556207231
1.2434017595307918
1.2150537634408602
1.1906158357771262
1.1749755620723363
1.1730205278592376
1.1886608015640274
1.227761485826002
1.2971652003910068
1.4007820136852396
1.5386119257087
1.704789833822092
1.89247311827957
2.075268817204301
2.249266862170088
2.419354838709677
2.570869990224829
2.6803519061583576
2.7546432062561097
2.8103616813294234
2.838709677419355
2.8377321603128056
2.8103616813294234
2.7595307917888565
2.6901270772238512
2.606060606060606
2.5102639296187683
2.4056695992179864
2.2961876832844577
2.182795698924731
2.080156402737048
1.9843597262952104
1.878787878787879
1.76930596285435
1.6608015640273706
1.555229716520039
1.455522971652004
1.3626588465298142
1.278592375366569
1.2052785923753666
1.141739980449658
1.0899315738025417
1.0557184750733135
1.0342130987292275
1.0195503421309873
1.013685239491691
1.0175953079178883
1.0312805474095796
1.053763440860215
1.083088954056696
1.1173020527859236
1.1534701857282503
1.1906158357771262
1.2267839687194526
1.2609970674486803
1.289345063538612
1.3128054740957966
1.332355816226784
1.3479960899315735
1.3577712609970674
1.3636363636363635
1.364613880742913
1.3607038123167154
1.3528836754643203
1.3421309872922775
1.327468230694037
1.3098729227761483
1.295210166177908
1.2805474095796676
1.2609970674486803
1.2394916911045943
1.2150537634408602
1.1896383186705768
1.163245356793744
1.1358748778103618
1.10752688172043
1.078201368523949
1.050830889540567
1.029325513196481
1.0175953079178883
1.0205278592375366
1.0410557184750733
1.0850439882697946
1.1593352883675463
1.2658846529814272
1.4027370478983383
1.564027370478983
1.7409579667644184
1.9237536656891496
2.102639296187683
2.2658846529814274
2.4056695992179864
2.505376344086021
2.5718475073313782
2.619745845552297
2.641251221896383
2.636363636363636
2.6070381231671558
2.555229716520039
2.484848484848485
2.40078201368524
2.304985337243402
2.20039100684262
2.090909090909091
1.978494623655914
1.878787878787879
1.7859237536656891
1.683284457478006
1.5786901270772238
1.4750733137829912
1.3763440860215057
1.2854349951124144
1.203323558162268
1.130987292277615
1.0694037145650048
1.0205278592375366
0.9843597262952102
0.9638318670576737
0.956989247311828
0.9579667644183774
0.9696969696969696
0.9912023460410556
1.0205278592375366
1.056695992179863
1.0977517106549364
1.141739980449658
1.1867057673509287
1.23069403714565
1.2727272727272727
1.3118279569892473
1.3440860215053765
1.370478983382209
1.3949169110459434
1.4164222873900294
1.4349951124144673
1.4486803519061584
1.457478005865103
1.4633431085043989
1.4652981427174976
1.4643206256109482
1.4594330400782014
1.452590420332356
1.4467253176930597
1.439882697947214
1.4301075268817205
1.418377321603128
1.4037145650048877
1.3870967741935485
1.370478983382209
1.35386119257087
1.3411534701857282
1.33822091886608
1.3499511241446724
1.383186705767351
1.4291300097751711
1.4946236559139785
1.5943304007820136
1.7243401759530792
1.8797653958944285
2.0518084066471163
2.228739002932551
2.40078201368524
2.558162267839687
2.69208211143695
2.7976539589442817
2.8699902248289346
2.9100684261974585
2.918866080156403
2.902248289345064
2.8641251221896384
2.806451612903226
2.730205278592375
2.6402737047898337
2.539589442815249
2.43108504398827
2.317693059628544
2.20039100684262
2.0821114369501466
1.963831867057673
1.8621700879765395
1.76930596285435
1.6705767350928642
1.573802541544477
1.4809384164222874
1.3958944281524928
1.321603128054741
1.2580645161290325
1.2072336265884651
1.1700879765395895
1.1456500488758554
1.1348973607038124
1.1368523949169111
1.1485826001955035
1.1681329423264908
1.1945259042033236
1.2267839687194526
1.2639296187683284
1.3040078201368523
1.3450635386119256
1.3841642228739004
1.4213098729227762
1.4535679374389052
1.479960899315738
1.501466275659824
1.517106549364614
1.5278592375366569
1.5347018572825024
1.5376344086021505
1.5356793743890518
1.5298142717497556
1.521016617790811
1.5083088954056696
1.4936461388074291
1.4760508308895406
1.456500488758553
1.4349951124144673
1.412512218963832
1.392961876832845
1.3734115347018572
1.348973607038123
1.3225806451612905
1.2961876832844574
1.2746823069403714
1.2639296187683284
1.2717497556207231
1.3049853372434017
1.3685239491691104
1.4672531769305963
1.6011730205278591
1.739980449657869
1.8875855327468232
2.069403714565005
2.2658846529814274
2.4604105571847508
2.641251221896383
2.7966764418377323
2.920821114369501
3.0097751710654936
3.0625610948191597
3.081133919843597
3.0684261974584555
3.029325513196481
2.975562072336266
2.9100684261974585
2.827956989247312
2.7341153470185726
2.631476050830889
2.5219941348973607
2.407624633431085
2.291300097751711
2.1739980449657867
2.0576735092864125
1.9423264907135875
1.8299120234604105
1.7350928641251222
1.6520039100684265
1.5650048875855327
1.4819159335288368
1.4066471163245358
1.3401759530791788
1.2854349951124144
1.2434017595307918
1.2150537634408602
1.2003910068426198
1.1974584555229717
1.2072336265884651
1.227761485826002
1.2531769305962854
1.2825024437927663
1.324535679374389
1.3714565004887584
1.4134897360703813
1.4506353861192571
1.4838709677419355
1.512218963831867
1.5356793743890518
1.5542521994134897
1.5669599217986314
1.5747800586510263
1.5786901270772238
1.5786901270772238
1.573802541544477
1.5650048875855327
1.5532746823069403
1.5376344086021505
1.5190615835777126
1.4975562072336266
1.4750733137829912
1.4496578690127078
1.423264907135875
1.3949169110459434
1.3665689149560116
1.3440860215053765
1.327468230694037
1.313782991202346
1.3118279569892473
1.3284457478005864
1.3714565004887584
1.444770283479961
1.5503421309872922
1.6852394916911049
1.844574780058651
2.018572825024438
2.1974584555229715
2.3489736070381237
2.47702834799609
2.6041055718475072
2.7126099706744866
2.7947214076246336
2.8475073313782997
2.8690127077223853
2.86217008797654
2.83088954056696
2.7781036168132944
2.70772238514174
2.624633431085044
2.532746823069404
2.444770283479961
2.356793743890518
2.257086999022483
2.150537634408602
2.042033235581622
1.932551319648094
1.8240469208211143
1.7174975562072337
1.6148582600195502
1.517106549364614
1.4252199413489737
1.3411534701857282
1.2756598240469208
1.2228739002932552
1.1710654936461389
1.126099706744868
1.0909090909090908
1.0664711632453567
1.0527859237536656
1.050830889540567
1.0596285434995112
1.0772238514173995
1.1026392961876832
1.133919843597263
1.1691104594330402
1.2023460410557183
1.2346041055718475
1.267839687194526
1.2991202346041055
1.327468230694037
1.3509286412512218
1.3685239491691104
1.3822091886608017
1.391006842619746
1.3949169110459434
1.3949169110459434
1.391006842619746
1.3861192570869991
1.380254154447703
1.3695014662756595
1.3558162267839686
1.3401759530791788
1.321603128054741
1.3020527859237536
1.2795698924731185
1.2551319648093842
1.2297165200391007
1.206256109481916
1.187683284457478
1.1798631476050832
1.18475073313783
1.206256109481916
1.2502443792766371
1.3225806451612905
1.423264907135875
1.5493646138807429
1.6979472140762464
1.8602150537634408
2.027370478983382
2.189638318670577
2.3391984359726297
2.466275659824047
2.557184750733138
2.6177908113391983
2.66177908113392
2.6832844574780057
2.6803519061583576
2.654936461388074
2.6099706744868034
2.548387096774193
2.474095796676442
2.389051808406647
2.2961876832844577
2.1974584555229715
2.10752688172043
2.021505376344086
1.9266862170087975
1.828934506353861
1.7311827956989247
1.6373411534701858
1.5493646138807429
1.4682306940371457
1.396871945259042
1.3362658846529814
1.289345063538612
1.2551319648093842
1.2346041055718475
1.227761485826002
1.2326490713587488
1.2473118279569892
1.2727272727272727
1.3069403714565004
1.3479960899315735
1.392961876832845
1.439882697947214
1.4858260019550342
1.5298142717497556
1.5698924731182795
1.6041055718475072
1.6304985337243405
1.6500488758553276
1.6656891495601174
1.675464320625611
1.6793743890518085
1.678396871945259
1.6715542521994136
1.6608015640273706
1.64613880742913
1.6275659824046922
1.606060606060606
1.5835777126099706
1.5591397849462365
1.5366568914956011
1.5151515151515151
1.4897360703812317
1.4613880742913
1.434017595307918
1.4105571847507332
1.396871945259042
1.3988269794721409
1.423264907135875
1.4760508308895406
1.560117302052786
1.675464320625611
1.7956989247311828
1.924731182795699
2.083088954056696
2.2561094819159337
2.4281524926686218
2.587487781036168
2.7233626588465296
2.831867057673509
2.90811339198436
2.951124144672532
2.963831867057673
2.948191593352884
2.909090909090909
2.857282502443793
2.793743890518084
2.7145650048875853
2.624633431085044
2.5268817204301075
2.423264907135875
2.3167155425219943
2.2082111436950145
2.0987292277614857
1.989247311827957
1.8826979472140764
1.780058651026393
1.694037145650049
1.6187683284457477
1.541544477028348
1.4682306940371457
1.4027370478983383
1.3470185728250244
1.3040078201368523
1.2727272727272727
1.2541544477028348
1.2473118279569892
1.2512218963831867
1.2658846529814272
1.2883675464320623
1.313782991202346
1.3421309872922775
1.375366568914956
1.4115347018572826
1.447702834799609
1.4819159335288368
1.5141739980449658
1.541544477028348
1.564027370478983
1.581622678396872
1.5933528836754642
1.598240469208211
1.5992179863147604
1.5962854349951123
1.5894428152492668
1.5777126099706744
1.563049853372434
1.5454545454545454
1.5249266862170088
1.5034213098729228
1.478983382209189
1.452590420332356
1.4242424242424243
1.3949169110459434
1.367546432062561
1.3479960899315735
1.33822091886608
1.3401759530791788
1.3616813294232648
1.4105571847507332
1.4916911045943304
1.606060606060606
1.750733137829912
1.9188660801564028
2.101661779081134
2.2873900293255134
2.464320625610948
2.6041055718475072
2.7126099706744866
2.809384164222874
2.881720430107527
2.924731182795699
2.9374389051808407
2.9227761485826003
2.8836754643206257
2.8260019550342133
2.7517106549364616
2.665689149560117
2.570869990224829
2.469208211143695
2.3743890518084068
2.2825024437927666
2.1808406647116323
2.074291300097752
1.9657869012707725
1.858260019550342
1.75366568914956
1.653958944281525
1.560117302052786
1.4731182795698925
1.3949169110459434
1.327468230694037
1.278592375366569
1.2434017595307918
1.2150537634408602
1.195503421309873
1.1867057673509287
1.1896383186705768
1.203323558162268
1.2267839687194526
1.2570869990224829
1.29227761485826
1.3304007820136852
1.3695014662756595
1.4066471163245358
1.4389051808406648
1.466275659824047
1.4916911045943304
1.5131964809384164
1.5298142717497556
1.5405669599217986
1.5464320625610948
1.547409579667644
1.542521994134897
1.533724340175953
1.521994134897361
1.5053763440860215
1.4897360703812317
1.474095796676442
1.452590420332356
1.4291300097751711
1.4027370478983383
1.375366568914956
1.346041055718475
1.316715542521994
1.289345063538612
1.2688172043010753
1.260019550342131
1.270772238514174
1.3069403714565004
1.359726295210166
1.434017595307918
1.544477028347996
1.6871945259042034
1.8543499511241448
2.034213098729228
2.21505376344086
2.386119257086999
2.536656891495601
2.658846529814272
2.748778103616813
2.8044965786901277
2.8269794721407626
2.822091886608016
2.7966764418377323
2.750733137829912
2.6881720430107525
2.610948191593353
2.52297165200391
2.426197458455523
2.32355816226784
2.2160312805474094
2.1065493646138806
1.9960899315738023
1.8983382209188664
1.8093841642228736
1.7126099706744868
1.6148582600195502
1.5190615835777126
1.4301075268817205
1.348973607038123
1.2776148582600195
1.217008797653959
1.1671554252199414
1.130987292277615
1.1085043988269794
1.0977517106549364
1.0987292277614855
1.110459433040078
1.1300097751710656
1.1564027370478984
1.1896383186705768
1.2258064516129032
1.2639296187683284
1.303030303030303
1.3401759530791788
1.3743890518084063
1.404692082111437
1.43108504398827
1.4516129032258065
1.466275659824047
1.47702834799609
1.482893450635386
1.4838709677419355
1.479960899315738
1.4711632453567938
1.4594330400782014
1.4437927663734116
1.426197458455523
1.4066471163245358
1.3851417399804498
1.3607038123167154
1.3401759530791788
1.3206256109481915
1.295210166177908
1.267839687194526
1.2404692082111437
1.2160312805474096
1.2003910068426198
1.198435972629521
1.2189638318670577
1.2658846529814272
1.3440860215053765
1.4545454545454546
1.5718475073313782
1.6989247311827955
1.858260019550342
2.03128054740958
2.204301075268817
2.3655913978494625
2.505376344086021
2.616813294232649
2.695014662756598
2.7390029325513194
2.7517106549364616
2.735092864125122
2.6930596285435
2.638318670576735
2.5718475073313782
2.4887585532746823
2.3929618768328447
2.289345063538612
2.179863147605083
2.0664711632453567
1.9521016617790807
1.8377321603128052
1.726295210166178
1.6187683284457477
