ppg
1.0518084066471165
1.0518084066471165
1.0498533724340176
1.0478983382209188
1.0449657869012707
1.0420332355816226
1.0371456500488758
1.032258064516129
1.0283479960899315
1.024437927663734
1.0205278592375366
1.0166177908113392
1.0166177908113392
1.0195503421309873
1.0205278592375366
1.021505376344086
1.021505376344086
1.021505376344086
1.021505376344086
1.021505376344086
1.0224828934506354
1.0234604105571847
1.024437927663734
1.0254154447702837
1.0263929618768328
1.0303030303030305
1.0381231671554252
1.0518084066471165
1.075268817204301
1.1143695014662756
1.173998044965787
1.2580645161290325
1.3695014662756595
1.5063538611925709
1.664711632453568
1.8377321603128052
2.0175953079178885
2.172043010752688
2.3069403714565007
2.447702834799609
2.578690127077224
2.6911045943304006
2.782991202346041
2.854349951124145
2.9071358748778104
2.9442815249266863
2.967741935483871
2.979472140762464
2.9804496578690127
2.972629521016618
2.9550342130987293
2.929618768328446
2.898338220918866
2.860215053763441
2.8132942326490715
2.7565982404692084
2.689149560117302
2.611925708699902
2.5268817204301075
2.436950146627566
2.345063538611926
2.2531769305962857
2.1730205278592374
2.102639296187683
2.034213098729228
1.9726295210166176
1.9188660801564028
1.8748778103616808
1.8387096774193548
1.8093841642228736
1.7849462365591398
1.7644183773216031
1.7448680351906158
1.726295210166178
1.7096774193548387
1.6920821114369502
1.6705767350928642
1.64613880742913
1.619745845552297
1.5913978494623655
1.560117302052786
1.5278592375366569
1.495601173020528
1.4633431085043989
1.4320625610948192
1.401759530791789
1.3724340175953078
1.3479960899315735
1.3264907135874875
1.3020527859237536
1.2766373411534702
1.2512218963831867
1.2267839687194526
1.2043010752688172
1.1837732160312806
1.1652003910068427
1.147605083088954
1.130987292277615
1.1163245356793745
1.1065493646138806
1.099706744868035
1.0909090909090908
1.0821114369501466
1.0742913000977516
1.067448680351906
1.06158357771261
1.0557184750733135
1.0498533724340176
1.043010752688172
1.0371456500488758
1.0312805474095796
1.0263929618768328
1.021505376344086
1.0166177908113392
1.0127077223851415
1.0087976539589445
1.0048875855327468
1.0009775171065494
0.997067448680352
0.9941348973607038
0.9902248289345064
0.9872922776148584
0.9853372434017597
0.9843597262952102
0.9863147605083088
0.989247311827957
0.989247311827957
0.989247311827957
0.9882697947214076
0.9863147605083088
0.9843597262952102
0.9824046920821116
0.981427174975562
0.981427174975562
0.981427174975562
0.981427174975562
0.981427174975562
0.9833822091886608
0.9863147605083088
0.9872922776148584
0.9882697947214076
0.989247311827957
0.9921798631476052
1.0009775171065494
1.0175953079178883
1.0469208211143697
1.0948191593352885
1.1652003910068427
1.2619745845552297
1.364613880742913
1.478983382209189
1.6256109481915937
1.793743890518084
1.9716520039100685
2.1495601173020527
2.318670576735093
2.4701857282502444
2.601173020527859
2.7096774193548385
2.7947214076246336
2.860215053763441
2.9071358748778104
2.9315738025415445
2.941348973607038
2.9472140762463344
2.945259042033236
2.935483870967742
2.917888563049853
2.8914956011730206
2.857282502443793
2.814271749755621
2.760508308895406
2.697947214076246
2.625610948191593
2.5532746823069403
2.4789833822091887
2.3958944281524928
2.30791788856305
2.220918866080156
2.1378299120234603
2.0625610948191597
1.9960899315738023
1.93841642228739
1.889540566959922
1.8484848484848484
1.81524926686217
1.7888563049853372
1.7683284457478006
1.7517106549364614
1.7350928641251222
1.7174975562072337
1.6989247311827955
1.678396871945259
1.656891495601173
1.6334310850439884
1.607038123167155
1.5786901270772238
1.5483870967741935
1.517106549364614
1.490713587487781
1.466275659824047
1.439882697947214
1.412512218963832
1.3861192570869991
1.359726295210166
1.3333333333333333
1.3069403714565004
1.2825024437927663
1.2590420332355816
1.2365591397849462
1.2160312805474096
1.1974584555229717
1.18475073313783
1.1749755620723363
1.163245356793744
1.1505376344086022
1.13880742913001
1.1290322580645162
1.1202346041055715
1.1124144672531768
1.1055718475073313
1.099706744868035
1.0948191593352885
1.0899315738025417
1.0879765395894427
1.0879765395894427
1.086021505376344
1.0821114369501466
1.078201368523949
1.0742913000977516
1.0703812316715542
1.067448680351906
1.0654936461388074
1.0625610948191593
1.0606060606060606
1.0576735092864125
1.0547409579667644
1.0547409579667644
1.056695992179863
1.056695992179863
1.0557184750733135
1.053763440860215
1.0527859237536656
1.0518084066471165
1.0518084066471165
1.0527859237536656
1.0527859237536656
1.053763440860215
1.0547409579667644
1.0586510263929618
1.0635386119257086
1.067448680351906
1.0694037145650048
1.0703812316715542
1.0713587487781036
1.072336265884653
1.0733137829912025
1.0742913000977516
1.075268817204301
1.0791788856304985
1.0909090909090908
1.115347018572825
1.1485826001955035
1.195503421309873
1.2688172043010753
1.370478983382209
1.4975562072336266
1.64613880742913
1.812316715542522
1.9872922776148585
2.163245356793744
2.332355816226784
2.4887585532746823
2.625610948191593
2.7262952101661777
2.80058651026393
2.8670576735092865
2.920821114369501
2.959921798631476
2.9853372434017595
3.0
3.004887585532747
3.0009775171065494
2.988269794721408
2.967741935483871
2.93841642228739
2.8993157380254155
2.854349951124145
2.801564027370479
2.739980449657869
2.668621700879765
2.589442815249267
2.504398826979472
2.4164222873900294
2.3284457478005867
2.243401759530792
2.163245356793744
2.09188660801564
2.029325513196481
1.9794721407624636
1.93841642228739
1.902248289345064
1.870967741935484
1.8435972629521016
1.8201368523949168
1.7986314760508308
1.7781036168132942
1.7575757575757576
1.7360703812316716
1.7135874877810362
1.6881720430107527
1.664711632453568
1.6412512218963833
1.6129032258064515
1.5826001955034212
1.5503421309872922
1.5180840664711632
1.4858260019550342
1.4545454545454546
1.4242424242424243
1.3949169110459434
1.3665689149560116
1.3391984359726294
1.3128054740957966
1.2913000977517106
1.273704789833822
1.2541544477028348
1.2346041055718475
1.2160312805474096
1.1994134897360704
1.1837732160312806
1.1700879765395895
1.1583577712609971
1.1466275659824048
1.1368523949169111
1.1280547409579669
1.1221896383186705
1.1173020527859236
1.110459433040078
1.1016617790811338
1.0928641251221896
1.0850439882697946
1.078201368523949
1.0713587487781036
1.064516129032258
1.0586510263929618
1.0547409579667644
1.0518084066471165
1.0488758553274682
1.0478983382209188
1.0478983382209188
1.0449657869012707
1.0410557184750733
1.0361681329423265
1.0303030303030305
1.0254154447702837
1.021505376344086
1.018572825024438
1.0166177908113392
1.0156402737047898
1.0146627565982405
1.0166177908113392
1.018572825024438
1.018572825024438
1.0175953079178883
1.0166177908113392
1.0156402737047898
1.0146627565982405
1.018572825024438
1.0254154447702837
1.029325513196481
1.0312805474095796
1.032258064516129
1.0332355816226784
1.0361681329423265
1.0420332355816226
1.0498533724340176
1.064516129032258
1.0899315738025417
1.1329423264907137
1.1964809384164223
1.284457478005865
1.3988269794721409
1.5366568914956011
1.6950146627565983
1.866080156402737
2.016617790811339
2.15347018572825
2.3010752688172045
2.443792766373412
2.5718475073313782
2.6803519061583576
2.7673509286412514
2.834799608993157
2.884652981427175
2.919843597262952
2.940371456500489
2.948191593352884
2.9472140762463344
2.935483870967742
2.9159335288367547
2.89247311827957
2.86217008797654
2.8240469208211145
2.777126099706745
2.720430107526881
2.654936461388074
2.5806451612903225
2.4995112414467253
2.4144672531769307
2.326490713587488
2.2482893450635384
2.175953079178885
2.102639296187683
2.034213098729228
1.9716520039100685
1.9178885630498532
1.8729227761485825
1.836754643206256
1.8074291300097751
1.7839687194525904
1.7634408602150538
1.7438905180840665
1.7243401759530792
1.7067448680351909
1.689149560117302
1.6686217008797657
1.6451612903225807
1.619745845552297
1.5923753665689149
1.564027370478983
1.5347018572825024
1.5034213098729228
1.4721407624633431
1.439882697947214
1.4086021505376345
1.3822091886608017
1.359726295210166
1.335288367546432
1.310850439882698
1.2864125122189638
1.262952101661779
1.241446725317693
1.2218963831867058
1.203323558162268
1.1857282502443791
1.1691104594330402
1.1544477028347997
1.1407624633431086
1.1319648093841643
1.1270772238514175
1.121212121212121
1.1143695014662756
1.1065493646138806
1.0977517106549364
1.0899315738025417
1.083088954056696
1.0772238514173995
1.0713587487781036
1.0654936461388074
1.0596285434995112
1.056695992179863
1.0547409579667644
1.050830889540567
1.0469208211143697
1.043010752688172
1.040078201368524
1.0371456500488758
1.0342130987292275
1.032258064516129
1.0303030303030305
1.0283479960899315
1.0273704789833822
1.0263929618768328
1.0273704789833822
1.0303030303030305
1.0312805474095796
1.032258064516129
1.032258064516129
1.032258064516129
1.032258064516129
1.0312805474095796
1.0303030303030305
1.0303030303030305
1.0303030303030305
1.0312805474095796
1.0342130987292275
1.0381231671554252
1.0391006842619743
1.0391006842619743
1.0381231671554252
1.0371456500488758
1.0391006842619743
1.0469208211143697
1.064516129032258
1.0977517106549364
1.1515151515151516
1.2297165200391007
1.335288367546432
1.4437927663734116
1.5610948191593352
1.70772238514174
1.871945259042033
2.042033235581622
2.209188660801564
2.366568914956012
2.506353861192571
2.6265884652981426
2.724340175953079
2.801564027370479
2.859237536656892
2.89247311827957
2.90811339198436
2.918866080156403
2.9227761485826003
2.917888563049853
2.905180840664712
2.8836754643206257
2.8533724340175954
2.814271749755621
2.766373411534702
2.7096774193548385
2.644183773216031
2.5777126099706744
2.5083088954056696
2.4301075268817205
2.347018572825025
2.26197458455523
2.179863147605083
2.102639296187683
2.032258064516129
1.9696969696969695
1.9149560117302051
1.8699902248289344
1.833822091886608
1.8035190615835777
1.780058651026393
1.761485826001955
1.7438905180840665
1.726295210166178
1.70772238514174
1.6881720430107527
1.6666666666666667
1.6422287390029326
1.616813294232649
1.590420332355816
1.5620723362658846
1.5327468230694037
1.5063538611925709
1.482893450635386
1.456500488758553
1.4291300097751711
1.4027370478983383
1.375366568914956
1.348973607038123
1.3235581622678396
1.300097751710655
1.278592375366569
1.2580645161290325
1.238514173998045
1.2209188660801564
1.2072336265884651
1.1974584555229717
1.1857282502443791
1.1730205278592376
1.1612903225806452
1.1515151515151516
1.142717497556207
1.1348973607038124
1.1270772238514175
1.1202346041055715
1.1133919843597262
1.10752688172043
1.1036168132942326
1.1006842619745845
1.0957966764418376
1.0918866080156402
1.0879765395894427
1.0850439882697946
1.0821114369501466
1.0791788856304985
1.0772238514173995
1.075268817204301
1.0733137829912025
1.0713587487781036
1.0694037145650048
1.0694037145650048
1.0713587487781036
1.0713587487781036
1.0703812316715542
1.0684261974584557
1.0664711632453567
1.064516129032258
1.0625610948191593
1.0606060606060606
1.0586510263929618
1.0576735092864125
1.056695992179863
1.0586510263929618
1.0625610948191593
1.0654936461388074
1.0684261974584557
1.0703812316715542
1.072336265884653
1.0742913000977516
1.0762463343108504
1.078201368523949
1.0791788856304985
1.0801564027370478
1.083088954056696
1.0918866080156402
1.1065493646138806
1.1319648093841643
1.1730205278592376
1.2355816226783969
1.3235581622678396
1.4379276637341154
1.5757575757575757
1.732160312805474
1.9012707722385145
2.0733137829912023
2.241446725317693
2.398826979472141
2.5219941348973607
2.6285434995112413
2.7370478983382207
2.825024437927664
2.89345063538612
2.9423264907135875
2.975562072336266
2.994134897360704
3.0019550342130987
3.0
2.9902248289345064
2.970674486803519
2.943304007820137
2.90811339198436
2.866080156402737
2.8152492668621703
2.755620723362659
2.6852394916911044
2.606060606060606
2.5210166177908118
2.4330400782013686
2.345063538611926
2.2580645161290325
2.176930596285435
2.103616813294233
2.0439882697947214
1.9951124144672527
1.951124144672532
1.9130009775171064
1.881720430107527
1.8563049853372435
1.8347996089931573
1.81524926686217
1.7956989247311828
1.7761485826001957
1.7556207233626588
1.732160312805474
1.7067448680351909
1.6823069403714566
1.6598240469208212
1.6334310850439884
1.6050830889540566
1.5757575757575757
1.544477028347996
1.5131964809384164
1.4819159335288368
1.4516129032258065
1.4213098729227762
1.392961876832845
1.364613880742913
1.3421309872922775
1.3235581622678396
1.303030303030303
1.2834799608993157
1.2658846529814272
1.249266862170088
1.2326490713587488
1.217008797653959
1.2023460410557183
1.1886608015640274
1.1749755620723363
1.1622678396871946
1.1505376344086022
1.142717497556207
1.1378299120234605
1.130987292277615
1.1241446725317692
1.1163245356793745
1.1085043988269794
1.1016617790811338
1.0957966764418376
1.0899315738025417
1.0840664711632453
1.0791788856304985
1.075268817204301
1.0733137829912025
1.072336265884653
1.0684261974584557
1.0635386119257086
1.0586510263929618
1.053763440860215
1.050830889540567
1.0478983382209188
1.04594330400782
1.043010752688172
1.040078201368524
1.0361681329423265
1.0312805474095796
1.0283479960899315
1.0273704789833822
1.0254154447702837
1.0224828934506354
1.0195503421309873
1.0175953079178883
1.0156402737047898
1.013685239491691
1.0117302052785924
1.010752688172043
1.010752688172043
1.010752688172043
1.0127077223851415
1.0146627565982405
1.0166177908113392
1.021505376344086
1.0332355816226784
1.0576735092864125
1.1006842619745845
1.1671554252199414
1.260019550342131
1.3792766373411536
1.52297165200391
1.686217008797654
1.86119257086999
2.01564027370479
2.155425219941349
2.3069403714565007
2.452590420332356
2.582600195503421
2.6930596285435
2.782991202346041
2.8514173998044967
2.9012707722385143
2.935483870967742
2.9579667644183774
2.9687194525904204
2.9667644183773216
2.9550342130987293
2.9393939393939394
2.916911045943304
2.887585532746823
2.850439882697948
2.803519061583578
2.745845552297165
2.678396871945259
2.601173020527859
2.517106549364614
2.4281524926686218
2.345063538611926
2.2668621700879767
2.1847507331378297
2.104594330400782
2.03128054740958
1.9657869012707725
1.9100684261974583
1.8641251221896384
1.826001955034213
1.7947214076246334
1.76930596285435
1.7487781036168133
1.7282502443792769
1.710654936461388
1.694037145650049
1.672531769305963
1.6480938416422288
1.6217008797653958
1.5943304007820136
1.5650048875855327
1.5356793743890518
1.5053763440860215
1.4750733137829912
1.4437927663734116
1.412512218963832
1.3870967741935485
1.3636363636363635
1.33822091886608
1.3118279569892473
1.2864125122189638
1.2609970674486803
1.2365591397849462
1.2130987292277615
1.1896383186705768
1.1681329423264908
1.1495601173020529
1.1319648093841643
1.115347018572825
1.1036168132942326
1.0948191593352885
1.0850439882697946
1.075268817204301
1.0664711632453567
1.0586510263929618
1.0518084066471165
1.04594330400782
1.040078201368524
1.0342130987292275
1.0273704789833822
1.021505376344086
1.018572825024438
1.0166177908113392
1.013685239491691
1.0097751710654936
1.0058651026392962
1.0019550342130987
0.9990224828934506
0.9960899315738024
0.9931573802541545
0.9921798631476052
0.9912023460410556
0.9902248289345064
0.9882697947214076
0.989247311827957
0.9912023460410556
0.9902248289345064
0.9872922776148584
0.9853372434017597
0.9843597262952102
0.9833822091886608
0.9833822091886608
0.9833822091886608
0.9833822091886608
0.9833822091886608
0.9843597262952102
0.9882697947214076
0.9931573802541545
0.9960899315738024
0.9980449657869012
0.9990224828934506
1.0
1.0009775171065494
1.002932551319648
1.0068426197458455
1.0175953079178883
1.040078201368524
1.0791788856304985
1.141739980449658
1.2140762463343109
1.3020527859237536
1.423264907135875
1.5728250244379276
1.7419354838709675
1.920821114369501
2.101661779081134
2.2766373411534704
2.436950146627566
2.579667644183773
2.699902248289345
2.7976539589442817
2.863147605083089
2.905180840664712
2.941348973607038
2.967741935483871
2.983382209188661
2.989247311827957
2.98435972629521
2.9716520039100685
2.9501466275659824
2.920821114369501
2.881720430107527
2.832844574780059
2.774193548387097
2.7126099706744866
2.64613880742913
2.56891495601173
2.4838709677419355
2.393939393939394
2.303030303030303
2.2130987292277613
2.129032258064516
2.053763440860215
1.989247311827957
1.9345063538611929
1.8905180840664717
1.8563049853372435
1.83088954056696
1.8084066471163245
1.7888563049853372
1.7712609970674489
1.7546432062561097
1.7350928641251222
1.7135874877810362
1.6901270772238517
1.664711632453568
1.6373411534701858
1.608993157380254
1.5786901270772238
1.5513196480938416
1.525904203323558
1.4975562072336266
1.4672531769305963
1.435972629521017
1.404692082111437
1.375366568914956
1.3470185728250244
1.3186705767350928
1.2913000977517106
1.2658846529814272
1.2424242424242424
1.224828934506354
1.2111436950146628
1.195503421309873
1.1788856304985338
1.163245356793744
1.1495601173020529
1.1368523949169111
1.1251221896383188
1.1133919843597262
1.1036168132942326
1.0948191593352885
1.0879765395894427
1.0811339198435972
1.078201368523949
1.078201368523949
1.0772238514173995
1.0762463343108504
1.0742913000977516
1.0713587487781036
1.067448680351906
1.0625610948191593
1.056695992179863
1.050830889540567
1.04594330400782
1.043010752688172
1.043010752688172
1.0439882697947214
1.0439882697947214
1.043010752688172
1.0410557184750733
1.0391006842619743
1.0371456500488758
1.0361681329423265
1.035190615835777
1.035190615835777
1.035190615835777
1.035190615835777
1.0342130987292275
1.035190615835777
1.0381231671554252
1.040078201368524
1.0420332355816226
1.0439882697947214
1.04594330400782
1.0478983382209188
1.0488758553274682
1.0488758553274682
1.0488758553274682
1.0488758553274682
1.0518084066471165
1.0606060606060606
1.0762463343108504
1.1026392961876832
1.147605083088954
1.2140762463343109
1.3069403714565004
1.4271749755620724
1.5708699902248289
1.7331378299120237
1.90811339198436
2.0869990224828934
2.26197458455523
2.404692082111437
2.5219941348973607
2.6392961876832843
2.7438905180840663
2.8299120234604107
2.8963831867057674
2.9442815249266863
2.975562072336266
2.9931573802541545
2.99902248289345
2.995112414467253
2.9824046920821115
2.961876832844575
2.9335288367546437
2.898338220918866
2.857282502443793
2.8084066471163247
2.7497556207233624
2.6803519061583576
2.6021505376344085
2.5180840664711632
2.43108504398827
2.343108504398827
2.2580645161290325
2.177908113391984
2.1114369501466275
2.0547409579667644
2.0009775171065494
1.95405669599218
1.9130009775171064
1.8797653958944285
1.8533724340175952
1.8318670576735088
1.8132942326490715
1.7956989247311828
1.7790811339198436
1.761485826001955
1.7419354838709675
1.7223851417399805
1.7028347996089932
1.6793743890518085
1.6529814271749756
1.624633431085044
1.5943304007820136
1.563049853372434
1.5317693059628543
1.501466275659824
1.4711632453567938
1.4408602150537635
1.4115347018572826
1.388074291300098
1.367546432062561
1.346041055718475
1.324535679374389
1.303030303030303
1.2834799608993157
1.2658846529814272
1.249266862170088
1.2336265884652982
1.219941348973607
1.206256109481916
1.1935483870967742
1.1827956989247312
1.1749755620723363
1.1691104594330402
1.1622678396871946
1.155425219941349
1.1495601173020529
1.144672531769306
1.1397849462365592
1.133919843597263
1.1280547409579669
1.1221896383186705
1.1173020527859236
1.1133919843597262
1.1114369501466277
1.1114369501466277
1.1085043988269794
1.1036168132942326
1.0977517106549364
1.0928641251221896
1.0879765395894427
1.0840664711632453
1.0811339198435972
1.0791788856304985
1.0772238514173995
1.0742913000977516
1.0713587487781036
1.0713587487781036
1.0713587487781036
1.0694037145650048
1.067448680351906
1.0654936461388074
1.0635386119257086
1.0635386119257086
1.064516129032258
1.0654936461388074
1.067448680351906
1.0684261974584557
1.067448680351906
1.0684261974584557
1.0703812316715542
1.072336265884653
1.0772238514173995
1.088954056695992
1.1124144672531768
1.1544477028347997
1.2179863147605083
1.3088954056695992
1.426197458455523
1.5679374389051808
1.7302052785923754
1.906158357771261
2.060606060606061
2.20039100684262
2.350928641251222
2.4946236559139785
2.6236559139784945
2.7331378299120237
2.822091886608016
2.8905180840664717
2.941348973607038
2.9775171065493646
3.0009775171065494
3.013685239491691
3.0127077223851417
3.0009775171065494
2.986314760508309
2.9657869012707723
2.93841642228739
2.902248289345064
2.857282502443793
2.8025415444770285
2.73802541544477
2.6637341153470184
2.582600195503421
2.4946236559139785
2.4027370478983383
2.3196480938416424
2.242424242424242
2.164222873900293
2.089931573802541
2.0234604105571847
1.964809384164223
1.913978494623656
1.8729227761485825
1.839687194525904
1.812316715542522
1.7878787878787878
1.7663734115347018
1.747800586510264
1.729227761485826
1.7086999022482894
1.686217008797654
1.6627565982404693
1.6363636363636365
1.6080156402737047
1.5786901270772238
1.547409579667644
1.5161290322580645
1.4838709677419355
1.4506353861192571
1.4173998044965788
1.3900293255131966
1.3587487781036167
1.321603128054741
1.2903225806451613
1.2619745845552297
1.2355816226783969
1.2121212121212122
1.1915933528836755
1.1730205278592376
1.155425219941349
1.1397849462365592
1.1251221896383188
1.115347018572825
1.10752688172043
1.0977517106549364
1.0869990224828934
1.075268817204301
1.0654936461388074
1.0576735092864125
1.0498533724340176
1.043010752688172
1.0371456500488758
1.0312805474095796
1.0254154447702837
1.0195503421309873
1.0166177908113392
1.0156402737047898
1.013685239491691
1.010752688172043
1.0058651026392962
1.0009775171065494
0.997067448680352
0.9931573802541545
0.989247311827957
0.9863147605083088
0.9843597262952102
0.9824046920821116
0.9833822091886608
0.9853372434017597
0.9853372434017597
0.9833822091886608
0.981427174975562
0.9794721407624634
0.978494623655914
0.9775171065493646
0.9775171065493646
0.9775171065493646
0.9775171065493646
0.9775171065493646
0.978494623655914
0.981427174975562
0.9872922776148584
0.9912023460410556
0.9931573802541545
0.9951124144672532
0.9960899315738024
0.9980449657869012
1.0039100684261977
1.018572825024438
1.0478983382209188
1.0957966764418376
1.1681329423264908
1.249266862170088
1.3450635386119256
1.474095796676442
1.6275659824046922
1.7976539589442817
1.9745845552297163
2.150537634408602
2.317693059628544
2.469208211143695
2.60019550342131
2.708699902248289
2.793743890518084
2.8484848484848486
2.8807429130009776
2.906158357771261
2.9227761485826003
2.929618768328446
2.929618768328446
2.9227761485826003
2.909090909090909
2.887585532746823
2.857282502443793
2.8181818181818183
2.76930596285435
2.708699902248289
2.6451612903225805
2.576735092864125
2.4975562072336266
2.410557184750733
2.320625610948192
2.23069403714565
2.1436950146627565
2.0635386119257086
1.992179863147605
1.9305962854349952
1.878787878787879
1.835777126099707
1.8025415444770283
1.7761485826001957
1.7517106549364614
1.7302052785923754
1.7086999022482894
1.686217008797654
1.6637341153470186
1.6412512218963833
1.6187683284457477
1.5943304007820136
1.56891495601173
1.541544477028348
1.5131964809384164
1.487781036168133
1.4623655913978495
1.4330400782013686
