ppg
1.951124144672532
1.9090909090909087
1.8748778103616808
1.844574780058651
1.812316715542522
1.780058651026393
1.7487781036168133
1.718475073313783
1.6871945259042034
1.6559139784946235
1.6265884652981428
1.5972629521016617
1.5679374389051808
1.5395894428152492
1.512218963831867
1.4897360703812317
1.469208211143695
1.4457478005865103
1.4213098729227762
1.3958944281524928
1.370478983382209
1.3450635386119256
1.3206256109481915
1.2961876832844574
1.2727272727272727
1.2512218963831867
1.23069403714565
1.2150537634408602
1.2023460410557183
1.1867057673509287
1.1710654936461389
1.1564027370478984
1.142717497556207
1.1300097751710656
1.118279569892473
1.1065493646138806
1.0948191593352885
1.083088954056696
1.0733137829912025
1.064516129032258
1.06158357771261
1.06158357771261
1.0576735092864125
1.0518084066471165
1.0439882697947214
1.0332355816226784
1.021505376344086
1.013685239491691
1.013685239491691
1.0273704789833822
1.0635386119257086
1.1290322580645162
1.2101661779081134
1.310850439882698
1.4467253176930597
1.607038123167155
1.780058651026393
1.9560117302052784
2.124144672531769
2.278592375366569
2.4164222873900294
2.535679374389052
2.6373411534701856
2.724340175953079
2.7976539589442817
2.8484848484848486
2.884652981427175
2.919843597262952
2.949169110459433
2.972629521016618
2.988269794721408
2.9980449657869013
3.002932551319648
3.002932551319648
2.997067448680352
2.986314760508309
2.9696969696969697
2.9472140762463344
2.918866080156403
2.884652981427175
2.8426197458455524
2.793743890518084
2.73802541544477
2.67644183773216
2.6099706744868034
2.5376344086021505
2.4613880742913
2.383186705767351
2.304985337243402
2.228739002932551
2.163245356793744
2.1055718475073317
2.047898338220919
1.9931573802541545
1.943304007820137
1.8983382209188664
1.858260019550342
1.8211143695014664
1.7869012707722385
1.75366568914956
1.7223851417399805
1.6920821114369502
1.6666666666666667
1.6441837732160314
1.6187683284457477
1.5913978494623655
1.564027370478983
1.5366568914956011
1.509286412512219
1.4819159335288368
1.4535679374389052
1.426197458455523
1.3998044965786902
1.3743890518084063
1.3499511241446724
1.3304007820136852
1.3147605083088951
1.2961876832844574
1.2776148582600195
1.2580645161290325
1.238514173998045
1.2179863147605083
1.1974584555229717
1.1779081133919844
1.1593352883675463
1.141739980449658
1.1251221896383188
1.1143695014662756
1.1065493646138806
1.0957966764418376
1.0850439882697946
1.075268817204301
1.0664711632453567
1.0576735092864125
1.0488758553274682
1.040078201368524
1.0312805474095796
1.0234604105571847
1.0156402737047898
1.0068426197458455
1.002932551319648
1.0009775171065494
0.9951124144672532
0.989247311827957
0.9853372434017597
0.9902248289345064
1.0117302052785924
1.0576735092864125
1.133919843597263
1.2424242424242424
1.3812316715542523
1.541544477028348
1.6911045943304008
1.8347996089931573
1.994134897360704
2.1515151515151514
2.2991202346041058
2.43108504398827
2.5454545454545454
2.6422287390029324
2.724340175953079
2.791788856304985
2.84652981427175
2.8914956011730206
2.9266862170087977
2.948191593352884
2.959921798631476
2.970674486803519
2.9775171065493646
2.979472140762464
2.975562072336266
2.9657869012707723
2.949169110459433
2.9266862170087977
2.898338220918866
2.8641251221896384
2.822091886608016
2.7781036168132944
2.729227761485826
2.670576735092864
2.6041055718475072
2.532746823069404
2.4574780058651027
2.3792766373411536
2.302052785923754
2.228739002932551
2.1593352883675463
2.0928641251221896
2.03128054740958
1.9804496578690127
1.93841642228739
1.8973607038123168
1.8592375366568916
1.823069403714565
1.790811339198436
1.7605083088954057
1.7302052785923754
1.699902248289345
1.6705767350928642
1.6412512218963833
1.6129032258064515
1.5835777126099706
1.5581622678396871
1.5347018572825024
1.509286412512219
1.4819159335288368
1.455522971652004
1.4301075268817205
1.4056695992179864
1.3812316715542523
1.3577712609970674
1.335288367546432
1.3128054740957966
1.2913000977517106
1.273704789833822
1.2590420332355816
1.241446725317693
1.2228739002932552
1.203323558162268
1.1837732160312806
1.1652003910068427
1.1485826001955035
1.1348973607038124
1.121212121212121
1.1114369501466277
1.104594330400782
1.0957966764418376
1.0909090909090908
1.0869990224828934
1.0811339198435972
1.0742913000977516
1.0664711632453567
1.0586510263929618
1.050830889540567
1.0439882697947214
1.0381231671554252
1.032258064516129
1.0263929618768328
1.0195503421309873
1.0166177908113392
1.013685239491691
1.0087976539589445
1.0039100684261977
1.002932551319648
1.0127077223851415
1.0420332355816226
1.096774193548387
1.1808406647116323
1.2961876832844574
1.4379276637341154
1.5992179863147604
1.76930596285435
1.9178885630498532
2.050830889540567
2.189638318670577
2.321603128054741
2.4408602150537635
2.5454545454545454
2.635386119257087
2.7116324535679373
2.7751710654936463
2.825024437927664
2.8641251221896384
2.895405669599218
2.913000977517106
2.921798631476051
2.929618768328446
2.9335288367546437
2.932551319648094
2.9266862170087977
2.913978494623656
2.895405669599218
2.8699902248289346
2.838709677419355
2.8025415444770285
2.7595307917888565
2.708699902248289
2.656891495601173
2.6021505376344085
2.5386119257087
2.469208211143695
2.396871945259042
2.3225806451612905
2.2502443792766376
2.1808406647116323
2.115347018572825
2.0547409579667644
1.9990224828934504
1.949169110459433
1.9100684261974583
1.8778103616813293
1.8455522971652003
1.8142717497556209
1.7859237536656891
1.7575757575757576
1.7282502443792769
1.6989247311827955
1.6705767350928642
1.643206256109482
1.616813294232649
1.590420332355816
1.5650048875855327
1.5454545454545454
1.5278592375366569
1.5053763440860215
1.479960899315738
1.4535679374389052
1.4281524926686218
1.4027370478983383
1.3773216031280548
1.35386119257087
1.3304007820136852
1.3069403714565004
1.2854349951124144
1.2697947214076246
1.2570869990224829
1.241446725317693
1.224828934506354
1.209188660801564
1.1935483870967742
1.1788856304985338
1.1652003910068427
1.1505376344086022
1.1358748778103618
1.1221896383186705
1.1094819159335287
1.0977517106549364
1.0918866080156402
1.0879765395894427
1.0821114369501466
1.0742913000977516
1.0664711632453567
1.0586510263929618
1.050830889540567
1.0439882697947214
1.0381231671554252
1.0312805474095796
1.0234604105571847
1.0156402737047898
1.010752688172043
1.007820136852395
1.002932551319648
1.0019550342130987
1.0117302052785924
1.0391006842619743
1.0918866080156402
1.1730205278592376
1.284457478005865
1.423264907135875
1.5826001955034212
1.7526881720430108
1.9237536656891496
2.0664711632453567
2.189638318670577
2.314760508308896
2.4301075268817205
2.530791788856305
2.618768328445748
2.6940371456500487
2.7565982404692084
2.8084066471163247
2.850439882697948
2.8836754643206257
2.90811339198436
2.920821114369501
2.9257086999022484
2.9286412512218964
2.927663734115347
2.920821114369501
2.909090909090909
2.8914956011730206
2.8670576735092865
2.835777126099707
2.798631476050831
2.7536656891495603
2.701857282502444
2.643206256109482
2.58455522971652
2.5239491691104594
2.4545454545454546
2.380254154447703
2.304985337243402
2.23069403714565
2.1593352883675463
2.0928641251221896
2.03128054740958
1.9765395894428155
1.9286412512218964
1.8885630498533723
1.858260019550342
1.8318670576735088
1.8054740957966764
1.780058651026393
1.7546432062561097
1.729227761485826
1.7028347996089932
1.675464320625611
1.6480938416422288
1.6217008797653958
1.595307917888563
1.5698924731182795
1.544477028347996
1.52297165200391
1.5034213098729228
1.4809384164222874
1.457478005865103
1.4349951124144673
1.4115347018572826
1.3870967741935485
1.3636363636363635
1.3421309872922775
1.3206256109481915
1.2991202346041055
1.2795698924731185
1.2668621700879763
1.2561094819159335
1.241446725317693
1.224828934506354
1.2072336265884651
1.1915933528836755
1.1779081133919844
1.166177908113392
1.1544477028347997
1.142717497556207
1.1319648093841643
1.121212121212121
1.1143695014662756
1.110459433040078
1.104594330400782
1.0977517106549364
1.0918866080156402
1.0879765395894427
1.0840664711632453
1.0801564027370478
1.075268817204301
1.0684261974584557
1.06158357771261
1.0576735092864125
1.0606060606060606
1.072336265884653
1.0977517106549364
1.1466275659824048
1.2228739002932552
1.3313782991202343
1.4682306940371457
1.6265884652981428
1.796676441837732
1.9687194525904204
2.134897360703812
2.289345063538612
2.4281524926686218
2.535679374389052
2.621700879765396
2.70772238514174
2.7869012707722387
2.855327468230694
2.913000977517106
2.960899315738025
2.9980449657869013
3.026392961876833
3.047898338220919
3.06158357771261
3.069403714565005
3.071358748778104
3.064516129032258
3.0498533724340176
3.0332355816226784
3.0127077223851417
2.986314760508309
2.9530791788856305
2.913978494623656
2.868035190615836
2.8152492668621703
2.7565982404692084
2.6901270772238512
2.616813294232649
2.5464320625610948
2.4780058651026398
2.4056695992179864
2.3313782991202348
2.2482893450635384
2.164222873900293
2.0948191593352883
2.035190615835777
1.9833822091886608
1.93841642228739
1.8993157380254155
1.866080156402737
1.8347996089931573
1.8084066471163245
1.7849462365591398
1.7595307917888563
1.7311827956989247
1.7028347996089932
1.675464320625611
1.6480938416422288
1.6207233626588464
1.595307917888563
1.5698924731182795
1.5454545454545454
1.521016617790811
1.500488758553275
1.4809384164222874
1.4594330400782014
1.436950146627566
1.4134897360703813
1.3890518084066472
1.3655913978494625
1.343108504398827
1.3206256109481915
1.2981427174975562
1.2776148582600195
1.2580645161290325
1.2404692082111437
1.2287390029325511
1.2189638318670577
1.206256109481916
1.1925708699902249
1.1798631476050832
1.1681329423264908
1.1564027370478984
1.1456500488758554
1.1348973607038124
1.1241446725317692
1.115347018572825
1.1065493646138806
1.1016617790811338
1.1006842619745845
1.096774193548387
1.0899315738025417
1.083088954056696
1.075268817204301
1.067448680351906
1.0625610948191593
1.064516129032258
1.0821114369501466
1.1221896383186705
1.1906158357771262
1.2903225806451613
1.3978494623655917
1.5180840664711632
1.667644183773216
1.8328445747800584
2.0009775171065494
2.161290322580645
2.3088954056695994
2.4408602150537635
2.5562072336265884
2.654936461388074
2.7390029325513194
2.811339198435973
2.863147605083089
2.8993157380254155
2.9345063538611926
2.9657869012707723
2.992179863147605
3.0127077223851417
3.0254154447702835
3.03128054740958
3.032258064516129
3.0283479960899315
3.018572825024438
3.0019550342130987
2.978494623655914
2.9501466275659824
2.916911045943304
2.877810361681329
2.832844574780059
2.780058651026393
2.720430107526881
2.6529814271749754
2.581622678396872
2.506353861192571
2.4301075268817205
2.3548387096774195
2.283479960899316
2.222873900293255
2.16911045943304
2.114369501466276
2.0635386119257086
2.016617790811339
1.9726295210166176
1.9335288367546437
1.8973607038123168
1.8641251221896384
1.8328445747800584
1.8025415444770283
1.772238514173998
1.7409579667644184
1.7145650048875856
1.6901270772238517
1.6627565982404693
1.6344086021505375
1.607038123167155
1.581622678396872
1.555229716520039
1.5278592375366569
1.501466275659824
1.4750733137829912
1.4486803519061584
1.423264907135875
1.4027370478983383
1.3851417399804498
1.3655913978494625
1.3450635386119256
1.324535679374389
1.303030303030303
1.2825024437927663
1.262952101661779
1.2443792766373412
1.2258064516129032
1.2082111436950147
1.1925708699902249
1.1779081133919844
1.1681329423264908
1.1622678396871946
1.1534701857282503
1.1436950146627567
1.133919843597263
1.1241446725317692
1.1143695014662756
1.1036168132942326
1.0948191593352885
1.0879765395894427
1.0811339198435972
1.075268817204301
1.072336265884653
1.0713587487781036
1.0664711632453567
1.0596285434995112
1.0527859237536656
1.04594330400782
1.0420332355816226
1.0478983382209188
1.0694037145650048
1.115347018572825
1.1906158357771262
1.295210166177908
1.4281524926686218
1.5610948191593352
1.6959921798631477
1.8533724340175952
2.0175953079178885
2.176930596285435
2.32355816226784
2.4545454545454546
2.5698924731182795
2.6695992179863146
2.7546432062561097
2.827956989247312
2.8885630498533725
2.927663734115347
2.95405669599218
2.978494623655914
2.99902248289345
3.013685239491691
3.022482893450636
3.0254154447702835
3.022482893450636
3.013685239491691
2.99902248289345
2.978494623655914
2.951124144672532
2.918866080156403
2.881720430107527
2.8377321603128056
2.7859237536656893
2.7262952101661777
2.6608015640273703
2.590420332355816
2.517106549364614
2.442815249266862
2.3704789833822093
2.300097751710655
2.231671554252199
2.166177908113392
2.1114369501466275
2.064516129032258
2.0175953079178885
1.9745845552297163
1.935483870967742
1.8993157380254155
1.866080156402737
1.8347996089931573
1.804496578690127
1.775171065493646
1.7468230694037146
1.7194525904203324
1.6959921798631477
1.6744868035190617
1.6500488758553276
1.624633431085044
1.5972629521016617
1.56891495601173
1.5405669599217986
1.512218963831867
1.4848484848484849
1.458455522971652
1.4330400782013686
1.409579667644184
1.3861192570869991
1.3665689149560116
1.3499511241446724
1.3313782991202343
1.3118279569892473
1.2913000977517106
1.2727272727272727
1.2551319648093842
1.2365591397849462
1.2189638318670577
1.2003910068426198
1.1827956989247312
1.166177908113392
1.155425219941349
1.1485826001955035
1.1397849462365592
1.1300097751710656
1.1202346041055715
1.1094819159335287
1.099706744868035
1.0899315738025417
1.0811339198435972
1.0733137829912025
1.064516129032258
1.056695992179863
1.050830889540567
1.0498533724340176
1.0518084066471165
1.050830889540567
1.0469208211143697
1.0410557184750733
1.0332355816226784
1.0234604105571847
1.0146627565982405
1.010752688172043
1.0175953079178883
1.0420332355816226
1.0918866080156402
1.1573802541544478
1.2443792766373412
1.3655913978494625
1.5131964809384164
1.675464320625611
1.842619745845552
2.007820136852395
2.163245356793744
2.304985337243402
2.4301075268817205
2.5376344086021505
2.6285434995112413
2.7067448680351904
2.764418377321604
2.806451612903226
2.8475073313782997
2.8826979472140764
2.9120234604105573
2.9345063538611926
2.951124144672532
2.960899315738025
2.962854349951124
2.9589442815249267
2.949169110459433
2.932551319648094
2.909090909090909
2.8807429130009776
2.84652981427175
2.806451612903226
2.7595307917888565
2.7067448680351904
2.6480938416422286
2.58455522971652
2.517106549364614
2.44672531769306
2.3743890518084068
2.304007820136853
2.2355816226783967
2.175953079178885
2.1221896383186705
2.069403714565005
2.018572825024438
1.9716520039100685
1.9305962854349952
1.8934506353861196
1.8602150537634408
1.828934506353861
1.7986314760508308
1.7702834799608993
1.7419354838709675
1.7165200391006843
1.694037145650049
1.6695992179863148
1.6441837732160314
1.6187683284457477
1.5933528836754642
1.5669599217986314
1.5405669599217986
1.5131964809384164
1.4868035190615836
1.4594330400782014
1.4330400782013686
1.4086021505376345
1.3900293255131966
1.3734115347018572
1.35386119257087
1.3333333333333333
1.313782991202346
1.2942326490713587
1.2756598240469208
1.2580645161290325
1.241446725317693
1.224828934506354
1.209188660801564
1.1935483870967742
1.1827956989247312
1.1749755620723363
1.164222873900293
1.152492668621701
1.1407624633431086
1.1300097751710656
1.1173020527859236
1.104594330400782
1.0918866080156402
1.0801564027370478
1.0703812316715542
1.06158357771261
1.053763440860215
1.0498533724340176
1.0478983382209188
1.0449657869012707
1.0420332355816226
1.0371456500488758
1.032258064516129
1.0254154447702837
1.0175953079178883
1.010752688172043
1.0039100684261977
0.9980449657869012
0.997067448680352
1.0048875855327468
1.0254154447702837
1.0664711632453567
1.133919843597263
1.23069403714565
1.3558162267839686
1.5053763440860215
1.6705767350928642
1.8406647116324533
2.007820136852395
2.1652003910068425
2.3069403714565007
2.432062561094819
2.5268817204301075
2.60019550342131
2.6715542521994133
2.736070381231672
2.792766373411535
2.8396871945259043
2.87683284457478
2.906158357771261
2.9266862170087977
2.940371456500489
2.9472140762463344
2.948191593352884
2.940371456500489
2.9266862170087977
2.911045943304008
2.8905180840664717
2.865102639296188
2.832844574780059
2.793743890518084
2.747800586510264
2.6940371456500487
2.635386119257087
2.570869990224829
2.5024437927663734
2.4389051808406648
2.376344086021505
2.3098729227761488
2.244379276637341
2.179863147605083
2.1192570869990224
2.064516129032258
2.01564027370479
1.9726295210166176
1.9345063538611929
1.900293255131965
1.869012707722385
1.8387096774193548
1.812316715542522
1.7888563049853372
1.7624633431085044
1.7350928641251222
1.70772238514174
1.6803519061583578
1.6529814271749756
1.6256109481915937
1.5992179863147604
1.573802541544477
1.547409579667644
1.520039100684262
1.4975562072336266
1.479960899315738
1.4594330400782014
1.436950146627566
1.4164222873900294
1.396871945259042
1.3763440860215057
1.3548387096774193
1.3343108504398826
1.3147605083088951
1.295210166177908
1.2766373411534702
1.2590420332355816
1.24633431085044
1.2365591397849462
1.2228739002932552
1.2072336265884651
1.1915933528836755
1.1779081133919844
1.166177908113392
1.1544477028347997
1.1436950146627567
1.1329423264907137
1.1221896383186705
1.1114369501466277
1.104594330400782
1.1006842619745845
1.0948191593352885
1.0879765395894427
1.0821114369501466
1.078201368523949
1.075268817204301
1.072336265884653
1.0694037145650048
1.0664711632453567
1.0625610948191593
1.056695992179863
1.0518084066471165
1.0527859237536656
1.0635386119257086
1.086021505376344
1.1290322580645162
1.2003910068426198
1.303030303030303
1.4349951124144673
1.5894428152492668
1.7575757575757576
1.9305962854349952
2.0987292277614857
2.2561094819159337
2.380254154447703
2.4819159335288368
2.581622678396872
2.674486803519061
2.7565982404692084
2.827956989247312
2.8885630498533725
2.9393939393939394
2.979472140762464
3.0117302052785924
3.037145650048876
3.056695992179863
3.0684261974584555
3.0684261974584555
3.06158357771261
3.0527859237536656
3.040078201368524
3.022482893450636
3.0
2.970674486803519
2.9335288367546437
2.8905180840664717
2.8406647116324537
2.782991202346041
2.717497556207233
2.653958944281525
2.589442815249267
2.5180840664711632
2.443792766373412
2.3685239491691106
2.2952101661779083
2.225806451612903
2.161290322580645
2.103616813294233
2.050830889540567
2.003910068426197
1.9618768328445748
1.924731182795699
1.8944281524926687
1.868035190615836
1.8416422287390029
1.81524926686217
1.782991202346041
1.7487781036168133
1.7174975562072337
1.6881720430107527
1.6598240469208212
1.6304985337243405
1.6021505376344083
1.5747800586510263
0.7810361681329423
0.7732160312805474
0.7693059628543499
0.7663734115347018
0.7732160312805474
0.7976539589442815
0.8484848484848485
0.9305962854349952
1.0439882697947214
1.1837732160312806
1.343108504398827
1.5112414467253177
1.6774193548387095
1.8172043010752688
1.9364613880742916
2.0547409579667644
2.161290322580645
2.254154447702835
2.333333333333333
2.39980449657869
2.4545454545454546
2.498533724340176
2.533724340175953
2.5620723362658846
2.582600195503421
2.5972629521016617
2.6021505376344085
2.601173020527859
2.598240469208211
2.592375366568915
2.5806451612903225
2.563049853372434
2.5386119257087
2.5083088954056696
2.4711632453567938
2.426197458455523
2.3743890518084068
2.3167155425219943
2.260019550342131
2.2023460410557183
2.1378299120234603
2.0684261974584555
1.9990224828934504
1.932551319648094
1.8699902248289344
1.812316715542522
1.7595307917888563
1.7126099706744868
1.6715542521994136
1.6344086021505375
1.6011730205278591
1.573802541544477
1.5503421309872922
1.5249266862170088
1.4975562072336266
1.4711632453567938
1.4457478005865103
1.4193548387096775
1.392961876832845
1.3665689149560116
1.3391984359726294
1.3128054740957966
1.2873900293255132
1.2668621700879763
1.249266862170088
1.2297165200391007
1.209188660801564
1.187683284457478
1.166177908113392
1.1456500488758554
1.1251221896383188
1.1055718475073313
1.086021505376344
1.067448680351906
1.0498533724340176
1.032258064516129
1.0195503421309873
1.0097751710654936
0.9980449657869012
0.9863147605083088
0.975562072336266
0.9648093841642228
0.9550342130987292
0.9452590420332356
0.9345063538611924
0.9247311827956988
0.916911045943304
0.9090909090909092
0.9051808406647116
0.9012707722385142
0.8934506353861192
0.8836754643206256
0.8778103616813294
0.8817204301075269
0.9022482893450636
0.946236559139785
1.018572825024438
1.121212121212121
1.2512218963831867
1.401759530791789
1.542521994134897
1.675464320625611
1.8201368523949168
1.9608993157380252
2.090909090909091
2.204301075268817
2.300097751710655
2.3792766373411536
2.444770283479961
2.498533724340176
2.5405669599217986
2.573802541544477
2.598240469208211
2.610948191593353
2.6158357771261
2.619745845552297
2.619745845552297
2.6158357771261
2.6070381231671558
2.591397849462365
2.664711632453568
2.779081133919844
2.817204301075269
2.8152492668621703
2.788856304985337
2.7536656891495603
2.710654936461388
2.656891495601173
2.5962854349951123
2.530791788856305
2.462365591397849
2.393939393939394
2.3284457478005867
2.2668621700879767
2.210166177908113
2.160312805474096
2.117302052785924
2.080156402737048
2.050830889540567
2.027370478983382
2.003910068426197
1.9794721407624636
1.95405669599218
1.9286412512218964
1.902248289345064
1.87683284457478
1.8514173998044965
1.8269794721407624
1.8035190615835777
1.7810361681329423
1.7624633431085044
1.7468230694037146
1.7282502443792769
1.70772238514174
1.686217008797654
1.664711632453568
1.6451612903225807
1.6236559139784943
1.6021505376344083
1.581622678396872
1.5610948191593352
1.541544477028348
1.521994134897361
1.5073313782991202
1.4965786901270772
1.4838709677419355
1.469208211143695
1.4535679374389052
1.436950146627566
1.4222873900293256
1.4105571847507332
1.3998044965786902
1.3890518084066472
1.380254154447703
1.3734115347018572
1.370478983382209
1.3685239491691104
1.3626588465298142
1.3548387096774193
1.3450635386119256
1.3343108504398826
1.3235581622678396
1.313782991202346
1.3128054740957966
1.327468230694037
1.3626588465298142
1.4242424242424243
1.5151515151515151
1.6158357771260996
1.7272727272727273
1.865102639296188
2.0146627565982405
2.1652003910068425
2.30791788856305
2.4359726295210167
2.5464320625610948
2.6392961876832843
2.716520039100684
2.780058651026393
2.831867057673509
2.868035190615836
2.8914956011730206
2.9120234604105573
2.9286412512218964
2.940371456500489
2.948191593352884
2.952101661779081
2.951124144672532
2.945259042033236
2.9345063538611926
2.917888563049853
2.8963831867057674
2.8699902248289346
2.8406647116324537
2.807429130009776
2.7673509286412514
2.719452590420332
2.664711632453568
2.6041055718475072
2.539589442815249
2.472140762463343
2.404692082111437
2.3391984359726297
2.2766373411534704
2.219941348973607
2.1739980449657867
2.134897360703812
2.096774193548387
2.0625610948191597
2.03128054740958
2.0009775171065494
1.9736070381231672
1.9472140762463344
1.9227761485826005
1.8993157380254155
1.8758553274682308
1.8523949169110456
1.828934506353861
1.8093841642228736
1.793743890518084
1.7741935483870968
1.75366568914956
1.732160312805474
1.710654936461388
1.6881720430107527
1.6666666666666667
1.64613880742913
1.624633431085044
1.603128054740958
1.5826001955034212
