ppg
1.7086999022482894
1.6735092864125125
1.6392961876832846
1.607038123167155
1.576735092864125
1.5483870967741935
1.521994134897361
1.4965786901270772
1.4731182795698925
1.4535679374389052
1.4379276637341154
1.4193548387096775
1.4007820136852396
1.3822091886608017
1.3636363636363635
1.3470185728250244
1.3304007820136852
1.3147605083088951
1.2991202346041055
1.284457478005865
1.270772238514174
1.260019550342131
1.252199413489736
1.2424242424242424
1.2316715542521994
1.219941348973607
1.2072336265884651
1.1945259042033236
1.181818181818182
1.1691104594330402
1.1583577712609971
1.1485826001955035
1.1397849462365592
1.130987292277615
1.1270772238514175
1.1251221896383188
1.121212121212121
1.115347018572825
1.1085043988269794
1.1026392961876832
1.0977517106549364
1.0928641251221896
1.088954056695992
1.0850439882697946
1.0821114369501466
1.078201368523949
1.078201368523949
1.0791788856304985
1.078201368523949
1.075268817204301
1.072336265884653
1.0703812316715542
1.0694037145650048
1.0684261974584557
1.0684261974584557
1.0684261974584557
1.0703812316715542
1.0742913000977516
1.0821114369501466
1.0957966764418376
1.1173020527859236
1.152492668621701
1.206256109481916
1.2825024437927663
1.3822091886608017
1.504398826979472
1.6441837732160314
1.7956989247311828
1.9501466275659824
2.1006842619745845
2.241446725317693
2.35386119257087
2.444770283479961
2.5347018572825024
2.6158357771261
2.687194525904203
2.747800586510264
2.80058651026393
2.843597262952102
2.8797653958944283
2.909090909090909
2.932551319648094
2.949169110459433
2.9589442815249267
2.956989247311828
2.946236559139785
2.929618768328446
2.9042033235581624
2.868035190615836
2.8211143695014664
2.764418377321604
2.699902248289345
2.63049853372434
2.560117302052786
2.490713587487781
2.4242424242424243
2.366568914956012
2.3167155425219943
2.2688172043010755
2.2238514173998043
2.182795698924731
2.144672531769306
2.10850439882698
2.072336265884653
2.0361681329423265
2.0
1.962854349951124
1.924731182795699
1.8866080156402736
1.8533724340175952
1.822091886608016
1.7869012707722385
1.750733137829912
1.7145650048875856
1.6793743890518085
1.6451612903225807
1.6129032258064515
1.5826001955034212
1.5532746823069403
1.525904203323558
1.500488758553275
1.4809384164222874
1.4633431085043989
1.4437927663734116
1.4242424242424243
1.4037145650048877
1.3841642228739004
1.364613880742913
1.346041055718475
1.3284457478005864
1.310850439882698
1.2942326490713587
1.278592375366569
1.262952101661779
1.2512218963831867
1.241446725317693
1.2140762463343109
1.1788856304985338
1.1544477028347997
1.1348973607038124
1.1192570869990224
1.1065493646138806
1.0957966764418376
1.0869990224828934
1.078201368523949
1.0694037145650048
1.0635386119257086
1.0596285434995112
1.053763440860215
1.0469208211143697
1.040078201368524
1.032258064516129
1.0254154447702837
1.018572825024438
1.0127077223851415
1.0087976539589445
1.0048875855327468
1.0009775171065494
0.9980449657869012
0.9980449657869012
1.0009775171065494
1.0009775171065494
1.0
0.9990224828934506
0.997067448680352
0.9951124144672532
0.9931573802541545
0.9912023460410556
0.9902248289345064
0.9902248289345064
0.9902248289345064
0.9941348973607038
1.002932551319648
1.0166177908113392
1.040078201368524
1.0791788856304985
1.1368523949169111
1.217008797653959
1.3206256109481915
1.4457478005865103
1.5884652981427174
1.7409579667644184
1.8963831867057677
2.047898338220919
2.1710654936461387
2.272727272727273
2.3743890518084068
2.466275659824047
2.5454545454545454
2.611925708699902
2.668621700879765
2.716520039100684
2.757575757575758
2.791788856304985
2.820136852394917
2.8406647116324537
2.849462365591398
2.849462365591398
2.844574780058651
2.8299120234604107
2.803519061583578
2.766373411534702
2.717497556207233
2.6578690127077222
2.590420332355816
2.5190615835777126
2.447702834799609
2.380254154447703
2.317693059628544
2.2658846529814274
2.2218963831867056
2.1808406647116323
2.1436950146627565
2.110459433040078
2.078201368523949
2.046920821114369
2.0146627565982405
1.9804496578690127
1.9442815249266865
1.906158357771261
1.8670576735092863
1.8318670576735088
1.7996089931573802
1.7653958944281525
1.729227761485826
1.694037145650049
1.6598240469208212
1.6256109481915937
1.5933528836754642
1.5620723362658846
1.5327468230694037
1.5053763440860215
1.478983382209189
1.457478005865103
1.4389051808406648
1.4173998044965788
1.3949169110459434
1.3734115347018572
1.3519061583577712
1.3304007820136852
1.3098729227761483
1.2903225806451613
1.2717497556207231
1.2531769305962854
1.2346041055718475
1.217008797653959
1.2052785923753666
1.1964809384164223
1.1857282502443791
1.173998044965787
1.1622678396871946
1.1505376344086022
1.13880742913001
1.126099706744868
1.1133919843597262
1.1016617790811338
1.0918866080156402
1.083088954056696
1.0791788856304985
1.078201368523949
1.0742913000977516
1.0703812316715542
1.064516129032258
1.0586510263929618
1.0527859237536656
1.0469208211143697
1.043010752688172
1.0410557184750733
1.0410557184750733
1.0410557184750733
1.0410557184750733
1.0420332355816226
1.040078201368524
1.0303030303030305
1.0127077223851415
0.9882697947214076
0.959921798631476
0.9296187683284456
0.8993157380254154
0.8709677419354839
0.8455522971652004
0.823069403714565
0.8035190615835777
0.7927663734115347
0.7917888563049853
0.7986314760508308
0.8211143695014663
0.8651026392961877
0.9335288367546432
1.0273704789833822
1.141739980449658
1.2717497556207231
1.4105571847507332
1.5493646138807429
1.6823069403714566
1.8035190615835777
1.8993157380254155
1.975562072336266
2.046920821114369
2.1094819159335287
2.161290322580645
2.2052785923753664
2.243401759530792
2.278592375366569
2.313782991202346
2.3499511241446727
2.388074291300098
2.426197458455523
2.455522971652004
2.4789833822091887
2.504398826979472
2.525904203323558
2.541544477028348
2.549364613880743
2.547409579667644
2.535679374389052
2.515151515151515
2.486803519061584
2.4516129032258065
2.412512218963832
2.3704789833822093
2.329423264907136
2.289345063538612
2.24633431085044
2.201368523949169
2.15347018572825
2.103616813294233
2.050830889540567
1.9960899315738023
1.9393939393939397
1.881720430107527
1.823069403714565
1.7644183773216031
1.7135874877810362
1.667644183773216
1.6187683284457477
1.5708699902248289
1.525904203323558
1.4858260019550342
1.4496578690127078
1.4164222873900294
1.3851417399804498
1.3558162267839686
1.327468230694037
1.3010752688172045
1.2746823069403714
1.2551319648093842
1.2394916911045943
1.2228739002932552
1.2101661779081134
1.2013685239491692
1.195503421309873
1.1935483870967742
1.1945259042033236
1.198435972629521
1.2023460410557183
1.206256109481916
1.209188660801564
1.2121212121212122
1.2140762463343109
1.2111436950146628
1.2043010752688172
1.1925708699902249
1.176930596285435
1.1583577712609971
1.1397849462365592
1.121212121212121
1.104594330400782
1.0879765395894427
1.0733137829912025
1.0596285434995112
1.050830889540567
1.04594330400782
1.0410557184750733
1.0381231671554252
1.0381231671554252
1.0410557184750733
1.0488758553274682
1.06158357771261
1.0762463343108504
1.093841642228739
1.1124144672531768
1.1300097751710656
1.1456500488758554
1.1593352883675463
1.1700879765395895
1.1779081133919844
1.1837732160312806
1.1867057673509287
1.1857282502443791
1.1827956989247312
1.176930596285435
1.2218963831867058
1.29227761485826
1.3255131964809383
1.3450635386119256
1.3626588465298142
1.3851417399804498
1.4222873900293256
1.478983382209189
1.560117302052786
1.6666666666666667
1.796676441837732
1.945259042033236
2.10752688172043
2.274682306940372
2.4389051808406648
2.5943304007820136
2.717497556207233
2.8181818181818183
2.917888563049853
3.0097751710654936
3.090909090909091
3.1622678396871944
3.2238514173998043
3.27761485826002
3.32355816226784
3.3626588465298144
3.3929618768328447
3.4144672531769307
3.4271749755620724
3.4252199413489737
3.412512218963832
3.3929618768328447
3.363636363636364
3.3225806451612905
3.270772238514174
3.209188660801564
3.1388074291300097
3.0635386119257086
2.986314760508309
2.9100684261974585
2.8377321603128056
2.7751710654936463
2.720430107526881
2.6695992179863146
2.622678396871945
2.579667644183773
2.539589442815249
2.5004887585532747
2.4613880742913
2.421309872922776
2.3792766373411536
2.3362658846529816
2.291300097751711
2.24633431085044
2.206256109481916
2.1681329423264906
2.1270772238514173
2.085043988269794
2.0439882697947214
2.003910068426197
1.964809384164223
1.927663734115347
1.89247311827957
1.8602150537634408
1.8299120234604105
1.8005865102639296
1.7761485826001957
1.7546432062561097
1.732160312805474
1.7086999022482894
1.686217008797654
1.664711632453568
1.6441837732160314
1.624633431085044
1.6050830889540566
1.585532746823069
1.5650048875855327
1.5454545454545454
1.530791788856305
1.5190615835777126
1.504398826979472
1.4887585532746823
1.4731182795698925
1.458455522971652
1.444770283479961
1.43108504398827
1.4173998044965788
1.4037145650048877
1.391006842619746
1.3792766373411536
1.367546432062561
1.359726295210166
1.35386119257087
1.346041055718475
1.3372434017595307
1.327468230694037
1.3176930596285434
1.3098729227761483
1.3020527859237536
1.295210166177908
1.289345063538612
1.284457478005865
1.2795698924731185
1.2766373411534702
1.2756598240469208
1.2727272727272727
1.2688172043010753
1.2649071358748778
1.2619745845552297
1.2590420332355816
1.2570869990224829
1.2551319648093842
1.2541544477028348
1.2531769305962854
1.2531769305962854
1.2561094819159335
1.2639296187683284
1.2805474095796676
1.3079178885630498
1.35386119257087
1.4213098729227762
1.5131964809384164
1.629521016617791
1.7644183773216031
1.9130009775171064
2.0684261974584555
2.2238514173998043
2.3714565004887587
2.489736070381232
2.587487781036168
2.684261974584555
2.771260997067449
2.84652981427175
2.9100684261974585
2.963831867057673
3.0087976539589443
3.04594330400782
3.0762463343108504
3.1006842619745845
3.118279569892473
3.129032258064516
3.1270772238514173
3.115347018572825
3.096774193548387
3.0684261974584555
3.029325513196481
2.9804496578690127
2.921798631476051
2.8563049853372435
2.7859237536656893
2.7145650048875853
2.644183773216031
2.5777126099706744
2.520039100684262
2.4711632453567938
2.4252199413489737
2.3841642228739004
2.347018572825025
2.3118279569892475
2.27761485826002
2.242424242424242
2.207233626588465
2.1700879765395893
2.1309872922776147
2.09188660801564
2.0518084066471163
2.01564027370479
1.9833822091886608
1.9472140762463344
1.911045943304008
1.8748778103616808
1.839687194525904
1.8054740957966764
1.7732160312805474
1.7429130009775171
1.7135874877810362
1.686217008797654
1.6608015640273706
1.640273704789834
1.6236559139784943
1.6041055718475072
1.58455522971652
1.5650048875855327
1.5464320625610948
1.5278592375366569
1.509286412512219
1.4916911045943304
1.474095796676442
1.457478005865103
1.4408602150537635
1.4252199413489737
1.4134897360703813
1.4037145650048877
1.391006842619746
1.3773216031280548
1.3636363636363635
1.3509286412512218
1.33822091886608
1.3264907135874875
1.3157380254154447
1.305962854349951
1.2971652003910068
1.2883675464320623
1.2825024437927663
1.2795698924731185
1.273704789833822
1.2668621700879763
1.260019550342131
1.2531769305962854
1.24633431085044
1.2404692082111437
1.2365591397849462
1.2326490713587488
1.2287390029325511
1.224828934506354
1.2218963831867058
1.2209188660801564
1.2228739002932552
1.2228739002932552
1.2218963831867058
1.2209188660801564
1.219941348973607
1.2179863147605083
1.217008797653959
1.2160312805474096
1.2160312805474096
1.2160312805474096
1.2179863147605083
1.2258064516129032
1.241446725317693
1.267839687194526
1.310850439882698
1.3743890518084063
1.4623655913978495
1.5757575757575757
1.7116324535679377
1.8631476050830889
2.024437927663734
2.1867057673509285
2.3440860215053765
2.4887585532746823
2.6021505376344085
2.69208211143695
2.779081133919844
2.8582600195503423
2.9266862170087977
2.986314760508309
3.038123167155425
3.0821114369501466
3.120234604105572
3.1515151515151514
3.175953079178885
3.193548387096774
3.198435972629521
3.1925708699902247
3.1818181818181817
3.060606060606061
2.8797653958944283
2.766373411534702
2.6803519061583576
2.6050830889540566
2.532746823069404
2.462365591397849
2.393939393939394
2.3274682306940373
2.2668621700879767
2.21505376344086
2.1700879765395893
2.1270772238514173
2.0879765395894427
2.050830889540567
2.01564027370479
1.981427174975562
1.9472140762463344
1.9130009775171064
1.8778103616813293
1.842619745845552
1.8054740957966764
1.772238514173998
1.7409579667644184
1.7067448680351909
1.6715542521994136
1.6363636363636365
1.603128054740958
1.5698924731182795
1.5376344086021505
1.5073313782991202
1.478005865102639
1.4506353861192571
1.4242424242424243
1.4027370478983383
1.3841642228739004
1.3626588465298142
1.3411534701857282
1.3206256109481915
1.3010752688172045
1.2825024437927663
1.2649071358748778
1.2473118279569892
1.2316715542521994
1.217008797653959
1.2023460410557183
1.187683284457478
1.176930596285435
1.1671554252199414
1.1544477028347997
1.1407624633431086
1.1270772238514175
1.1133919843597262
1.099706744868035
1.0879765395894427
1.0762463343108504
1.0654936461388074
1.0557184750733135
1.0469208211143697
1.0420332355816226
1.0391006842619743
1.0342130987292275
1.029325513196481
1.0234604105571847
1.0175953079178883
1.0117302052785924
1.0058651026392962
1.0
0.9941348973607038
0.9902248289345064
0.9863147605083088
0.9843597262952102
0.9843597262952102
0.9863147605083088
0.9863147605083088
0.9853372434017597
0.9843597262952102
0.9833822091886608
0.9843597262952102
0.9853372434017597
0.9863147605083088
0.9872922776148584
0.9872922776148584
0.9872922776148584
0.989247311827957
0.9931573802541545
0.9990224828934506
1.010752688172043
1.032258064516129
1.0684261974584557
1.1241446725317692
1.2003910068426198
1.2961876832844574
1.4115347018572826
1.541544477028348
1.6793743890518085
1.818181818181818
1.9364613880742916
2.037145650048876
2.139784946236559
2.2355816226783967
2.3196480938416424
2.3900293255131966
2.4486803519061584
2.4975562072336266
2.5376344086021505
2.5718475073313782
2.5992179863147604
2.621700879765396
2.633431085043988
2.636363636363636
2.6373411534701856
2.632453567937439
2.618768328445748
2.595307917888563
2.5620723362658846
2.5190615835777126
2.466275659824047
2.407624633431085
2.345063538611926
2.281524926686217
2.219941348973607
2.167155425219941
2.121212121212121
2.078201368523949
2.0391006842619745
2.004887585532747
1.9736070381231672
1.943304007820137
1.9130009775171064
1.881720430107527
1.8494623655913975
1.81524926686217
1.7790811339198436
1.7468230694037146
1.7165200391006843
1.683284457478006
1.6490713587487782
1.6148582600195502
1.581622678396872
1.5493646138807429
1.5180840664711632
1.4868035190615836
1.457478005865103
1.4301075268817205
1.404692082111437
1.3812316715542523
1.3626588465298142
1.3470185728250244
1.3294232649071358
1.310850439882698
1.29227761485826
1.2746823069403714
1.2570869990224829
1.2404692082111437
1.224828934506354
1.209188660801564
1.1945259042033236
1.1808406647116323
1.1720430107526882
1.1652003910068427
1.1564027370478984
1.1466275659824048
1.1358748778103618
1.1251221896383188
1.1133919843597262
1.1016617790811338
1.0909090909090908
1.0801564027370478
1.0703812316715542
1.06158357771261
1.053763440860215
1.0488758553274682
1.0449657869012707
1.040078201368524
1.0361681329423265
1.0312805474095796
1.0263929618768328
1.021505376344086
1.0166177908113392
1.0127077223851415
1.0087976539589445
1.0058651026392962
1.002932551319648
1.0039100684261977
1.0058651026392962
1.0058651026392962
1.0058651026392962
1.0058651026392962
1.0058651026392962
1.0048875855327468
1.0039100684261977
1.002932551319648
1.002932551319648
1.002932551319648
1.002932551319648
1.0058651026392962
1.0127077223851415
1.0263929618768328
1.0488758553274682
1.0840664711632453
1.1378299120234605
1.2111436950146628
1.305962854349951
1.4203323558162269
1.5503421309872922
1.6901270772238517
1.8328445747800584
1.9716520039100685
2.085043988269794
2.1788856304985336
2.272727272727273
2.357771260997068
2.4301075268817205
2.490713587487781
2.541544477028348
2.5835777126099706
2.618768328445748
2.649071358748778
2.6725317693059627
2.6901270772238512
2.701857282502444
2.702834799608993
2.695014662756598
2.6832844574780057
2.6637341153470184
2.635386119257087
2.5972629521016617
2.549364613880743
2.493646138807429
2.432062561094819
2.367546432062561
2.303030303030303
2.242424242424242
2.189638318670577
2.1436950146627565
2.1006842619745845
2.060606060606061
2.0254154447702835
1.992179863147605
1.9608993157380252
1.9296187683284456
1.8983382209188664
1.8641251221896384
1.8299120234604105
1.7947214076246334
1.758553274682307
1.726295210166178
1.6959921798631477
1.6637341153470186
1.629521016617791
1.5962854349951123
1.564027370478983
1.5327468230694037
1.5034213098729228
1.4760508308895406
1.4701857282502444
1.4750733137829912
1.4643206256109482
1.4496578690127078
1.434017595307918
1.41544477028348
1.3958944281524928
1.375366568914956
1.3548387096774193
1.335288367546432
1.316715542521994
1.300097751710655
1.284457478005865
1.2688172043010753
1.252199413489736
1.2394916911045943
1.2297165200391007
1.2160312805474096
1.2003910068426198
1.18475073313783
1.1691104594330402
1.1534701857282503
1.13880742913001
1.126099706744868
1.115347018572825
1.1055718475073313
1.0957966764418376
1.0869990224828934
1.0821114369501466
1.0791788856304985
1.0742913000977516
1.0684261974584557
1.06158357771261
1.0547409579667644
1.0488758553274682
1.043010752688172
1.0381231671554252
1.0332355816226784
1.0283479960899315
1.024437927663734
1.0234604105571847
1.024437927663734
1.024437927663734
1.0234604105571847
1.0224828934506354
1.021505376344086
1.0205278592375366
1.0195503421309873
1.0175953079178883
1.0166177908113392
1.0166177908113392
1.0166177908113392
1.0166177908113392
1.0205278592375366
1.0303030303030305
1.0449657869012707
1.072336265884653
1.1192570869990224
1.1886608015640274
1.2834799608993157
1.4037145650048877
1.5454545454545454
1.7028347996089932
1.868035190615836
2.032258064516129
2.16911045943304
2.2854349951124147
2.403714565004888
2.512218963831867
2.6070381231671558
2.687194525904203
2.755620723362659
2.8132942326490715
2.86217008797654
2.903225806451613
2.93841642228739
2.9667644183773216
2.9872922776148583
2.995112414467253
2.9931573802541545
2.9872922776148583
2.972629521016618
2.9472140762463344
2.9100684261974585
2.86217008797654
2.803519061583578
2.7370478983382207
2.6637341153470184
2.5884652981427174
2.5141739980449658
2.4486803519061584
2.391006842619746
2.335288367546432
2.283479960899316
2.2375366568914954
2.1955034213098727
2.156402737047898
2.118279569892473
2.081133919843597
2.0439882697947214
2.005865102639296
1.9657869012707725
1.924731182795699
1.8875855327468232
1.8523949169110456
1.8142717497556209
1.775171065493646
1.7341153470185728
1.694037145650049
1.6559139784946235
1.6187683284457477
1.5835777126099706
1.5503421309872922
1.5190615835777126
1.4897360703812317
1.466275659824047
1.4457478005865103
1.423264907135875
1.4007820136852396
1.3782991202346042
1.356793743890518
1.3372434017595307
1.3176930596285434
1.2981427174975562
1.2795698924731185
1.2619745845552297
1.2453567937438903
1.2297165200391007
1.2179863147605083
1.209188660801564
1.1964809384164223
1.1827956989247312
1.1700879765395895
1.1573802541544478
1.144672531769306
1.1319648093841643
1.1202346041055715
1.110459433040078
1.1006842619745845
1.0918866080156402
1.086021505376344
1.0821114369501466
1.0762463343108504
1.0694037145650048
1.0625610948191593
1.0557184750733135
1.0488758553274682
1.0420332355816226
1.0361681329423265
1.0312805474095796
1.0263929618768328
1.0224828934506354
1.018572825024438
1.0175953079178883
1.0175953079178883
1.0156402737047898
1.0127077223851415
1.0097751710654936
1.007820136852395
1.0068426197458455
1.0068426197458455
1.007820136852395
1.0097751710654936
1.0117302052785924
1.0127077223851415
1.0166177908113392
1.0224828934506354
1.0273704789833822
1.035190615835777
1.050830889540567
1.078201368523949
1.1231671554252198
1.1896383186705768
1.2805474095796676
1.3958944281524928
1.5317693059628543
1.683284457478006
1.842619745845552
1.9824046920821117
2.1065493646138806
2.2385141739980448
2.363636363636364
2.4750733137829912
2.5698924731182795
2.649071358748778
2.713587487781036
2.7673509286412514
2.811339198435973
2.8484848484848486
2.878787878787879
2.897360703812317
2.9071358748778104
2.9159335288367547
2.917888563049853
2.9120234604105573
2.8944281524926687
2.865102639296188
2.823069403714565
2.768328445747801
2.7038123167155423
2.632453567937439
2.5591397849462365
2.4858260019550342
2.421309872922776
2.364613880742913
2.3088954056695994
2.2580645161290325
2.2130987292277613
2.172043010752688
2.134897360703812
2.099706744868035
2.065493646138808
2.0303030303030303
1.994134897360704
1.956989247311828
1.9237536656891496
1.8914956011730208
1.855327468230694
1.8162267839687196
1.7771260997067448
1.7380254154447703
1.699902248289345
1.6627565982404693
1.6265884652981428
1.5913978494623655
1.5571847507331378
1.5239491691104594
1.4936461388074291
1.469208211143695
1.4496578690127078
1.4291300097751711
1.4086021505376345
1.3890518084066472
1.370478983382209
1.3519061583577712
1.3333333333333333
1.3157380254154447
1.300097751710655
1.284457478005865
1.2697947214076246
1.2590420332355816
1.2502443792766371
1.2394916911045943
1.2267839687194526
1.2130987292277615
1.1994134897360704
1.1857282502443791
1.1730205278592376
1.160312805474096
1.1485826001955035
1.1368523949169111
1.126099706744868
1.1202346041055715
1.1163245356793745
1.110459433040078
1.1026392961876832
1.093841642228739
1.0850439882697946
1.0772238514173995
1.0694037145650048
1.0625610948191593
1.056695992179863
1.0518084066471165
1.0469208211143697
1.043010752688172
1.0420332355816226
1.0439882697947214
1.0449657869012707
1.0439882697947214
1.043010752688172
1.0420332355816226
1.0410557184750733
1.040078201368524
1.040078201368524
1.040078201368524
1.0391006842619743
1.0381231671554252
1.0391006842619743
1.043010752688172
1.0449657869012707
1.0469208211143697
1.0518084066471165
1.0635386119257086
1.0879765395894427
1.130987292277615
1.1964809384164223
1.2873900293255132
1.4027370478983383
1.5405669599217986
1.694037145650049
1.8347996089931573
1.9687194525904204
2.1163245356793743
2.2629521016617797
2.398826979472141
2.5190615835777126
2.622678396871945
2.7096774193548385
2.782991202346041
2.843597262952102
2.895405669599218
2.9393939393939394
2.967741935483871
2.986314760508309
3.006842619745845
3.0234604105571847
3.034213098729228
3.037145650048876
3.0303030303030303
3.0117302052785924
2.9804496578690127
2.9374389051808407
2.8826979472140764
2.8181818181818183
2.7468230694037143
2.678396871945259
2.611925708699902
2.541544477028348
2.4731182795698925
2.409579667644184
2.3519061583577714
2.300097751710655
2.254154447702835
2.212121212121212
2.172043010752688
2.133919843597263
2.0957966764418376
2.060606060606061
2.026392961876833
1.989247311827957
1.9501466275659824
1.9100684261974583
1.8699902248289344
1.8299120234604105
1.7898338220918866
1.750733137829912
1.7135874877810362
1.6774193548387095
1.6412512218963833
1.606060606060606
1.576735092864125
1.5513196480938416
1.5239491691104594
1.4965786901270772
1.4701857282502444
1.4457478005865103
