ppg
1.3255131964809383
1.3098729227761483
1.2981427174975562
1.2834799608993157
1.2697947214076246
1.2590420332355816
1.249266862170088
1.2375366568914956
1.2258064516129032
1.2130987292277615
1.198435972629521
1.18475073313783
1.1710654936461389
1.1573802541544478
1.1485826001955035
1.1436950146627567
1.1348973607038124
1.1231671554252198
1.1143695014662756
1.1065493646138806
1.0987292277614855
1.0918866080156402
1.0869990224828934
1.0840664711632453
1.083088954056696
1.0801564027370478
1.0791788856304985
1.078201368523949
1.0742913000977516
1.067448680351906
1.0576735092864125
1.0488758553274682
1.0449657869012707
1.043010752688172
1.0420332355816226
1.0410557184750733
1.0410557184750733
1.0410557184750733
1.0420332355816226
1.0478983382209188
1.0576735092864125
1.0742913000977516
1.1065493646138806
1.160312805474096
1.238514173998045
1.3411534701857282
1.4682306940371457
1.6129032258064515
1.7653958944281525
1.9149560117302051
2.056695992179863
2.1739980449657867
2.271749755620724
2.367546432062561
2.4565004887585533
2.535679374389052
2.6041055718475072
2.6637341153470184
2.717497556207233
2.7673509286412514
2.8103616813294234
2.849462365591398
2.8856304985337244
2.919843597262952
2.941348973607038
2.95405669599218
2.967741935483871
2.981427174975562
2.9931573802541545
3.0009775171065494
3.0009775171065494
2.992179863147605
2.9765395894428157
2.9530791788856305
2.920821114369501
2.87683284457478
2.827956989247312
2.774193548387097
2.713587487781036
2.649071358748778
2.5835777126099706
2.520039100684262
2.4574780058651027
2.39980449657869
2.3489736070381237
2.304007820136853
2.2668621700879767
2.2346041055718477
2.204301075268817
2.1788856304985336
2.1593352883675463
2.1407624633431084
2.121212121212121
2.096774193548387
2.065493646138808
2.0332355816226784
2.0
1.9657869012707725
1.9315738025415443
1.8963831867057677
1.8621700879765395
1.8328445747800584
1.8074291300097751
1.7810361681329423
1.75366568914956
1.726295210166178
1.696969696969697
1.667644183773216
1.6373411534701858
1.6050830889540566
1.5708699902248289
1.5386119257087
1.5102639296187683
1.4858260019550342
1.466275659824047
1.4516129032258065
1.436950146627566
1.423264907135875
1.4076246334310851
1.3890518084066472
1.367546432062561
1.3470185728250244
1.3264907135874875
1.305962854349951
1.2883675464320623
1.2688172043010753
1.252199413489736
1.2424242424242424
1.2336265884652982
1.2258064516129032
1.2189638318670577
1.2121212121212122
1.2013685239491692
1.1896383186705768
1.1779081133919844
1.1652003910068427
1.1534701857282503
1.144672531769306
1.1368523949169111
1.1329423264907137
1.130987292277615
1.126099706744868
1.1173020527859236
1.1055718475073313
1.0957966764418376
1.0879765395894427
1.0801564027370478
1.0733137829912025
1.0664711632453567
1.0596285434995112
1.0527859237536656
1.0488758553274682
1.0469208211143697
1.043010752688172
1.0371456500488758
1.029325513196481
1.021505376344086
1.0175953079178883
1.0195503421309873
1.0361681329423265
1.0772238514173995
1.144672531769306
1.2375366568914956
1.3548387096774193
1.474095796676442
1.5972629521016617
1.739980449657869
1.8856304985337244
2.026392961876833
2.155425219941349
2.269794721407625
2.372434017595308
2.4613880742913
2.539589442815249
2.6080156402737047
2.667644183773216
2.7116324535679373
2.747800586510264
2.787878787878788
2.8269794721407626
2.8641251221896384
2.898338220918866
2.9257086999022484
2.946236559139785
2.963831867057673
2.9775171065493646
2.986314760508309
2.988269794721408
2.9824046920821115
2.967741935483871
2.946236559139785
2.918866080156403
2.8807429130009776
2.831867057673509
2.774193548387097
2.70772238514174
2.632453567937439
2.555229716520039
2.4819159335288368
2.4144672531769307
2.350928641251222
2.2991202346041058
2.2551319648093844
2.2140762463343107
2.177908113391984
2.146627565982405
2.120234604105572
2.0987292277614857
2.0772238514174
2.0557184750733137
2.035190615835777
2.010752688172043
1.981427174975562
1.9530791788856303
1.924731182795699
1.895405669599218
1.8670576735092863
1.8387096774193548
1.8084066471163245
1.7781036168132942
1.7468230694037146
1.7145650048875856
1.6813294232649072
1.651026392961877
1.6217008797653958
1.5933528836754642
1.5708699902248289
1.547409579667644
1.5180840664711632
1.487781036168133
1.458455522971652
1.4301075268817205
1.4037145650048877
1.380254154447703
1.3587487781036167
1.3391984359726294
1.3225806451612905
1.3040078201368523
1.2873900293255132
1.273704789833822
1.2561094819159335
1.2404692082111437
1.2258064516129032
1.2121212121212122
1.2013685239491692
1.1906158357771262
1.176930596285435
1.1593352883675463
1.1407624633431086
1.121212121212121
1.1006842619745845
1.0850439882697946
1.075268817204301
1.067448680351906
1.0596285434995112
1.0527859237536656
1.04594330400782
1.0391006842619743
1.032258064516129
1.0254154447702837
1.0195503421309873
1.0166177908113392
1.0156402737047898
1.0166177908113392
1.0156402737047898
1.0117302052785924
1.0097751710654936
1.0087976539589445
1.007820136852395
1.0058651026392962
1.0009775171065494
0.9951124144672532
0.989247311827957
0.981427174975562
0.9736070381231672
0.9716520039100685
0.9794721407624634
0.9990224828934506
1.0342130987292275
1.093841642228739
1.1788856304985338
1.2883675464320623
1.4193548387096775
1.565982404692082
1.7194525904203324
1.869012707722385
2.0087976539589443
2.1378299120234603
2.2404692082111435
2.324535679374389
2.4086021505376345
2.486803519061584
2.557184750733138
2.619745845552297
2.677419354838709
2.730205278592375
2.777126099706745
2.8181818181818183
2.8563049853372435
2.8885630498533725
2.913978494623656
2.9266862170087977
2.930596285434995
2.936461388074292
2.941348973607038
2.9442815249266863
2.943304007820137
2.935483870967742
2.917888563049853
2.8885630498533725
2.84652981427175
2.793743890518084
2.735092864125122
2.67644183773216
2.6158357771261
2.548387096774193
2.4819159335288368
2.418377321603128
2.356793743890518
2.302052785923754
2.2551319648093844
2.2160312805474094
2.182795698924731
2.1524926686217007
2.1251221896383186
2.1006842619745845
2.080156402737048
2.060606060606061
2.0410557184750733
2.0205278592375366
1.9980449657869013
1.9716520039100685
1.9413489736070384
1.9100684261974583
1.878787878787879
1.844574780058651
1.8084066471163245
1.7732160312805474
1.7409579667644184
1.7116324535679377
1.6813294232649072
1.651026392961877
1.619745845552297
1.5884652981427174
1.5581622678396871
1.5288367546432062
1.501466275659824
1.4760508308895406
1.4535679374389052
1.4418377321603129
1.435972629521017
1.4281524926686218
1.4173998044965788
1.3998044965786902
1.3773216031280548
1.3528836754643203
1.3284457478005864
1.305962854349951
1.2864125122189638
1.270772238514174
1.260019550342131
1.249266862170088
1.2375366568914956
1.2297165200391007
1.2238514173998043
1.2140762463343109
1.2023460410557183
1.1896383186705768
1.1779081133919844
1.1691104594330402
1.1612903225806452
1.1534701857282503
1.144672531769306
1.133919843597263
1.1231671554252198
1.110459433040078
1.1006842619745845
1.0957966764418376
1.0899315738025417
1.0840664711632453
1.0772238514173995
1.0703812316715542
1.0635386119257086
1.056695992179863
1.0518084066471165
1.0498533724340176
1.0469208211143697
1.0420332355816226
1.0391006842619743
1.0381231671554252
1.032258064516129
1.0263929618768328
1.0234604105571847
1.0263929618768328
1.040078201368524
1.067448680351906
1.115347018572825
1.1886608015640274
1.289345063538612
1.4115347018572826
1.5503421309872922
1.6813294232649072
1.8064516129032255
1.9423264907135875
2.075268817204301
2.198435972629521
2.3088954056695994
2.4086021505376345
2.496578690127077
2.5747800586510263
2.644183773216031
2.704789833822092
2.758553274682307
2.7976539589442817
2.8260019550342133
2.857282502443793
2.889540566959922
2.921798631476051
2.948191593352884
2.967741935483871
2.98435972629521
2.9980449657869013
3.006842619745845
3.007820136852395
2.99902248289345
2.983382209188661
2.959921798631476
2.927663734115347
2.8836754643206257
2.8299120234604107
2.768328445747801
2.699902248289345
2.6265884652981426
2.5542521994134897
2.484848484848485
2.420332355816227
2.3626588465298144
2.314760508308896
2.2766373411534704
2.24633431085044
2.2170087976539588
2.188660801564027
2.1622678396871944
2.1388074291300097
2.117302052785924
2.0948191593352883
2.067448680351906
2.037145650048876
2.004887585532747
1.9716520039100685
1.9413489736070384
1.913978494623656
1.8866080156402736
1.8592375366568916
1.8318670576735088
1.804496578690127
1.775171065493646
1.7419354838709675
1.7067448680351909
1.672531769305963
1.640273704789834
1.6109481915933528
1.5835777126099706
1.5620723362658846
1.5405669599217986
1.5141739980449658
1.4897360703812317
1.4672531769305963
1.4418377321603129
1.4173998044965788
1.3949169110459434
1.3714565004887584
1.346041055718475
1.3235581622678396
1.3049853372434017
1.29227761485826
1.2825024437927663
1.2727272727272727
1.2639296187683284
1.2531769305962854
1.2394916911045943
1.2238514173998043
1.2072336265884651
1.1906158357771262
1.1749755620723363
1.164222873900293
1.155425219941349
1.147605083088954
1.1436950146627567
1.141739980449658
1.1368523949169111
1.130987292277615
1.1231671554252198
1.1124144672531768
1.1006842619745845
1.0879765395894427
1.0762463343108504
1.0664711632453567
1.0586510263929618
1.050830889540567
1.0469208211143697
1.0449657869012707
1.0410557184750733
1.035190615835777
1.029325513196481
1.021505376344086
1.0146627565982405
1.010752688172043
1.0087976539589445
1.007820136852395
1.007820136852395
1.0087976539589445
1.0195503421309873
1.0420332355816226
1.0791788856304985
1.13880742913001
1.2228739002932552
1.3304007820136852
1.4594330400782014
1.6050830889540566
1.7575757575757576
1.90811339198436
2.047898338220919
2.1739980449657867
2.286412512218964
2.375366568914956
2.4457478005865103
2.515151515151515
2.5806451612903225
2.6402737047898337
2.6959921798631474
2.745845552297165
2.789833822091887
2.8289345063538613
2.865102639296188
2.897360703812317
2.921798631476051
2.941348973607038
2.951124144672532
2.956011730205278
2.961876832844575
2.962854349951124
2.959921798631476
2.9530791788856305
2.9393939393939394
2.9159335288367547
2.881720430107527
2.835777126099707
2.7781036168132944
2.713587487781036
2.649071358748778
2.5835777126099706
2.515151515151515
2.4486803519061584
2.388074291300098
2.3362658846529816
2.289345063538612
2.249266862170088
2.21505376344086
2.1847507331378297
2.155425219941349
2.129032258064516
2.1055718475073317
2.085043988269794
2.0664711632453567
2.0449657869012707
2.0205278592375366
1.9931573802541545
1.9618768328445748
1.9315738025415443
1.902248289345064
1.871945259042033
1.8387096774193548
1.801564027370479
1.7624633431085044
1.7272727272727273
1.696969696969697
1.664711632453568
1.6334310850439884
1.6050830889540566
1.5777126099706744
1.5503421309872922
1.52297165200391
1.4975562072336266
1.474095796676442
1.4506353861192571
1.4271749755620724
1.401759530791789
1.380254154447703
1.3626588465298142
1.3421309872922775
1.3196480938416422
1.2961876832844574
1.2756598240469208
1.2609970674486803
1.24633431085044
1.2336265884652982
1.2238514173998043
1.2160312805474096
1.2082111436950147
1.2043010752688172
1.2023460410557183
1.1945259042033236
1.1837732160312806
1.1720430107526882
1.155425219941349
1.13880742913001
1.1251221896383188
1.115347018572825
1.1065493646138806
1.0987292277614855
1.0918866080156402
1.0850439882697946
1.0821114369501466
1.0801564027370478
1.0762463343108504
1.0703812316715542
1.064516129032258
1.056695992179863
1.0469208211143697
1.0371456500488758
1.029325513196481
1.021505376344086
1.0146627565982405
1.0087976539589445
1.0058651026392962
1.0068426197458455
1.0068426197458455
1.0068426197458455
1.0087976539589445
1.0166177908113392
1.0342130987292275
1.0684261974584557
1.126099706744868
1.2082111436950147
1.3118279569892473
1.4349951124144673
1.5747800586510263
1.7057673509286413
1.83088954056696
1.9667644183773216
2.1006842619745845
2.225806451612903
2.3362658846529816
2.432062561094819
2.5161290322580645
2.5884652981427174
2.650048875855328
2.7008797653958942
2.7438905180840663
2.774193548387097
2.7976539589442817
2.8260019550342133
2.857282502443793
2.889540566959922
2.921798631476051
2.948191593352884
2.967741935483871
2.981427174975562
2.98435972629521
2.9775171065493646
2.963831867057673
2.945259042033236
2.919843597262952
2.887585532746823
2.8455522971652005
2.795698924731183
2.73802541544477
2.6725317693059627
2.603128054740958
2.536656891495601
2.4711632453567938
2.409579667644184
2.3548387096774195
2.3088954056695994
2.271749755620724
2.241446725317693
2.2140762463343107
2.1925708699902247
2.174975562072336
2.155425219941349
2.133919843597263
2.112414467253177
2.09188660801564
2.070381231671554
2.0439882697947214
2.013685239491691
1.9843597262952104
1.9560117302052784
1.9266862170087975
1.8983382209188664
1.870967741935484
1.8435972629521016
1.8162267839687196
1.7888563049853372
1.761485826001955
1.7341153470185728
1.70772238514174
1.6813294232649072
1.6520039100684265
1.6256109481915937
1.6001955034213098
1.5708699902248289
1.542521994134897
1.5180840664711632
1.4936461388074291
1.4721407624633431
1.452590420332356
1.4320625610948192
1.4105571847507332
1.3890518084066472
1.3714565004887584
1.359726295210166
1.3499511241446724
1.33822091886608
1.3255131964809383
1.3128054740957966
1.2981427174975562
1.2805474095796676
1.2609970674486803
1.2443792766373412
1.2326490713587488
1.2238514173998043
1.2160312805474096
1.2082111436950147
1.2043010752688172
1.2023460410557183
1.198435972629521
1.1925708699902249
1.1867057673509287
1.1798631476050832
1.1730205278592376
1.166177908113392
1.1583577712609971
1.147605083088954
1.1368523949169111
1.1280547409579669
1.1221896383186705
1.115347018572825
1.1065493646138806
1.0987292277614855
1.0918866080156402
1.0850439882697946
1.078201368523949
1.0713587487781036
1.064516129032258
1.0576735092864125
1.0547409579667644
1.06158357771261
1.0850439882697946
1.1221896383186705
1.1788856304985338
1.2649071358748778
1.3773216031280548
1.5102639296187683
1.6559139784946235
1.8093841642228736
1.9608993157380252
2.102639296187683
2.231671554252199
2.347018572825025
2.449657869012708
2.525904203323558
2.5865102639296187
2.6471163245356792
2.702834799608993
2.7546432062561097
2.8044965786901277
2.849462365591398
2.887585532746823
2.920821114369501
2.951124144672532
2.9765395894428157
2.9960899315738025
3.0127077223851417
3.018572825024438
3.016617790811339
3.01564027370479
3.0117302052785924
3.0009775171065494
2.9824046920821115
2.95405669599218
2.917888563049853
2.8729227761485827
2.8181818181818183
2.7565982404692084
2.6881720430107525
2.619745845552297
2.5532746823069403
2.4858260019550342
2.421309872922776
2.360703812316716
2.3059628543499517
2.259042033235582
2.217986314760508
2.1837732160312804
2.15347018572825
2.126099706744868
2.1006842619745845
2.0762463343108504
2.053763440860215
2.0303030303030303
2.004887585532747
1.9765395894428155
1.945259042033236
1.9130009775171064
1.878787878787879
1.844574780058651
1.8113391984359728
1.7781036168132942
1.7458455522971652
1.7145650048875856
1.689149560117302
1.6666666666666667
1.640273704789834
1.6129032258064515
1.5835777126099706
1.555229716520039
1.5298142717497556
1.5034213098729228
1.479960899315738
1.4613880742913
1.4418377321603129
1.4222873900293256
1.401759530791789
1.3851417399804498
1.3695014662756595
1.3499511241446724
1.3294232649071358
1.310850439882698
1.295210166177908
1.2805474095796676
1.2649071358748778
1.2502443792766371
1.2355816226783969
1.219941348973607
1.2052785923753666
1.1945259042033236
1.1857282502443791
1.1749755620723363
1.1622678396871946
1.1505376344086022
1.1378299120234605
1.1231671554252198
1.10752688172043
1.0909090909090908
1.0742913000977516
1.0596285434995112
1.050830889540567
1.04594330400782
1.0449657869012707
1.0449657869012707
1.043010752688172
1.0420332355816226
1.0420332355816226
1.0420332355816226
1.0420332355816226
1.0420332355816226
1.0420332355816226
1.0381231671554252
1.029325513196481
1.018572825024438
1.010752688172043
1.0058651026392962
0.997067448680352
0.9872922776148584
0.9824046920821116
0.9902248289345064
1.0156402737047898
1.06158357771261
1.1319648093841643
1.2258064516129032
1.3411534701857282
1.4721407624633431
1.6129032258064515
1.7380254154447703
1.8523949169110456
1.9745845552297163
2.0928641251221896
2.20039100684262
2.2981427174975564
2.3851417399804498
2.462365591397849
2.532746823069404
2.5962854349951123
2.6529814271749754
2.702834799608993
2.73802541544477
2.764418377321604
2.792766373411535
2.8181818181818183
2.841642228739003
2.863147605083089
2.881720430107527
2.8944281524926687
2.9012707722385143
2.903225806451613
2.897360703812317
2.884652981427175
2.8641251221896384
2.835777126099707
2.7996089931573804
2.758553274682307
2.710654936461388
2.654936461388074
2.5943304007820136
2.5317693059628543
2.4701857282502444
2.409579667644184
2.3528836754643208
2.302052785923754
2.2580645161290325
2.222873900293255
2.193548387096774
2.167155425219941
2.1436950146627565
2.120234604105572
2.096774193548387
2.075268817204301
2.0547409579667644
2.03128054740958
2.002932551319648
1.9716520039100685
1.9393939393939397
1.9100684261974583
1.8836754643206255
1.8563049853372435
1.827956989247312
1.7956989247311828
1.7595307917888563
1.721407624633431
1.6842619745845553
1.6490713587487782
1.6148582600195502
1.5835777126099706
1.5562072336265884
1.5298142717497556
1.5063538611925709
1.4848484848484849
1.4604105571847508
1.4349951124144673
1.4086021505376345
1.3841642228739004
1.359726295210166
1.3372434017595307
1.3176930596285434
1.2981427174975562
1.278592375366569
1.260019550342131
1.249266862170088
1.2424242424242424
1.2316715542521994
1.2218963831867058
1.2130987292277615
1.2023460410557183
1.1896383186705768
1.1788856304985338
1.1671554252199414
1.1544477028347997
1.1407624633431086
1.1280547409579669
1.1143695014662756
1.1055718475073313
1.0987292277614855
1.0879765395894427
1.0791788856304985
1.0713587487781036
1.064516129032258
1.0576735092864125
1.050830889540567
1.04594330400782
1.0439882697947214
1.043010752688172
1.0420332355816226
1.0420332355816226
1.040078201368524
1.0371456500488758
1.0361681329423265
1.0332355816226784
1.0283479960899315
1.024437927663734
1.0224828934506354
1.018572825024438
1.0127077223851415
1.0097751710654936
1.0087976539589445
1.007820136852395
1.0127077223851415
1.0234604105571847
1.0420332355816226
1.078201368523949
1.1368523949169111
1.2209188660801564
1.3304007820136852
1.458455522971652
1.6011730205278591
1.747800586510264
1.889540566959922
2.0234604105571847
2.132942326490713
2.2238514173998043
2.3167155425219943
2.4027370478983383
2.4809384164222874
2.5542521994134897
2.618768328445748
2.674486803519061
2.7262952101661777
2.7751710654936463
2.8211143695014664
2.863147605083089
2.8993157380254155
2.921798631476051
2.93841642228739
2.956989247311828
2.972629521016618
2.98435972629521
2.988269794721408
2.9853372434017595
2.973607038123167
2.951124144672532
2.917888563049853
2.875855327468231
2.8269794721407626
2.7751710654936463
2.721407624633431
2.6608015640273703
2.5972629521016617
2.533724340175953
2.4711632453567938
2.4115347018572826
2.358748778103617
2.313782991202346
2.275659824046921
2.243401759530792
2.2140762463343107
2.185728250244379
2.1622678396871944
2.139784946236559
2.115347018572825
2.09188660801564
2.069403714565005
2.0449657869012707
2.016617790811339
1.9853372434017595
1.951124144672532
1.9159335288367547
1.881720430107527
1.8455522971652003
1.8142717497556209
1.7869012707722385
1.7565982404692082
1.726295210166178
1.6979472140762464
1.6686217008797657
1.6373411534701858
1.6050830889540566
1.5728250244379276
1.5395894428152492
1.5073313782991202
1.479960899315738
1.456500488758553
1.439882697947214
1.4281524926686218
1.41544477028348
1.4007820136852396
1.383186705767351
1.3655913978494625
1.3470185728250244
1.327468230694037
1.3098729227761483
1.2913000977517106
1.273704789833822
1.2561094819159335
1.2434017595307918
1.2346041055718475
1.2218963831867058
1.206256109481916
1.1906158357771262
1.173998044965787
1.1573802541544478
1.142717497556207
1.1300097751710656
1.1202346041055715
1.1124144672531768
1.104594330400782
1.0948191593352885
1.086021505376344
1.0801564027370478
1.0703812316715542
1.0586510263929618
1.0478983382209188
1.0410557184750733
1.0381231671554252
1.0361681329423265
1.035190615835777
1.035190615835777
1.035190615835777
1.035190615835777
1.0361681329423265
1.0391006842619743
1.040078201368524
1.0371456500488758
1.032258064516129
1.0303030303030305
1.029325513196481
1.0303030303030305
1.0391006842619743
1.0635386119257086
1.1094819159335287
1.176930596285435
1.2541544477028348
1.3450635386119256
1.4623655913978495
1.5992179863147604
1.7448680351906158
1.8875855327468232
2.0283479960899315
2.161290322580645
2.281524926686217
2.388074291300098
2.482893450635386
2.567937438905181
2.643206256109482
2.697947214076246
2.7390029325513194
2.782013685239492
2.8269794721407626
2.870967741935484
2.913000977517106
2.9501466275659824
2.9824046920821115
3.0117302052785924
3.0361681329423265
3.0547409579667644
3.069403714565005
3.0733137829912023
3.070381231671554
3.065493646138808
3.0547409579667644
3.034213098729228
3.0009775171065494
2.956011730205278
2.900293255131965
2.8367546432062563
2.766373411534702
2.695014662756598
2.624633431085044
2.5562072336265884
2.496578690127077
2.4457478005865103
2.396871945259042
2.3528836754643208
2.315738025415445
2.283479960899316
2.2561094819159337
2.23069403714565
2.2052785923753664
2.1788856304985336
2.1524926686217007
2.1280547409579667
2.10752688172043
2.085043988269794
2.0576735092864125
2.027370478983382
1.9960899315738023
1.9618768328445748
1.924731182795699
1.8875855327468232
1.8523949169110456
1.8172043010752688
1.7810361681329423
1.7468230694037146
1.7126099706744868
1.686217008797654
1.6627565982404693
1.6344086021505375
1.606060606060606
1.5777126099706744
1.5493646138807429
1.521994134897361
1.4965786901270772
1.474095796676442
1.4545454545454546
1.4349951124144673
1.4164222873900294
1.4037145650048877
1.393939393939394
1.383186705767351
1.367546432062561
1.3499511241446724
1.3304007820136852
1.3098729227761483
1.2913000977517106
1.2746823069403714
1.260019550342131
1.2473118279569892
1.2365591397849462
1.224828934506354
1.2150537634408602
1.2052785923753666
1.1906158357771262
1.1730205278592376
1.1564027370478984
1.1397849462365592
1.1251221896383188
1.1143695014662756
1.1055718475073313
1.0977517106549364
1.0899315738025417
1.083088954056696
1.0801564027370478
1.078201368523949
1.0742913000977516
1.0703812316715542
1.0684261974584557
1.064516129032258
1.0586510263929618
1.0527859237536656
1.0449657869012707
1.0371456500488758
1.0283479960899315
1.021505376344086
1.0175953079178883
1.018572825024438
1.0263929618768328
1.040078201368524
1.0664711632453567
1.1143695014662756
1.1886608015640274
1.2864125122189638
1.404692082111437
1.5386119257087
1.6813294232649072
1.828934506353861
1.9745845552297163
2.0948191593352883
2.198435972629521
2.304985337243402
2.407624633431085
2.504398826979472
2.592375366568915
2.670576735092864
2.740957966764418
2.806451612903226
2.8670576735092865
2.920821114369501
2.967741935483871
3.010752688172043
3.0410557184750733
