ppg
2.8611925708699903
2.9227761485826003
2.9716520039100685
3.0097751710654936
3.040078201368524
3.0625610948191597
3.0791788856304985
3.090909090909091
3.0987292277614857
3.102639296187683
3.103616813294233
3.0987292277614857
3.088954056695992
3.0791788856304985
3.070381231671554
3.059628543499511
3.0449657869012707
3.0254154447702835
3.0019550342130987
2.9745845552297165
2.940371456500489
2.900293255131965
2.8533724340175954
2.8025415444770285
2.747800586510264
2.6823069403714563
2.6070381231671558
2.5239491691104594
2.434017595307918
2.337243401759531
2.2385141739980448
2.139784946236559
2.0439882697947214
1.95405669599218
1.8729227761485825
1.8025415444770283
1.7497556207233629
1.7086999022482894
1.6735092864125125
1.6441837732160314
1.6187683284457477
1.595307917888563
1.5728250244379276
1.5493646138807429
1.5239491691104594
1.498533724340176
1.4711632453567938
1.439882697947214
1.412512218963832
1.3870967741935485
1.359726295210166
1.3294232649071358
1.2971652003910068
1.2649071358748778
1.2346041055718475
1.206256109481916
1.1788856304985338
1.152492668621701
1.1270772238514175
1.1036168132942326
1.083088954056696
1.0713587487781036
1.0625610948191593
1.0527859237536656
1.0449657869012707
1.0391006842619743
1.0332355816226784
1.0283479960899315
1.024437927663734
1.0195503421309873
1.0156402737047898
1.010752688172043
1.0087976539589445
1.0117302052785924
1.0156402737047898
1.0175953079178883
1.0195503421309873
1.0205278592375366
1.0224828934506354
1.024437927663734
1.0254154447702837
1.0263929618768328
1.029325513196481
1.0332355816226784
1.0381231671554252
1.04594330400782
1.0547409579667644
1.06158357771261
1.0694037145650048
1.0772238514173995
1.0821114369501466
1.086021505376344
1.0899315738025417
1.0928641251221896
1.0948191593352885
1.0957966764418376
1.0957966764418376
1.0957966764418376
1.0977517106549364
1.1006842619745845
1.1026392961876832
1.1036168132942326
1.1026392961876832
1.1016617790811338
1.1006842619745845
1.1016617790811338
1.1085043988269794
1.1280547409579669
1.1671554252199414
1.2326490713587488
1.3098729227761483
1.4027370478983383
1.5278592375366569
1.678396871945259
1.8455522971652003
2.0205278592375366
2.1925708699902247
2.35386119257087
2.498533724340176
2.6236559139784945
2.727272727272727
2.812316715542522
2.8807429130009776
2.924731182795699
2.951124144672532
2.973607038123167
2.9931573802541545
3.007820136852395
3.0195503421309877
3.029325513196481
3.0391006842619745
3.047898338220919
3.0547409579667644
3.056695992179863
3.0547409579667644
3.0449657869012707
3.03128054740958
3.018572825024438
3.0019550342130987
2.983382209188661
2.960899315738025
2.932551319648094
2.8963831867057674
2.854349951124145
2.807429130009776
2.7536656891495603
2.69208211143695
2.621700879765396
2.5513196480938416
2.47702834799609
2.391006842619746
2.297165200391007
2.19941348973607
2.1006842619745845
2.005865102639296
1.916911045943304
1.8377321603128052
1.7702834799608993
1.7126099706744868
1.6656891495601174
1.632453567937439
1.6080156402737047
1.585532746823069
1.563049853372434
1.541544477028348
1.521016617790811
1.499511241446725
1.4750733137829912
1.4506353861192571
1.4242424242424243
1.3958944281524928
1.3665689149560116
1.3343108504398826
1.3049853372434017
1.278592375366569
1.249266862170088
1.219941348973607
1.1925708699902249
1.166177908113392
1.1397849462365592
1.1143695014662756
1.0918866080156402
1.0733137829912025
1.0576735092864125
1.0439882697947214
1.0371456500488758
1.035190615835777
1.0312805474095796
1.0273704789833822
1.0234604105571847
1.0195503421309873
1.0156402737047898
1.010752688172043
1.0068426197458455
1.0048875855327468
1.0058651026392962
1.0087976539589445
1.0117302052785924
1.0175953079178883
1.0254154447702837
1.0312805474095796
1.0361681329423265
1.0410557184750733
1.04594330400782
1.0498533724340176
1.0557184750733135
1.06158357771261
1.0664711632453567
1.0713587487781036
1.0772238514173995
1.0840664711632453
1.0909090909090908
1.0977517106549364
1.1055718475073313
1.1133919843597262
1.121212121212121
1.1280547409579669
1.1348973607038124
1.1397849462365592
1.1436950146627567
1.1456500488758554
1.1466275659824048
1.147605083088954
1.1495601173020529
1.1534701857282503
1.1573802541544478
1.1652003910068427
1.1827956989247312
1.2140762463343109
1.2658846529814272
1.3421309872922775
1.4467253176930597
1.5777126099706744
1.7311827956989247
1.900293255131965
2.0518084066471163
2.174975562072336
2.300097751710655
2.43108504398827
2.5542521994134897
2.6637341153470184
2.7546432062561097
2.8289345063538613
2.889540566959922
2.935483870967742
2.970674486803519
2.997067448680352
3.016617790811339
3.024437927663734
3.024437927663734
3.026392961876833
3.027370478983382
3.0254154447702835
3.022482893450636
3.0175953079178885
3.0097751710654936
3.0009775171065494
2.9902248289345064
2.975562072336266
2.956989247311828
2.932551319648094
2.903225806451613
2.8699902248289346
2.831867057673509
2.787878787878788
2.73802541544477
2.6832844574780057
2.622678396871945
2.5562072336265884
2.482893450635386
2.4027370478983383
2.318670576735093
2.231671554252199
2.1515151515151514
2.0772238514174
1.997067448680352
1.919843597262952
1.8504398826979471
1.7917888563049853
1.7438905180840665
1.704789833822092
1.6735092864125125
1.6471163245356797
1.624633431085044
1.603128054740958
1.585532746823069
1.5698924731182795
1.5493646138807429
1.5249266862170088
1.498533724340176
1.469208211143695
1.4389051808406648
1.4076246334310851
1.3792766373411536
1.3509286412512218
1.3235581622678396
1.2961876832844574
1.2697947214076246
1.2482893450635386
1.2297165200391007
1.209188660801564
1.1886608015640274
1.1691104594330402
1.1505376344086022
1.1329423264907137
1.115347018572825
1.099706744868035
1.0869990224828934
1.0772238514173995
1.0694037145650048
1.0654936461388074
1.064516129032258
1.0625610948191593
1.0586510263929618
1.053763440860215
1.0488758553274682
1.0439882697947214
1.0391006842619743
1.035190615835777
1.0332355816226784
1.0342130987292275
1.0371456500488758
1.0420332355816226
1.0488758553274682
1.0547409579667644
1.0596285434995112
1.0625610948191593
1.064516129032258
1.0664711632453567
1.0694037145650048
1.0742913000977516
1.0801564027370478
1.086021505376344
1.0918866080156402
1.096774193548387
1.1026392961876832
1.1094819159335287
1.1124144672531768
1.1163245356793745
1.1202346041055715
1.1241446725317692
1.1280547409579669
1.1300097751710656
1.130987292277615
1.1290322580645162
1.1241446725317692
1.118279569892473
1.1163245356793745
1.121212121212121
1.133919843597263
1.160312805474096
1.209188660801564
1.2834799608993157
1.3861192570869991
1.5131964809384164
1.6608015640273706
1.823069403714565
1.991202346041056
2.155425219941349
2.30791788856305
2.429130009775171
2.5268817204301075
2.621700879765396
2.705767350928641
2.776148582600196
2.831867057673509
2.874877810361681
2.90811339198436
2.9335288367546437
2.9530791788856305
2.9667644183773216
2.9775171065493646
2.9804496578690127
2.978494623655914
2.9775171065493646
2.975562072336266
2.9716520039100685
2.9657869012707723
2.9579667644183774
2.946236559139785
2.930596285434995
2.909090909090909
2.8826979472140764
2.852394916911046
2.81622678396872
2.777126099706745
2.7331378299120237
2.6832844574780057
2.627565982404692
2.5650048875855327
2.493646138807429
2.4134897360703813
2.326490713587488
2.232649071358749
2.133919843597263
2.0361681329423265
1.943304007820137
1.8641251221896384
1.7976539589442817
1.7341153470185728
1.675464320625611
1.6256109481915937
1.585532746823069
1.5532746823069403
1.5268817204301075
1.5034213098729228
1.4819159335288368
1.4613880742913
1.4389051808406648
1.414467253176931
1.3919843597262953
1.370478983382209
1.3450635386119256
1.316715542521994
1.2854349951124144
1.252199413489736
1.2209188660801564
1.1906158357771262
1.160312805474096
1.130987292277615
1.1036168132942326
1.0791788856304985
1.0625610948191593
1.0488758553274682
1.0312805474095796
1.0127077223851415
0.9941348973607038
0.9775171065493646
0.9638318670576737
0.9550342130987292
0.9511241446725318
0.9491691104594332
0.9481915933528836
0.9472140762463344
0.946236559139785
0.9472140762463344
0.9511241446725318
0.9530791788856304
0.95405669599218
0.95405669599218
0.95405669599218
0.95405669599218
0.9550342130987292
0.9579667644183774
0.9618768328445748
0.9657869012707724
0.967741935483871
0.9706744868035192
0.9765395894428152
0.9804496578690128
0.9824046920821116
0.9833822091886608
0.9833822091886608
0.9843597262952102
0.9872922776148584
0.9902248289345064
0.9941348973607038
0.9980449657869012
1.0019550342130987
1.0039100684261977
1.0068426197458455
1.0117302052785924
1.0146627565982405
1.0156402737047898
1.0166177908113392
1.0175953079178883
1.0195503421309873
1.0205278592375366
1.0195503421309873
1.0166177908113392
1.0156402737047898
1.0175953079178883
1.0234604105571847
1.0361681329423265
1.0596285434995112
1.099706744868035
1.166177908113392
1.2609970674486803
1.383186705767351
1.5268817204301075
1.6881720430107527
1.858260019550342
2.0283479960899315
2.1915933528836757
2.3411534701857284
2.4565004887585533
2.548387096774193
2.636363636363636
2.713587487781036
2.779081133919844
2.83088954056696
2.8690127077223853
2.8885630498533725
2.897360703812317
2.906158357771261
2.913000977517106
2.9159335288367547
2.913000977517106
2.906158357771261
2.9012707722385143
2.8944281524926687
2.887585532746823
2.877810361681329
2.8641251221896384
2.8475073313782997
2.827956989247312
2.8054740957966766
2.779081133919844
2.7468230694037143
2.7096774193548385
2.667644183773216
2.622678396871945
2.570869990224829
2.512218963831867
2.44672531769306
2.372434017595308
2.291300097751711
2.2052785923753664
2.1163245356793743
2.026392961876833
1.9374389051808407
1.8543499511241448
1.7849462365591398
1.7272727272727273
1.672531769305963
1.6265884652981428
1.5894428152492668
1.5581622678396871
1.5327468230694037
1.512218963831867
1.4926686217008798
1.4721407624633431
1.4506353861192571
1.4271749755620724
1.4007820136852396
1.3792766373411536
1.3587487781036167
1.332355816226784
1.3040078201368523
1.273704789833822
1.2443792766373412
1.2160312805474096
1.1886608015640274
1.163245356793744
1.1397849462365592
1.118279569892473
1.0977517106549364
1.0821114369501466
1.0694037145650048
1.0547409579667644
1.040078201368524
1.0283479960899315
1.0195503421309873
1.013685239491691
1.010752688172043
1.0097751710654936
1.0087976539589445
1.0087976539589445
1.0087976539589445
1.010752688172043
1.0127077223851415
1.0127077223851415
1.0127077223851415
1.0127077223851415
1.0127077223851415
1.013685239491691
1.0156402737047898
1.018572825024438
1.0224828934506354
1.0263929618768328
1.0303030303030305
1.0342130987292275
1.040078201368524
1.0469208211143697
1.0518084066471165
1.056695992179863
1.0606060606060606
1.064516129032258
1.0694037145650048
1.0762463343108504
1.083088954056696
1.0899315738025417
1.0948191593352885
1.1016617790811338
1.110459433040078
1.1192570869990224
1.126099706744868
1.1300097751710656
1.1319648093841643
1.1329423264907137
1.133919843597263
1.1358748778103618
1.1407624633431086
1.1505376344086022
1.1700879765395895
1.2043010752688172
1.2580645161290325
1.3225806451612905
1.401759530791789
1.5131964809384164
1.6490713587487782
1.7996089931573802
1.9589442815249267
2.118279569892473
2.2688172043010755
2.406647116324536
2.525904203323558
2.6265884652981426
2.70772238514174
2.763440860215054
2.80058651026393
2.833822091886608
2.8611925708699903
2.881720430107527
2.8963831867057674
2.90811339198436
2.917888563049853
2.9257086999022484
2.930596285434995
2.932551319648094
2.9315738025415445
2.927663734115347
2.917888563049853
2.9042033235581624
2.889540566959922
2.874877810361681
2.8582600195503423
2.8396871945259043
2.81622678396872
2.7869012707722387
2.7517106549364616
2.710654936461388
2.6637341153470184
2.6099706744868034
2.5532746823069403
2.49266862170088
2.4222873900293256
2.345063538611926
2.260997067448681
2.1730205278592374
2.085043988269794
1.9990224828934504
1.916911045943304
1.8435972629521016
1.7820136852394917
1.7311827956989247
1.6911045943304008
1.6627565982404693
1.6412512218963833
1.6226783968719452
1.606060606060606
1.5884652981427174
1.5698924731182795
1.5493646138807429
1.525904203323558
1.5024437927663734
1.478005865102639
1.4516129032258065
1.4222873900293256
1.3978494623655917
1.3763440860215057
1.3519061583577712
1.3264907135874875
1.300097751710655
1.273704789833822
1.249266862170088
1.2258064516129032
1.2052785923753666
1.187683284457478
1.1710654936461389
1.155425219941349
1.142717497556207
1.1358748778103618
1.130987292277615
1.1241446725317692
1.118279569892473
1.1133919843597262
1.1085043988269794
1.104594330400782
1.1016617790811338
1.099706744868035
1.0987292277614855
1.0987292277614855
1.0977517106549364
1.0987292277614855
1.1036168132942326
1.1065493646138806
1.1085043988269794
1.110459433040078
1.1133919843597262
1.1163245356793745
1.1202346041055715
1.1241446725317692
1.1280547409579669
1.130987292277615
1.133919843597263
1.1368523949169111
1.142717497556207
1.1495601173020529
1.1544477028347997
1.1593352883675463
1.163245356793744
1.166177908113392
1.1700879765395895
1.173998044965787
1.1759530791788857
1.176930596285435
1.176930596285435
1.176930596285435
1.1788856304985338
1.181818181818182
1.1827956989247312
1.181818181818182
1.1827956989247312
1.187683284457478
1.203323558162268
1.2346041055718475
1.2873900293255132
1.3655913978494625
1.469208211143695
1.5972629521016617
1.7448680351906158
1.8807429130009776
2.0087976539589443
2.150537634408602
2.289345063538612
2.4164222873900294
2.5288367546432062
2.625610948191593
2.705767350928641
2.76930596285435
2.817204301075269
2.854349951124145
2.8836754643206257
2.900293255131965
2.909090909090909
2.917888563049853
2.9266862170087977
2.9345063538611926
2.940371456500489
2.943304007820137
2.9442815249266863
2.941348973607038
2.935483870967742
2.9257086999022484
2.9120234604105573
2.89345063538612
2.8719452590420333
2.860215053763441
2.8514173998044967
2.8289345063538613
2.7966764418377323
2.755620723362659
2.7067448680351904
2.649071358748778
2.582600195503421
2.50733137829912
2.4222873900293256
2.3284457478005867
2.241446725317693
2.158357771260997
2.067448680351906
1.975562072336266
1.8905180840664717
1.8142717497556209
1.7487781036168133
1.6950146627565983
1.6520039100684265
1.6177908113391983
1.5894428152492668
1.5650048875855327
1.5464320625610948
1.5298142717497556
1.5102639296187683
1.487781036168133
1.4633431085043989
1.435972629521017
1.4076246334310851
1.3773216031280548
1.3440860215053765
1.3088954056695992
1.273704789833822
1.241446725317693
1.2111436950146628
1.187683284457478
1.1691104594330402
1.1485826001955035
1.1280547409579669
1.10752688172043
1.0869990224828934
1.0664711632453567
1.04594330400782
1.0283479960899315
1.0146627565982405
1.002932551319648
0.9931573802541545
0.9882697947214076
0.9882697947214076
0.9882697947214076
0.9882697947214076
0.9882697947214076
0.9882697947214076
0.9882697947214076
0.9882697947214076
0.989247311827957
0.9921798631476052
0.9951124144672532
0.9990224828934506
1.002932551319648
1.0087976539589445
1.0156402737047898
1.021505376344086
1.0263929618768328
1.0303030303030305
1.0332355816226784
1.035190615835777
1.0371456500488758
1.040078201368524
1.043010752688172
1.0469208211143697
1.050830889540567
1.056695992179863
1.0635386119257086
1.0694037145650048
1.0742913000977516
1.0791788856304985
1.083088954056696
1.0869990224828934
1.0909090909090908
1.0948191593352885
1.096774193548387
1.0957966764418376
1.093841642228739
1.0918866080156402
1.093841642228739
1.1006842619745845
1.1133919843597262
1.1378299120234605
1.1808406647116323
1.2502443792766371
1.3479960899315735
1.4711632453567938
1.616813294232649
1.7771260997067448
1.943304007820137
2.10850439882698
2.2453567937438903
2.3597262952101663
2.4731182795698925
2.575757575757576
2.664711632453568
2.7390029325513194
2.798631476050831
2.844574780058651
2.877810361681329
2.903225806451613
2.921798631476051
2.935483870967742
2.946236559139785
2.949169110459433
2.948191593352884
2.948191593352884
2.948191593352884
2.948191593352884
2.946236559139785
2.941348973607038
2.932551319648094
2.918866080156403
2.902248289345064
2.881720430107527
2.855327468230694
2.823069403714565
2.7859237536656893
2.745845552297165
2.699902248289345
2.650048875855328
2.593352883675464
2.5288367546432062
2.455522971652004
2.375366568914956
2.289345063538612
2.198435972629521
2.10752688172043
2.018572825024438
1.9423264907135875
1.8758553274682308
1.8103616813294232
1.7517106549364614
1.7008797653958945
1.6608015640273706
1.629521016617791
1.6050830889540566
1.587487781036168
1.5698924731182795
1.5513196480938416
1.5317693059628543
1.5151515151515151
1.498533724340176
1.4760508308895406
1.4486803519061584
1.418377321603128
1.3870967741935485
1.3558162267839686
1.3235581622678396
1.2932551319648091
1.2658846529814272
1.2394916911045943
1.2130987292277615
1.187683284457478
1.1681329423264908
1.1515151515151516
1.1358748778103618
1.121212121212121
1.1085043988269794
1.0957966764418376
1.083088954056696
1.0713587487781036
1.06158357771261
1.053763440860215
1.0478983382209188
1.0439882697947214
1.0449657869012707
1.0498533724340176
1.053763440860215
1.0557184750733135
1.0576735092864125
1.0606060606060606
1.0635386119257086
1.067448680351906
1.0713587487781036
1.075268817204301
1.078201368523949
1.0801564027370478
1.0821114369501466
1.0869990224828934
1.0928641251221896
1.0977517106549364
1.1026392961876832
1.1085043988269794
1.1163245356793745
1.1241446725317692
1.1300097751710656
1.133919843597263
1.1378299120234605
1.141739980449658
1.1436950146627567
1.147605083088954
1.1534701857282503
1.160312805474096
1.1652003910068427
1.1681329423264908
1.1691104594330402
1.1700879765395895
1.1700879765395895
1.1700879765395895
1.1720430107526882
1.181818181818182
1.206256109481916
1.249266862170088
1.3020527859237536
1.3714565004887584
1.4721407624633431
1.598240469208211
1.7458455522971652
1.905180840664712
2.0684261974584555
2.2277614858260018
2.377321603128055
2.5102639296187683
2.621700879765396
2.7145650048875853
2.779081133919844
2.8240469208211145
2.865102639296188
2.898338220918866
2.9257086999022484
2.9472140762463344
2.963831867057673
2.9765395894428157
2.9853372434017595
2.992179863147605
2.997067448680352
2.99902248289345
3.0
2.995112414467253
2.986314760508309
2.9775171065493646
2.9667644183773216
2.951124144672532
2.930596285434995
2.906158357771261
2.878787878787879
2.8475073313782997
2.812316715542522
2.773216031280548
2.7262952101661777
2.67644183773216
2.622678396871945
2.5591397849462365
2.487781036168133
2.409579667644184
2.326490713587488
2.241446725317693
2.157380254154448
2.0791788856304985
2.0087976539589443
1.9442815249266865
1.8885630498533723
1.8455522971652003
1.8132942326490715
1.7859237536656891
1.7634408602150538
1.7438905180840665
1.726295210166178
1.7096774193548387
1.6930596285434996
1.6764418377321604
1.6578690127077225
1.6392961876832846
1.6177908113391983
1.5923753665689149
1.5698924731182795
1.5493646138807429
1.5278592375366569
1.5024437927663734
1.474095796676442
1.4437927663734116
1.4134897360703813
1.3851417399804498
1.359726295210166
1.3372434017595307
1.316715542521994
1.2991202346041055
1.2864125122189638
1.2776148582600195
1.267839687194526
1.2580645161290325
1.249266862170088
1.241446725317693
1.2326490713587488
1.224828934506354
1.2179863147605083
1.2130987292277615
1.209188660801564
1.2052785923753666
1.203323558162268
1.2043010752688172
1.206256109481916
1.2072336265884651
1.2082111436950147
1.2082111436950147
1.2082111436950147
1.2082111436950147
1.2082111436950147
1.2082111436950147
1.2082111436950147
1.209188660801564
1.2111436950146628
1.2140762463343109
1.217008797653959
1.2189638318670577
1.219941348973607
1.219941348973607
1.2218963831867058
1.227761485826002
1.2346041055718475
1.2404692082111437
1.2453567937438903
1.249266862170088
1.2512218963831867
1.252199413489736
1.2541544477028348
1.2580645161290325
1.260019550342131
1.2609970674486803
1.2619745845552297
1.267839687194526
1.2825024437927663
1.3128054740957966
1.364613880742913
1.4437927663734116
1.5503421309872922
1.6803519061583578
1.8054740957966764
1.9305962854349952
2.075268817204301
2.222873900293255
2.363636363636364
2.490713587487781
2.60019550342131
2.69208211143695
2.766373411534702
2.8240469208211145
2.868035190615836
2.900293255131965
2.9237536656891496
2.9345063538611926
2.9374389051808407
2.943304007820137
2.9501466275659824
2.956011730205278
2.9589442815249267
2.959921798631476
2.9579667644183774
2.9530791788856305
2.946236559139785
2.935483870967742
2.920821114369501
2.9012707722385143
2.8797653958944283
2.857282502443793
2.83088954056696
2.80058651026393
2.7653958944281527
2.7233626588465296
2.674486803519061
2.6177908113391983
2.5542521994134897
2.484848484848485
2.407624633431085
2.324535679374389
2.24633431085044
2.1710654936461387
2.088954056695992
2.006842619745845
1.9286412512218964
1.857282502443793
1.7947214076246334
1.7429130009775171
1.7008797653958945
1.6686217008797657
1.643206256109482
1.6226783968719452
1.606060606060606
1.590420332355816
1.5728250244379276
1.5542521994134897
1.533724340175953
1.5112414467253177
1.4858260019550342
1.457478005865103
1.4281524926686218
1.3998044965786902
1.370478983382209
1.3401759530791788
1.310850439882698
1.2873900293255132
1.267839687194526
1.24633431085044
1.2238514173998043
1.2013685239491692
1.1808406647116323
1.163245356793744
1.1485826001955035
1.1358748778103618
1.1231671554252198
1.110459433040078
1.0987292277614855
1.0909090909090908
1.0850439882697946
1.078201368523949
1.072336265884653
1.067448680351906
1.0625610948191593
1.0586510263929618
1.0547409579667644
1.0518084066471165
1.050830889540567
1.050830889540567
1.0498533724340176
1.0488758553274682
1.0518084066471165
1.0547409579667644
1.056695992179863
1.0586510263929618
1.0596285434995112
1.0606060606060606
1.0635386119257086
1.067448680351906
1.0713587487781036
1.075268817204301
1.0791788856304985
1.083088954056696
1.088954056695992
1.096774193548387
1.1036168132942326
1.1094819159335287
1.1143695014662756
1.118279569892473
1.1221896383186705
1.1251221896383188
1.1280547409579669
1.1290322580645162
1.1290322580645162
1.1290322580645162
1.1300097751710656
1.133919843597263
1.1407624633431086
1.152492668621701
1.176930596285435
1.219941348973607
1.2864125122189638
1.3792766373411536
1.4965786901270772
1.635386119257087
1.7898338220918866
1.9501466275659824
2.10850439882698
2.239491691104594
2.3489736070381237
2.4604105571847508
2.5620723362658846
2.649071358748778
2.719452590420332
2.774193548387097
2.8152492668621703
2.84652981427175
2.8699902248289346
2.8856304985337244
2.897360703812317
2.897360703812317
2.897360703812317
2.897360703812317
2.897360703812317
2.897360703812317
2.9042033235581624
2.902248289345064
2.897360703812317
2.889540566959922
2.877810361681329
2.860215053763441
2.8367546432062563
2.8103616813294234
2.7810361681329425
2.748778103616813
2.7116324535679373
2.6695992179863146
2.6207233626588464
2.563049853372434
2.4975562072336266
2.4222873900293256
2.340175953079179
2.254154447702835
2.1652003910068425
2.0772238514174
2.0019550342130987
1.935483870967742
1.869012707722385
1.8084066471163245
1.7546432062561097
