ppg
2.547409579667644
2.479960899315738
2.4027370478983383
2.32355816226784
2.244379276637341
2.167155425219941
2.0928641251221896
2.0234604105571847
1.959921798631476
1.9042033235581624
1.855327468230694
1.8132942326490715
1.7810361681329423
1.7556207233626588
1.732160312805474
1.7126099706744868
1.6950146627565983
1.6774193548387095
1.6578690127077225
1.6383186705767352
1.6177908113391983
1.5962854349951123
1.573802541544477
1.5503421309872922
1.525904203323558
1.5063538611925709
1.4897360703812317
1.4701857282502444
1.4496578690127078
1.4301075268817205
1.4086021505376345
1.3851417399804498
1.3626588465298142
1.3411534701857282
1.3186705767350928
1.295210166177908
1.2717497556207231
1.2541544477028348
1.2375366568914956
1.217008797653959
1.1964809384164223
1.1759530791788857
1.1564027370478984
1.1407624633431086
1.1329423264907137
1.13880742913001
1.1622678396871946
1.209188660801564
1.284457478005865
1.3900293255131966
1.5034213098729228
1.6275659824046922
1.7820136852394917
1.95405669599218
2.132942326490713
2.3069403714565007
2.4672531769305963
2.606060606060606
2.721407624633431
2.8132942326490715
2.8836754643206257
2.9335288367546437
2.960899315738025
2.9716520039100685
2.9745845552297165
2.970674486803519
2.9579667644183774
2.935483870967742
2.903225806451613
2.835777126099707
2.7468230694037143
2.668621700879765
2.5943304007820136
2.5190615835777126
2.441837732160313
2.372434017595308
2.30791788856305
2.2385141739980448
2.1681329423264906
2.0977517106549364
2.03128054740958
1.9696969696969695
1.913978494623656
1.8641251221896384
1.8211143695014664
1.7849462365591398
1.7546432062561097
1.732160312805474
1.715542521994135
1.7008797653958945
1.686217008797654
1.6705767350928642
1.6529814271749756
1.6344086021505375
1.6158357771260996
1.598240469208211
1.581622678396872
1.565982404692082
1.5513196480938416
1.5395894428152492
1.5288367546432062
1.5131964809384164
1.4946236559139785
1.4750733137829912
1.4545454545454546
1.4330400782013686
1.4115347018572826
1.3919843597262953
1.3734115347018572
1.356793743890518
1.3411534701857282
1.3255131964809383
1.3147605083088951
1.3069403714565004
1.295210166177908
1.281524926686217
1.2688172043010753
1.2580645161290325
1.2561094819159335
1.267839687194526
1.2991202346041055
1.3548387096774193
1.436950146627566
1.5464320625610948
1.6608015640273706
1.7839687194525904
1.9335288367546437
2.0948191593352883
2.2580645161290325
2.4134897360703813
2.552297165200391
2.6725317693059627
2.7722385141739982
2.8514173998044967
2.911045943304008
2.952101661779081
2.9765395894428157
2.983382209188661
2.979472140762464
2.9696969696969697
2.9530791788856305
2.9266862170087977
2.8914956011730206
2.8484848484848486
2.798631476050831
2.739980449657869
2.675464320625611
2.606060606060606
2.5317693059628543
2.462365591397849
2.3978494623655915
2.3274682306940373
2.2580645161290325
2.1915933528836757
2.129032258064516
2.071358748778104
2.016617790811339
1.9667644183773216
1.9237536656891496
1.8856304985337244
1.8533724340175952
1.826001955034213
1.8054740957966764
1.7869012707722385
1.7663734115347018
1.7458455522971652
1.726295210166178
1.7086999022482894
1.6911045943304008
1.672531769305963
1.653958944281525
1.635386119257087
1.6148582600195502
1.5923753665689149
1.5747800586510263
1.5591397849462365
1.5395894428152492
1.5190615835777126
1.4975562072336266
1.4760508308895406
1.455522971652004
1.435972629521017
1.4173998044965788
1.3988269794721409
1.3792766373411536
1.3616813294232648
1.343108504398827
1.3294232649071358
1.3196480938416422
1.3069403714565004
1.2961876832844574
1.29227761485826
1.3020527859237536
1.3294232649071358
1.380254154447703
1.458455522971652
1.5650048875855327
1.6989247311827955
1.855327468230694
2.0019550342130987
2.1436950146627565
2.303030303030303
2.4604105571847508
2.606060606060606
2.732160312805474
2.8367546432062563
2.918866080156403
2.979472140762464
3.0234604105571847
3.053763440860215
3.0684261974584555
3.070381231671554
3.060606060606061
3.042033235581622
3.01564027370479
2.9804496578690127
2.936461388074292
2.884652981427175
2.8260019550342133
2.760508308895406
2.689149560117302
2.613880742913001
2.535679374389052
2.4565004887585533
2.3851417399804498
2.320625610948192
2.254154447702835
2.189638318670577
2.126099706744868
2.0664711632453567
2.010752688172043
1.9618768328445748
1.9188660801564028
1.8807429130009776
1.847507331378299
1.8191593352883677
1.7947214076246334
1.7771260997067448
1.7624633431085044
1.7468230694037146
1.7302052785923754
1.710654936461388
1.6920821114369502
1.6735092864125125
1.653958944281525
1.6314760508308896
1.6099706744868034
1.5913978494623655
1.5747800586510263
1.563049853372434
1.5532746823069403
1.5405669599217986
1.5268817204301075
1.512218963831867
1.4965786901270772
1.478983382209189
1.4613880742913
1.4428152492668622
1.4242424242424243
1.404692082111437
1.3822091886608017
1.3607038123167154
1.3479960899315735
1.3401759530791788
1.3372434017595307
1.3450635386119256
1.3714565004887584
1.423264907135875
1.5034213098729228
1.611925708699902
1.7468230694037146
1.902248289345064
2.069403714565005
2.2404692082111435
2.386119257086999
2.5112414467253177
2.6392961876832843
2.7565982404692084
2.857282502443793
2.941348973607038
3.006842619745845
3.0547409579667644
3.088954056695992
3.10752688172043
3.1114369501466275
3.102639296187683
3.083088954056696
3.0547409579667644
3.0195503421309877
2.975562072336266
2.9237536656891496
2.865102639296188
2.798631476050831
2.727272727272727
2.652003910068426
2.5747800586510263
2.496578690127077
2.418377321603128
2.343108504398827
2.27761485826002
2.219941348973607
2.161290322580645
2.1055718475073317
2.053763440860215
2.006842619745845
1.967741935483871
1.935483870967742
1.906158357771261
1.878787878787879
1.8543499511241448
1.8328445747800584
1.8162267839687196
1.8005865102639296
1.7810361681329423
1.7605083088954057
1.7380254154447703
1.7165200391006843
1.6959921798631477
1.6735092864125125
1.6500488758553276
1.6265884652981428
1.6050830889540566
1.58455522971652
1.5650048875855327
1.5493646138807429
1.4887585532746823
1.4007820136852396
1.3450635386119256
1.3020527859237536
1.262952101661779
1.2238514173998043
1.1857282502443791
1.1505376344086022
1.1192570869990224
1.0957966764418376
1.0811339198435972
1.078201368523949
1.088954056695992
1.1143695014662756
1.1583577712609971
1.227761485826002
1.324535679374389
1.4467253176930597
1.5913978494623655
1.75366568914956
1.9266862170087975
2.101661779081134
2.271749755620724
2.4271749755620724
2.5464320625610948
2.6402737047898337
2.727272727272727
2.80058651026393
2.859237536656892
2.9012707722385143
2.9286412512218964
2.941348973607038
2.941348973607038
2.9315738025415445
2.9120234604105573
2.8836754643206257
2.8484848484848486
2.806451612903226
2.755620723362659
2.6989247311827955
2.634408602150537
2.563049853372434
2.4858260019550342
2.4056695992179864
2.3255131964809386
2.247311827956989
2.172043010752688
2.1006842619745845
2.0332355816226784
1.9775171065493649
1.9286412512218964
1.8797653958944285
1.8347996089931573
1.7947214076246334
1.758553274682307
1.726295210166178
1.696969696969697
1.6695992179863148
1.643206256109482
1.6187683284457477
1.595307917888563
1.576735092864125
1.560117302052786
1.541544477028348
1.521994134897361
1.5024437927663734
1.479960899315738
1.455522971652004
1.43108504398827
1.4076246334310851
1.3851417399804498
1.3607038123167154
1.335288367546432
1.310850439882698
1.29227761485826
1.2766373411534702
1.2570869990224829
1.2336265884652982
1.209188660801564
1.18475073313783
1.1612903225806452
1.1378299120234605
1.1163245356793745
1.0977517106549364
1.0869990224828934
1.0879765395894427
1.1026392961876832
1.133919843597263
1.1896383186705768
1.273704789833822
1.388074291300098
1.5278592375366569
1.689149560117302
1.8631476050830889
2.042033235581622
2.2170087976539588
2.3792766373411536
2.5239491691104594
2.64613880742913
2.7331378299120237
2.795698924731183
2.849462365591398
2.889540566959922
2.9159335288367547
2.929618768328446
2.930596285434995
2.920821114369501
2.903225806451613
2.875855327468231
2.8377321603128056
2.789833822091887
2.7370478983382207
2.679374389051808
2.6099706744868034
2.533724340175953
2.453567937438905
2.3714565004887587
2.291300097751711
2.2160312805474094
2.1436950146627565
2.074291300097752
2.007820136852395
1.945259042033236
1.889540566959922
1.8435972629521016
1.804496578690127
1.7663734115347018
1.732160312805474
1.7018572825024438
1.6744868035190617
1.651026392961877
1.6285434995112416
1.606060606060606
1.5835777126099706
1.5610948191593352
1.5376344086021505
1.5180840664711632
1.499511241446725
1.47702834799609
1.452590420332356
1.4281524926686218
1.404692082111437
1.380254154447703
1.3528836754643203
1.3235581622678396
1.295210166177908
1.2668621700879763
1.2375366568914956
1.2082111436950147
1.18475073313783
1.166177908113392
1.142717497556207
1.115347018572825
1.0879765395894427
1.0606060606060606
1.0342130987292275
1.0097751710654936
0.9912023460410556
0.9824046920821116
0.9912023460410556
1.0234604105571847
1.0733137829912025
1.144672531769306
1.252199413489736
1.3900293255131966
1.5513196480938416
1.7282502443792769
1.9130009775171064
2.0948191593352883
2.2658846529814274
2.419354838709677
2.5513196480938416
2.659824046920821
2.7468230694037143
2.8044965786901277
2.841642228739003
2.870967741935484
2.889540566959922
2.8963831867057674
2.8905180840664717
2.8729227761485827
2.843597262952102
2.803519061583578
2.7546432062561097
2.697947214076246
2.635386119257087
2.573802541544477
2.5112414467253177
2.439882697947214
2.360703812316716
2.2766373411534704
2.193548387096774
2.113391984359726
2.0391006842619745
1.970674486803519
1.9090909090909087
1.855327468230694
1.8064516129032255
1.7624633431085044
1.7253176930596286
1.6911045943304008
1.6549364613880744
1.6177908113391983
1.581622678396872
1.5493646138807429
1.5239491691104594
1.504398826979472
1.4897360703812317
1.479960899315738
1.4721407624633431
1.4633431085043989
1.456500488758553
1.447702834799609
1.434017595307918
1.4173998044965788
1.3978494623655917
1.3763440860215057
1.3548387096774193
1.332355816226784
1.310850439882698
1.2903225806451613
1.270772238514174
1.2512218963831867
1.2346041055718475
1.2189638318670577
1.1974584555229717
1.1730205278592376
1.147605083088954
1.1241446725317692
1.1016617790811338
1.0850439882697946
1.0791788856304985
1.0918866080156402
1.1280547409579669
1.1915933528836755
1.2854349951124144
1.388074291300098
1.5034213098729228
1.6490713587487782
1.8162267839687196
1.9931573802541545
2.1710654936461387
2.3391984359726297
2.489736070381232
2.619745845552297
2.727272727272727
2.811339198435973
2.8719452590420333
2.906158357771261
2.921798631476051
2.930596285434995
2.929618768328446
2.918866080156403
2.898338220918866
2.868035190615836
2.8269794721407626
2.7869012707722387
2.7438905180840663
2.6852394916911044
2.6158357771261
2.539589442815249
2.4682306940371457
2.3978494623655915
2.321603128054741
2.243401759530792
2.167155425219941
2.0928641251221896
2.0234604105571847
1.9608993157380252
1.905180840664712
1.8563049853372435
1.8142717497556209
1.7781036168132942
1.750733137829912
1.7272727272727273
1.704789833822092
1.6842619745845553
1.6666666666666667
1.651026392961877
1.6334310850439884
1.6129032258064515
1.5913978494623655
1.5708699902248289
1.5493646138807429
1.5278592375366569
1.5053763440860215
1.4868035190615836
1.469208211143695
1.447702834799609
1.426197458455523
1.4037145650048877
1.3812316715542523
1.3577712609970674
1.3343108504398826
1.3118279569892473
1.2873900293255132
1.2619745845552297
1.2355816226783969
1.2160312805474096
1.2003910068426198
1.1808406647116323
1.1612903225806452
1.142717497556207
1.1300097751710656
1.1290322580645162
1.147605083088954
1.1896383186705768
1.260019550342131
1.3616813294232648
1.4926686217008798
1.6480938416422288
1.7976539589442817
1.945259042033236
2.113391984359726
2.286412512218964
2.450635386119257
2.60019550342131
2.730205278592375
2.838709677419355
2.9266862170087977
2.994134897360704
3.043010752688172
3.075268817204301
3.0869990224828934
3.083088954056696
3.071358748778104
3.0498533724340176
3.0195503421309877
2.9804496578690127
2.9315738025415445
2.873900293255132
2.809384164222874
2.739980449657869
2.664711632453568
2.58455522971652
2.5004887585532747
2.4242424242424243
2.3528836754643208
2.27761485826002
2.2023460410557183
2.1300097751710654
2.064516129032258
2.004887585532747
1.9530791788856303
1.9090909090909087
1.870967741935484
1.836754643206256
1.8064516129032255
1.7820136852394917
1.7605083088954057
1.7360703812316716
1.7126099706744868
1.6901270772238517
1.667644183773216
1.6451612903225807
1.6226783968719452
1.598240469208211
1.5708699902248289
1.541544477028348
1.5083088954056696
1.4750733137829912
1.4486803519061584
1.4281524926686218
1.4086021505376345
1.391006842619746
1.3743890518084063
1.359726295210166
1.346041055718475
1.332355816226784
1.3176930596285434
1.3010752688172045
1.281524926686217
1.2590420332355816
1.241446725317693
1.227761485826002
1.2140762463343109
1.2072336265884651
1.2140762463343109
1.2434017595307918
1.2991202346041055
1.3841642228739004
1.499511241446725
1.6422287390029326
1.8064516129032255
1.9853372434017595
2.1700879765395893
2.329423264907136
2.4711632453567938
2.6177908113391983
2.755620723362659
2.87683284457478
2.978494623655914
3.0576735092864125
3.115347018572825
3.15347018572825
3.174975562072336
3.1808406647116323
3.1739980449657867
3.155425219941349
3.126099706744868
3.088954056695992
3.0439882697947214
2.991202346041056
2.930596285434995
2.8641251221896384
2.791788856304985
2.7155425219941347
2.636363636363636
2.5532746823069403
2.469208211143695
2.3870967741935485
2.3167155425219943
2.2531769305962857
2.188660801564027
2.1270772238514173
2.070381231671554
2.0195503421309877
1.9726295210166176
1.9305962854349952
1.8934506353861196
1.8592375366568916
1.828934506353861
1.804496578690127
1.7859237536656891
1.7673509286412512
1.7448680351906158
1.7204301075268815
1.6959921798631477
1.672531769305963
1.6500488758553276
1.6265884652981428
1.6041055718475072
1.581622678396872
1.5591397849462365
1.5356793743890518
1.5151515151515151
1.4965786901270772
1.4731182795698925
1.4467253176930597
1.4203323558162269
1.393939393939394
1.3665689149560116
1.3391984359726294
1.3118279569892473
1.284457478005865
1.2561094819159335
1.2297165200391007
1.2082111436950147
1.1974584555229717
1.1974584555229717
1.2111436950146628
1.24633431085044
1.3098729227761483
1.404692082111437
1.5298142717497556
1.6813294232649072
1.8514173998044965
2.0332355816226784
2.2170087976539588
2.3958944281524928
2.541544477028348
2.66177908113392
2.780058651026393
2.887585532746823
2.978494623655914
3.0498533724340176
3.104594330400782
3.142717497556207
3.1652003910068425
3.175953079178885
3.1730205278592374
3.156402737047898
3.1280547409579667
3.090909090909091
3.046920821114369
2.994134897360704
2.932551319648094
2.8641251221896384
2.789833822091887
2.7116324535679373
2.6295210166177907
2.544477028347996
2.4594330400782014
2.375366568914956
2.29227761485826
2.2218963831867056
2.160312805474096
2.0977517106549364
2.0391006842619745
1.9843597262952104
1.9345063538611929
1.889540566959922
1.8484848484848484
1.812316715542522
1.7810361681329423
1.7497556207233629
1.7194525904203324
1.6920821114369502
1.6695992179863148
1.6480938416422288
1.6226783968719452
1.5943304007820136
1.565982404692082
1.5386119257087
1.512218963831867
1.4858260019550342
1.4594330400782014
1.4320625610948192
1.4027370478983383
1.3734115347018572
1.348973607038123
1.3284457478005864
1.2756598240469208
1.2082111436950147
1.1612903225806452
1.1251221896383188
1.0957966764418376
1.0703812316715542
1.04594330400782
1.021505376344086
0.9990224828934506
0.981427174975562
0.9736070381231672
0.9794721407624634
1.0009775171065494
1.0449657869012707
1.118279569892473
1.2228739002932552
1.3577712609970674
1.5180840664711632
1.6959921798631477
1.8826979472140764
2.0684261974584555
2.24633431085044
2.407624633431085
2.530791788856305
2.625610948191593
2.7126099706744866
2.7859237536656893
2.8426197458455524
2.8836754643206257
2.9120234604105573
2.9257086999022484
2.9266862170087977
2.9149560117302054
2.8914956011730206
2.8582600195503423
2.8152492668621703
2.7673509286412514
2.7145650048875853
2.652003910068426
2.5806451612903225
2.5024437927663734
2.418377321603128
2.332355816226784
2.2453567937438903
2.161290322580645
2.0821114369501466
2.007820136852395
1.9403714565004888
1.8866080156402736
1.8416422287390029
1.7986314760508308
1.758553274682307
1.7204301075268815
1.686217008797654
1.656891495601173
1.629521016617791
1.603128054740958
1.576735092864125
1.552297165200391
1.5288367546432062
1.5053763440860215
1.4848484848484849
1.4643206256109482
1.4408602150537635
1.4164222873900294
1.391006842619746
1.3655913978494625
1.3401759530791788
1.3157380254154447
1.29227761485826
1.267839687194526
1.241446725317693
1.2150537634408602
1.1945259042033236
1.176930596285435
1.155425219941349
1.1319648093841643
1.1085043988269794
1.0850439882697946
1.0606060606060606
1.035190615835777
1.010752688172043
0.989247311827957
0.975562072336266
0.9775171065493646
1.0
1.0381231671554252
1.0987292277614855
1.1935483870967742
1.3196480938416422
1.4721407624633431
1.7360703812316716
1.9227761485826005
2.10752688172043
2.441837732160313
2.582600195503421
2.695014662756598
2.8103616813294234
2.8699902248289346
2.9159335288367547
2.946236559139785
2.961876832844575
2.964809384164223
2.956011730205278
2.935483870967742
2.886608015640274
2.843597262952102
2.791788856304985
2.7038123167155423
2.6402737047898337
2.567937438905181
2.4887585532746823
2.363636363636364
2.280547409579668
2.198435972629521
2.081133919843597
2.0087976539589443
1.943304007820137
1.8836754643206255
1.8347996089931573
1.793743890518084
1.7546432062561097
1.7165200391006843
1.6803519061583578
1.6480938416422288
1.619745845552297
1.5923753665689149
1.565982404692082
1.5395894428152492
1.512218963831867
1.4838709677419355
1.4535679374389052
1.4281524926686218
1.4037145650048877
1.3743890518084063
1.3421309872922775
1.305962854349951
1.2658846529814272
1.2228739002932552
1.1779081133919844
1.1329423264907137
1.088954056695992
1.0449657869012707
1.0009775171065494
0.9657869012707724
0.935483870967742
0.9002932551319648
0.8641251221896383
0.8269794721407625
0.7908113391984359
0.7575757575757576
0.7302052785923754
0.7126099706744868
0.7116324535679375
0.7321603128054741
0.7810361681329423
0.8484848484848485
0.9393939393939394
1.0684261974584557
1.227761485826002
1.4086021505376345
1.6021505376344083
1.7976539589442817
1.9872922776148585
2.1652003910068425
2.324535679374389
2.462365591397849
2.579667644183773
2.675464320625611
2.739980449657869
2.782991202346041
2.820136852394917
2.8475073313782997
2.86217008797654
2.8641251221896384
2.8533724340175954
2.8299120234604107
2.7966764418377323
2.7536656891495603
2.7008797653958942
2.638318670576735
2.576735092864125
2.5131964809384164
2.4389051808406648
2.358748778103617
2.275659824046921
2.1945259042033234
2.115347018572825
2.040078201368524
1.9696969696969695
1.905180840664712
1.847507331378299
1.796676441837732
1.7546432062561097
1.7223851417399805
1.6959921798631477
1.6715542521994136
1.6480938416422288
1.624633431085044
1.6001955034213098
1.5757575757575757
1.5513196480938416
1.5298142717497556
1.512218963831867
1.4965786901270772
1.4809384164222874
1.469208211143695
1.457478005865103
1.4418377321603129
1.423264907135875
1.404692082111437
1.383186705767351
1.359726295210166
1.335288367546432
1.3098729227761483
1.281524926686217
1.2502443792766371
1.217008797653959
1.18475073313783
1.1612903225806452
1.141739980449658
1.1192570869990224
1.0977517106549364
1.083088954056696
1.0762463343108504
1.0801564027370478
1.099706744868035
1.1397849462365592
1.206256109481916
1.303030303030303
1.4301075268817205
1.5581622678396871
1.6950146627565983
1.86119257086999
2.042033235581622
2.225806451612903
2.4027370478983383
2.5669599217986314
2.713587487781036
2.838709677419355
2.9423264907135875
3.024437927663734
3.0869990224828934
3.1300097751710654
3.1495601173020527
3.15347018572825
3.1515151515151514
3.139784946236559
3.117302052785924
3.0840664711632453
3.042033235581622
2.992179863147605
2.9071358748778104
2.8044965786901277
2.721407624633431
2.6471163245356792
2.581622678396872
2.520039100684262
2.4565004887585533
2.391006842619746
2.326490713587488
2.264907135874878
2.2052785923753664
2.1485826001955037
2.096774193548387
2.0498533724340176
2.007820136852395
1.970674486803519
1.9403714565004888
1.9178885630498532
1.8993157380254155
1.8797653958944285
1.86119257086999
1.842619745845552
1.823069403714565
1.801564027370479
1.780058651026393
1.7595307917888563
1.7390029325513197
1.7174975562072337
1.694037145650049
1.6744868035190617
1.6549364613880744
1.6304985337243405
1.6041055718475072
1.576735092864125
1.5493646138807429
1.5239491691104594
1.5024437927663734
1.482893450635386
1.4623655913978495
1.4408602150537635
1.418377321603128
1.393939393939394
1.3743890518084063
1.356793743890518
1.3372434017595307
1.3196480938416422
1.310850439882698
1.3157380254154447
1.33822091886608
1.3822091886608017
1.4506353861192571
1.543499511241447
1.6588465298142718
1.793743890518084
1.920821114369501
2.0449657869012707
2.1837732160312804
2.32355816226784
2.4565004887585533
2.575757575757576
2.677419354838709
2.760508308895406
2.8269794721407626
2.877810361681329
2.9120234604105573
2.9315738025415445
2.9374389051808407
2.930596285434995
2.913978494623656
2.8905180840664717
2.86217008797654
2.827956989247312
2.787878787878788
2.7419354838709675
2.689149560117302
2.627565982404692
2.560117302052786
2.489736070381232
2.4164222873900294
2.3499511241446727
2.290322580645161
2.2297165200391005
2.1700879765395893
2.113391984359726
2.06158357771261
2.0127077223851417
1.967741935483871
1.9257086999022484
1.8885630498533723
1.8563049853372435
1.828934506353861
1.8035190615835777
1.782991202346041
1.7653958944281525
1.7458455522971652
1.7233626588465298
1.699902248289345
1.6764418377321604
1.6529814271749756
1.6314760508308896
1.6109481915933528
1.590420332355816
1.5698924731182795
1.5493646138807429
1.5327468230694037
1.517106549364614
1.4975562072336266
1.474095796676442
1.447702834799609
1.4213098729227762
1.396871945259042
1.3743890518084063
1.3519061583577712
1.3284457478005864
1.305962854349951
1.2834799608993157
1.2609970674486803
1.2424242424242424
1.2297165200391007
1.2209188660801564
1.2209188660801564
1.238514173998045
1.278592375366569
1.3450635386119256
1.4389051808406648
1.5581622678396871
1.696969696969697
1.8465298142717497
2.0
2.1309872922776147
2.247311827956989
2.367546432062561
2.479960899315738
2.5806451612903225
2.664711632453568
2.732160312805474
2.782991202346041
2.8181818181818183
2.8377321603128056
2.8455522971652005
2.8426197458455524
2.8299120234604107
2.807429130009776
2.779081133919844
2.742913000977517
2.697947214076246
2.6451612903225805
2.5865102639296187
2.5219941348973607
2.452590420332356
2.380254154447703
2.3059628543499517
2.232649071358749
2.161290322580645
2.099706744868035
2.0439882697947214
1.986314760508309
1.9305962854349952
1.878787878787879
1.823069403714565
1.7761485826001957
