ppg
1.270772238514174
1.2639296187683284
1.2580645161290325
1.2561094819159335
1.262952101661779
1.2864125122189638
1.33822091886608
1.4252199413489737
1.5532746823069403
1.721407624633431
1.920821114369501
2.1407624633431084
2.335288367546432
2.5083088954056696
2.687194525904203
2.850439882697948
2.98435972629521
3.083088954056696
3.1485826001955037
3.1808406647116323
3.1847507331378297
3.1622678396871944
3.118279569892473
3.0557184750733137
2.986314760508309
2.911045943304008
2.8240469208211145
2.7282502443792764
2.6265884652981426
2.5210166177908118
2.4134897360703813
2.304985337243402
2.198435972629521
2.0948191593352883
1.994134897360704
1.895405669599218
1.796676441837732
1.7126099706744868
1.6383186705767352
1.560117302052786
1.4838709677419355
1.414467253176931
1.3519061583577712
1.2971652003910068
1.249266862170088
1.209188660801564
1.1749755620723363
1.1466275659824048
1.126099706744868
1.1143695014662756
1.1094819159335287
1.10752688172043
1.10752688172043
1.110459433040078
1.115347018572825
1.121212121212121
1.1270772238514175
1.133919843597263
1.13880742913001
1.141739980449658
1.142717497556207
1.144672531769306
1.1456500488758554
1.142717497556207
1.1378299120234605
1.1300097751710656
1.121212121212121
1.1133919843597262
1.1036168132942326
1.093841642228739
1.086021505376344
1.0791788856304985
1.072336265884653
1.0664711632453567
1.0635386119257086
1.0606060606060606
1.053763440860215
1.0449657869012707
1.0342130987292275
1.0234604105571847
1.0195503421309873
1.029325513196481
1.06158357771261
1.1241446725317692
1.2238514173998043
1.3636363636363635
1.5102639296187683
1.667644183773216
1.8602150537634408
2.067448680351906
2.269794721407625
2.452590420332356
2.6080156402737047
2.730205278592375
2.817204301075269
2.8699902248289346
2.8905180840664717
2.8826979472140764
2.850439882697948
2.803519061583578
2.7438905180840663
2.670576735092864
2.587487781036168
2.496578690127077
2.401759530791789
2.304985337243402
2.206256109481916
2.10752688172043
2.007820136852395
1.906158357771261
1.804496578690127
1.7174975562072337
1.6392961876832846
1.555229716520039
1.4711632453567938
1.3919843597262953
1.3206256109481915
1.2570869990224829
1.2013685239491692
1.1544477028347997
1.1173020527859236
1.088954056695992
1.067448680351906
1.053763440860215
1.0488758553274682
1.0498533724340176
1.0527859237536656
1.0586510263929618
1.0684261974584557
1.0811339198435972
1.0957966764418376
1.10752688172043
1.1192570869990224
1.1300097751710656
1.13880742913001
1.1466275659824048
1.1534701857282503
1.1583577712609971
1.1583577712609971
1.1544477028347997
1.147605083088954
1.1378299120234605
1.126099706744868
1.115347018572825
1.104594330400782
1.0948191593352885
1.0840664711632453
1.072336265884653
1.06158357771261
1.053763440860215
1.0488758553274682
1.0420332355816226
1.035190615835777
1.0283479960899315
1.0205278592375366
1.013685239491691
1.0127077223851415
1.024437927663734
1.0557184750733135
1.115347018572825
1.2121212121212122
1.3235581622678396
1.455522971652004
1.6304985337243405
1.8318670576735088
2.0439882697947214
2.251221896383187
2.439882697947214
2.5992179863147604
2.724340175953079
2.8132942326490715
2.8670576735092865
2.889540566959922
2.8856304985337244
2.8611925708699903
2.820136852394917
2.7624633431085046
2.6930596285435
2.6148582600195502
2.527859237536657
2.4349951124144678
2.3362658846529816
2.2346041055718477
2.1300097751710654
2.024437927663734
1.9188660801564028
1.8269794721407624
1.7438905180840665
1.6559139784946235
1.565982404692082
1.478983382209189
1.3988269794721409
1.3284457478005864
1.267839687194526
1.217008797653959
1.1749755620723363
1.141739980449658
1.1173020527859236
1.0987292277614855
1.088954056695992
1.086021505376344
1.0850439882697946
1.0879765395894427
1.096774193548387
1.1085043988269794
1.121212121212121
1.1358748778103618
1.152492668621701
1.1671554252199414
1.1798631476050832
1.1896383186705768
1.198435972629521
1.2072336265884651
1.2130987292277615
1.2160312805474096
1.217008797653959
1.2150537634408602
1.2101661779081134
1.203323558162268
1.1925708699902249
1.1808406647116323
1.1681329423264908
1.152492668621701
1.1368523949169111
1.1251221896383188
1.1163245356793745
1.10752688172043
1.0987292277614855
1.0918866080156402
1.0811339198435972
1.0694037145650048
1.0625610948191593
1.06158357771261
1.0713587487781036
1.099706744868035
1.1534701857282503
1.2228739002932552
1.3128054740957966
1.4437927663734116
1.607038123167155
1.790811339198436
1.9833822091886608
2.1700879765395893
2.3391984359726297
2.4838709677419355
2.598240469208211
2.681329423264907
2.732160312805474
2.752688172043011
2.748778103616813
2.727272727272727
2.689149560117302
2.636363636363636
2.5718475073313782
2.4995112414467253
2.420332355816227
2.3362658846529816
2.2482893450635384
2.157380254154448
2.064516129032258
1.9696969696969695
1.884652981427175
1.8025415444770283
1.7135874877810362
1.6226783968719452
1.533724340175953
1.4486803519061584
1.367546432062561
1.295210166177908
1.23069403714565
1.1749755620723363
1.1300097751710656
1.0948191593352885
1.072336265884653
1.0596285434995112
1.0518084066471165
1.0498533724340176
1.0518084066471165
1.0596285434995112
1.0713587487781036
1.0869990224828934
1.1036168132942326
1.1192570869990224
1.133919843597263
1.147605083088954
1.160312805474096
1.1710654936461389
1.1798631476050832
1.1867057673509287
1.1915933528836755
1.195503421309873
1.1964809384164223
1.195503421309873
1.1925708699902249
1.187683284457478
1.1827956989247312
1.1749755620723363
1.1671554252199414
1.1612903225806452
1.1564027370478984
1.1515151515151516
1.1456500488758554
1.1397849462365592
1.133919843597263
1.1280547409579669
1.121212121212121
1.1163245356793745
1.1163245356793745
1.1251221896383188
1.147605083088954
1.1945259042033236
1.2551319648093842
1.33822091886608
1.4643206256109482
1.6265884652981428
1.8172043010752688
2.024437927663734
2.232649071358749
2.429130009775171
2.603128054740958
2.745845552297165
2.855327468230694
2.929618768328446
2.9657869012707723
2.9716520039100685
2.9589442815249267
2.9266862170087977
2.87683284457478
2.812316715542522
2.73802541544477
2.654936461388074
2.565982404692082
2.472140762463343
2.376344086021505
2.2795698924731185
2.182795698924731
2.0957966764418376
2.0146627565982405
1.9266862170087975
1.836754643206256
1.747800586510264
1.66177908113392
1.5806451612903225
1.5034213098729228
1.4320625610948192
1.3685239491691104
1.3128054740957966
1.2649071358748778
1.23069403714565
1.206256109481916
1.1857282502443791
1.1700879765395895
1.160312805474096
1.155425219941349
1.155425219941349
1.1583577712609971
1.164222873900293
1.1730205278592376
1.1808406647116323
1.187683284457478
1.1925708699902249
1.1974584555229717
1.2023460410557183
1.2043010752688172
1.203323558162268
1.2013685239491692
1.1994134897360704
1.1964809384164223
1.1925708699902249
1.187683284457478
1.1808406647116323
1.1710654936461389
1.160312805474096
1.1515151515151516
1.1436950146627567
1.133919843597263
1.1231671554252198
1.1124144672531768
1.1016617790811338
1.0918866080156402
1.0821114369501466
1.0733137829912025
1.064516129032258
1.0606060606060606
1.0654936461388074
1.0850439882697946
1.118279569892473
1.1730205278592376
1.2649071358748778
1.392961876832845
1.5532746823069403
1.7390029325513197
1.9364613880742916
2.132942326490713
2.315738025415445
2.4731182795698925
2.60019550342131
2.6940371456500487
2.748778103616813
2.7722385141739982
2.7751710654936463
2.7565982404692084
2.718475073313783
2.6637341153470184
2.5962854349951123
2.5190615835777126
2.4349951124144678
2.345063538611926
2.2521994134897363
2.158357771260997
2.0625610948191597
1.9765395894428155
1.8963831867057677
1.8084066471163245
1.7194525904203324
1.632453567937439
1.5493646138807429
1.4701857282502444
1.3949169110459434
1.324535679374389
1.2609970674486803
1.2043010752688172
1.155425219941349
1.1202346041055715
1.0948191593352885
1.0703812316715542
1.0488758553274682
1.0332355816226784
1.0224828934506354
1.0166177908113392
1.0166177908113392
1.021505376344086
1.0283479960899315
1.0371456500488758
1.04594330400782
1.0547409579667644
1.064516129032258
1.075268817204301
1.0840664711632453
1.0899315738025417
1.0928641251221896
1.093841642228739
1.0918866080156402
1.0869990224828934
1.0801564027370478
1.072336265884653
1.0635386119257086
1.0547409579667644
1.0488758553274682
1.04594330400782
1.0420332355816226
1.0371456500488758
1.0332355816226784
1.0303030303030305
1.0263929618768328
1.0205278592375366
1.0127077223851415
1.0039100684261977
0.9960899315738024
0.9912023460410556
0.9951124144672532
1.0097751710654936
1.0410557184750733
1.1016617790811338
1.198435972629521
1.332355816226784
1.498533724340176
1.689149560117302
1.8905180840664717
2.088954056695992
2.271749755620724
2.4281524926686218
2.552297165200391
2.635386119257087
2.684261974584555
2.7126099706744866
2.718475073313783
2.701857282502444
2.664711632453568
2.611925708699902
2.5464320625610948
2.4711632453567938
2.3870967741935485
2.300097751710655
2.210166177908113
2.1300097751710654
2.0547409579667644
1.9726295210166176
1.8875855327468232
1.801564027370479
1.715542521994135
1.6304985337243405
1.5483870967741935
1.4701857282502444
1.396871945259042
1.3284457478005864
1.2658846529814272
1.2111436950146628
1.1700879765395895
1.13880742913001
1.110459433040078
1.0879765395894427
1.0713587487781036
1.06158357771261
1.0586510263929618
1.06158357771261
1.0703812316715542
1.0850439882697946
1.1026392961876832
1.1192570869990224
1.1329423264907137
1.1466275659824048
1.1573802541544478
1.1652003910068427
1.1700879765395895
1.1710654936461389
1.1700879765395895
1.166177908113392
1.1612903225806452
1.1544477028347997
1.144672531769306
1.133919843597263
1.1231671554252198
1.1163245356793745
1.1114369501466277
1.1036168132942326
1.0957966764418376
1.0869990224828934
1.078201368523949
1.0694037145650048
1.0606060606060606
1.050830889540567
1.0420332355816226
1.032258064516129
1.024437927663734
1.0224828934506354
1.0273704789833822
1.0449657869012707
1.0840664711632453
1.1534701857282503
1.2570869990224829
1.3949169110459434
1.5620723362658846
1.7487781036168133
1.9442815249266865
2.132942326490713
2.303030303030303
2.44672531769306
2.548387096774193
2.616813294232649
2.668621700879765
2.696969696969697
2.7008797653958942
2.6823069403714563
2.644183773216031
2.589442815249267
2.52297165200391
2.447702834799609
2.366568914956012
2.280547409579668
2.20039100684262
2.1221896383186705
2.0361681329423265
1.9472140762463344
1.857282502443793
1.7663734115347018
1.6774193548387095
1.5913978494623655
1.509286412512219
1.4320625610948192
1.3587487781036167
1.29227761485826
1.2346041055718475
1.1906158357771262
1.1564027370478984
1.126099706744868
1.1016617790811338
1.0850439882697946
1.075268817204301
1.0713587487781036
1.0742913000977516
1.0821114369501466
1.0948191593352885
1.110459433040078
1.1290322580645162
1.1485826001955035
1.1681329423264908
1.187683284457478
1.2052785923753666
1.219941348973607
1.23069403714565
1.238514173998045
1.2424242424242424
1.2424242424242424
1.2404692082111437
1.2355816226783969
1.2287390029325511
1.2209188660801564
1.2150537634408602
1.2101661779081134
1.2043010752688172
1.198435972629521
1.1925708699902249
1.1867057673509287
1.1808406647116323
1.1759530791788857
1.1730205278592376
1.1700879765395895
1.1681329423264908
1.1681329423264908
1.173998044965787
1.187683284457478
1.2179863147605083
1.2717497556207231
1.3558162267839686
1.474095796676442
1.6265884652981428
1.8074291300097751
2.005865102639296
2.2082111436950145
2.401759530791789
2.5747800586510263
2.718475073313783
2.81622678396872
2.878787878787879
2.9227761485826003
2.941348973607038
2.935483870967742
2.9071358748778104
2.859237536656892
2.7976539589442817
2.7253176930596283
2.6451612903225805
2.560117302052786
2.4711632453567938
2.388074291300098
2.3069403714565007
2.2170087976539588
2.1221896383186705
2.0254154447702835
1.9286412512218964
1.833822091886608
1.7409579667644184
1.6520039100684265
1.5698924731182795
1.495601173020528
1.4271749755620724
1.3665689149560116
1.3196480938416422
1.281524926686217
1.2453567937438903
1.2140762463343109
1.1886608015640274
1.1691104594330402
1.1544477028347997
1.1436950146627567
1.1368523949169111
1.1329423264907137
1.1329423264907137
1.1358748778103618
1.1407624633431086
1.1466275659824048
1.1534701857282503
1.1583577712609971
1.160312805474096
1.1612903225806452
1.1612903225806452
1.1593352883675463
1.1544477028347997
1.147605083088954
1.1378299120234605
1.1270772238514175
1.1163245356793745
1.1094819159335287
1.104594330400782
1.0977517106549364
1.0899315738025417
1.0811339198435972
1.072336265884653
1.0635386119257086
1.056695992179863
1.0488758553274682
1.0410557184750733
1.032258064516129
1.024437927663734
1.0224828934506354
1.0273704789833822
1.0449657869012707
1.083088954056696
1.1505376344086022
1.252199413489736
1.388074291300098
1.5532746823069403
1.739980449657869
1.935483870967742
2.124144672531769
2.2961876832844577
2.441837732160313
2.544477028347996
2.6129032258064515
2.664711632453568
2.6911045943304006
2.6930596285435
2.673509286412512
2.634408602150537
2.578690127077224
2.5112414467253177
2.4349951124144678
2.3519061583577714
2.2629521016617797
2.1808406647116323
2.101661779081134
2.0146627565982405
1.9237536656891496
1.8318670576735088
1.7390029325513197
1.64613880742913
1.555229716520039
1.469208211143695
1.3870967741935485
1.3098729227761483
1.2394916911045943
1.1837732160312806
1.1397849462365592
1.0977517106549364
1.06158357771261
1.032258064516129
1.0097751710654936
0.9941348973607038
0.9853372434017597
0.981427174975562
0.981427174975562
0.9863147605083088
0.9960899315738024
1.007820136852395
1.0205278592375366
1.0332355816226784
1.0449657869012707
1.0557184750733135
1.0654936461388074
1.0733137829912025
1.0850439882697946
1.0987292277614855
1.1065493646138806
1.1114369501466277
1.1133919843597262
1.1114369501466277
1.1085043988269794
1.104594330400782
1.0957966764418376
1.0840664711632453
1.0703812316715542
1.056695992179863
1.0439882697947214
1.032258064516129
1.0234604105571847
1.0166177908113392
1.0117302052785924
1.007820136852395
1.0058651026392962
1.007820136852395
1.0156402737047898
1.032258064516129
1.067448680351906
1.1300097751710656
1.227761485826002
1.3607038123167154
1.525904203323558
1.710654936461388
1.903225806451613
2.0928641251221896
2.2668621700879767
2.39980449657869
2.501466275659824
2.589442815249267
2.654936461388074
2.695014662756598
2.708699902248289
2.696969696969697
2.662756598240469
2.6099706744868034
2.544477028347996
2.4711632453567938
2.3900293255131966
2.304985337243402
2.2267839687194524
2.1515151515151514
2.0684261974584555
1.981427174975562
1.8914956011730208
1.801564027370479
1.7126099706744868
1.6265884652981428
1.543499511241447
1.4643206256109482
1.391006842619746
1.324535679374389
1.2727272727272727
1.23069403714565
1.1896383186705768
1.1534701857282503
1.1231671554252198
1.099706744868035
1.083088954056696
1.0733137829912025
1.0703812316715542
1.072336265884653
1.0801564027370478
1.0918866080156402
1.104594330400782
1.118279569892473
1.130987292277615
1.1436950146627567
1.1544477028347997
1.163245356793744
1.1691104594330402
1.1720430107526882
1.1720430107526882
1.1691104594330402
1.164222873900293
1.1583577712609971
1.1515151515151516
1.144672531769306
1.13880742913001
1.130987292277615
1.1241446725317692
1.118279569892473
1.1114369501466277
1.104594330400782
1.0987292277614855
1.0918866080156402
1.0850439882697946
1.0772238514173995
1.0684261974584557
1.0606060606060606
1.0586510263929618
1.0635386119257086
1.0801564027370478
1.1163245356793745
1.1798631476050832
1.2776148582600195
1.409579667644184
1.5718475073313782
1.7556207233626588
1.949169110459433
2.1388074291300097
2.312805474095797
2.44672531769306
2.547409579667644
2.634408602150537
2.696969696969697
2.7331378299120237
2.7438905180840663
2.732160312805474
2.7008797653958942
2.654936461388074
2.595307917888563
2.525904203323558
2.4486803519061584
2.3655913978494625
2.2873900293255134
2.209188660801564
2.12316715542522
2.032258064516129
1.9393939393939397
1.8455522971652003
1.750733137829912
1.656891495601173
1.5669599217986314
1.4819159335288368
1.4037145650048877
1.3333333333333333
1.278592375366569
1.2355816226783969
1.195503421309873
1.1612903225806452
1.1348973607038124
1.115347018572825
1.1036168132942326
1.0987292277614855
1.0987292277614855
1.104594330400782
1.1143695014662756
1.126099706744868
1.1378299120234605
1.1505376344086022
1.1612903225806452
1.1700879765395895
1.1788856304985338
1.1857282502443791
1.1925708699902249
1.1994134897360704
1.2052785923753666
1.2101661779081134
1.2121212121212122
1.2121212121212122
1.209188660801564
1.206256109481916
1.203323558162268
1.1964809384164223
1.1867057673509287
1.1759530791788857
1.1652003910068427
1.155425219941349
1.1466275659824048
1.1397849462365592
1.1348973607038124
1.1300097751710656
1.1251221896383188
1.1221896383186705
1.1241446725317692
1.1319648093841643
1.1544477028347997
1.2003910068426198
1.2776148582600195
1.391006842619746
1.5395894428152492
1.7165200391006843
1.9120234604105573
2.112414467253177
2.304007820136853
2.47702834799609
2.606060606060606
2.6989247311827955
2.7751710654936463
2.8260019550342133
2.8484848484848486
2.8455522971652005
2.820136852394917
2.7751710654936463
2.713587487781036
2.6402737047898337
2.558162267839687
2.4711632453567938
2.3812316715542523
2.2981427174975564
2.2170087976539588
2.1280547409579667
2.037145650048876
1.946236559139785
1.8543499511241448
1.7634408602150538
1.6744868035190617
1.5884652981427174
1.5073313782991202
1.4320625610948192
1.3636363636363635
1.3098729227761483
1.267839687194526
1.227761485826002
1.1935483870967742
1.1671554252199414
1.1495601173020529
1.1397849462365592
1.1368523949169111
1.1407624633431086
1.1495601173020529
1.1622678396871946
1.1779081133919844
1.1935483870967742
1.209188660801564
1.224828934506354
1.238514173998045
1.2502443792766371
1.2609970674486803
1.270772238514174
1.278592375366569
1.284457478005865
1.2883675464320623
1.289345063538612
1.2873900293255132
1.2854349951124144
1.2834799608993157
1.2805474095796676
1.2746823069403714
1.2668621700879763
1.2580645161290325
1.249266862170088
1.241446725317693
1.2346041055718475
1.227761485826002
1.219941348973607
1.2111436950146628
1.203323558162268
1.1994134897360704
1.2023460410557183
1.217008797653959
1.252199413489736
1.316715542521994
1.41544477028348
1.5493646138807429
1.7135874877810362
1.8983382209188664
2.088954056695992
2.274682306940372
2.442815249266862
2.5855327468230693
2.713587487781036
2.823069403714565
2.8944281524926687
2.9315738025415445
2.9374389051808407
2.9159335288367547
2.870967741935484
2.807429130009776
2.730205278592375
2.6422287390029324
2.547409579667644
2.4486803519061584
2.358748778103617
2.2737047898338223
2.1818181818181817
2.0869990224828934
1.992179863147605
1.895405669599218
1.7986314760508308
1.7028347996089932
1.6099706744868034
1.520039100684262
1.4349951124144673
1.3577712609970674
1.2883675464320623
1.2336265884652982
1.1906158357771262
1.1495601173020529
1.1114369501466277
1.0801564027370478
1.056695992179863
1.0391006842619743
1.0263929618768328
1.0195503421309873
1.0175953079178883
1.0205278592375366
1.0254154447702837
1.0342130987292275
1.0439882697947214
1.053763440860215
1.0635386119257086
1.0733137829912025
1.083088954056696
1.0928641251221896
1.1006842619745845
1.1055718475073313
1.10752688172043
1.1055718475073313
1.1006842619745845
1.093841642228739
1.0879765395894427
1.083088954056696
1.0733137829912025
1.06158357771261
1.050830889540567
1.0410557184750733
1.032258064516129
1.024437927663734
1.0166177908113392
1.0097751710654936
1.0039100684261977
1.0
1.0019550342130987
1.0117302052785924
1.0332355816226784
1.0772238514173995
1.152492668621701
1.2639296187683284
1.412512218963832
1.5933528836754642
1.796676441837732
2.007820136852395
2.2130987292277613
2.398826979472141
2.555229716520039
2.665689149560117
2.73802541544477
2.792766373411535
2.822091886608016
2.8240469208211145
2.8025415444770285
2.7614858260019552
2.701857282502444
2.63049853372434
2.5513196480938416
2.4652981427174976
2.3743890518084068
2.291300097751711
2.209188660801564
2.118279569892473
2.0234604105571847
1.9257086999022484
1.828934506353861
1.7341153470185728
1.643206256109482
1.5571847507331378
1.4750733137829912
1.3988269794721409
1.3304007820136852
1.270772238514174
1.2238514173998043
1.187683284457478
1.1534701857282503
1.1241446725317692
1.1006842619745845
1.083088954056696
1.0713587487781036
1.0654936461388074
1.0654936461388074
1.0694037145650048
1.0772238514173995
1.0879765395894427
1.1016617790811338
1.115347018572825
1.1280547409579669
1.13880742913001
1.147605083088954
1.155425219941349
1.1622678396871946
1.1681329423264908
1.1710654936461389
1.1710654936461389
1.1691104594330402
1.164222873900293
1.155425219941349
1.147605083088954
1.1407624633431086
1.130987292277615
1.1202346041055715
1.1094819159335287
1.099706744868035
1.0899315738025417
1.0811339198435972
1.072336265884653
1.064516129032258
1.0586510263929618
1.053763440860215
1.0547409579667644
1.0654936461388074
1.0918866080156402
1.1436950146627567
1.2297165200391007
1.3519061583577712
1.5102639296187683
1.696969696969697
1.900293255131965
2.1065493646138806
2.302052785923754
2.4750733137829912
2.6177908113391983
2.716520039100684
2.779081133919844
2.8211143695014664
2.8396871945259043
2.835777126099707
2.809384164222874
2.763440860215054
2.701857282502444
2.6285434995112413
2.5464320625610948
2.4594330400782014
2.3685239491691106
2.2844574780058653
2.204301075268817
2.115347018572825
2.0195503421309877
1.9227761485826005
1.825024437927664
1.7282502443792769
1.635386119257087
1.547409579667644
1.4633431085043989
1.3870967741935485
1.3196480938416422
1.2609970674486803
1.217008797653959
1.18475073313783
1.1564027370478984
1.133919843597263
1.1173020527859236
1.1065493646138806
1.1016617790811338
1.1016617790811338
1.1055718475073313
1.1124144672531768
1.121212121212121
1.1319648093841643
1.141739980449658
1.1505376344086022
1.1583577712609971
1.1652003910068427
1.1720430107526882
1.1788856304985338
1.18475073313783
1.1886608015640274
1.1906158357771262
1.1915933528836755
1.1906158357771262
1.1867057673509287
1.1837732160312806
1.1798631476050832
1.1710654936461389
1.160312805474096
1.1495601173020529
1.1397849462365592
1.1300097751710656
1.1192570869990224
1.1085043988269794
1.096774193548387
1.0840664711632453
1.072336265884653
1.0635386119257086
1.0635386119257086
1.0772238514173995
1.1124144672531768
1.1759530791788857
1.2756598240469208
1.412512218963832
1.5835777126099706
1.7790811339198436
1.986314760508309
2.1915933528836757
2.380254154447703
2.5434995112414467
2.6608015640273703
2.7419354838709675
2.803519061583578
2.838709677419355
2.8475073313782997
2.83088954056696
2.792766373411535
2.7370478983382207
2.667644183773216
2.587487781036168
2.498533724340176
2.404692082111437
2.30791788856305
2.220918866080156
2.1388074291300097
2.0498533724340176
1.9589442815249267
1.8670576735092863
1.7741935483870968
1.6823069403714566
1.5923753665689149
1.5063538611925709
1.426197458455523
1.3519061583577712
1.2864125122189638
1.2365591397849462
1.1994134897360704
1.1652003910068427
1.1378299120234605
