ppg
1.603128054740958
1.7888563049853372
1.986314760508309
2.2766373411534704
2.453567937438905
2.5992179863147604
2.755620723362659
2.841642228739003
2.913978494623656
2.9687194525904204
3.002932551319648
3.0195503421309877
3.0234604105571847
3.01564027370479
2.983382209188661
2.9530791788856305
2.917888563049853
2.8582600195503423
2.8103616813294234
2.757575757575758
2.699902248289345
2.634408602150537
2.5610948191593352
2.4809384164222874
2.393939393939394
2.300097751710655
2.2023460410557183
2.1006842619745845
1.9980449657869013
1.9090909090909087
1.828934506353861
1.7458455522971652
1.664711632453568
1.590420332355816
1.525904203323558
1.4721407624633431
1.4291300097751711
1.3978494623655917
1.3792766373411536
1.3665689149560116
1.359726295210166
1.3616813294232648
1.3655913978494625
1.370478983382209
1.375366568914956
1.380254154447703
1.3822091886608017
1.3812316715542523
1.3782991202346042
1.3743890518084063
1.3714565004887584
1.3695014662756595
1.3665689149560116
1.359726295210166
1.35386119257087
1.348973607038123
1.3421309872922775
1.3333333333333333
1.324535679374389
1.3147605083088951
1.3040078201368523
1.2903225806451613
1.2766373411534702
1.262952101661779
1.2482893450635386
1.2365591397849462
1.227761485826002
1.2228739002932552
1.2179863147605083
1.2130987292277615
1.2082111436950147
1.203323558162268
1.198435972629521
1.1935483870967742
1.1886608015640274
1.1837732160312806
1.1788856304985338
1.173998044965787
1.1691104594330402
1.1671554252199414
1.166177908113392
1.163245356793744
1.1593352883675463
1.1564027370478984
1.1534701857282503
1.1505376344086022
1.1505376344086022
1.1505376344086022
1.147605083088954
1.1436950146627567
1.141739980449658
1.1436950146627567
1.1456500488758554
1.1466275659824048
1.1485826001955035
1.1515151515151516
1.155425219941349
1.160312805474096
1.164222873900293
1.1671554252199414
1.1700879765395895
1.1710654936461389
1.1720430107526882
1.1730205278592376
1.1759530791788857
1.176930596285435
1.1759530791788857
1.1730205278592376
1.1691104594330402
1.164222873900293
1.1612903225806452
1.163245356793744
1.176930596285435
1.2101661779081134
1.2688172043010753
1.3401759530791788
1.4301075268817205
1.5581622678396871
1.718475073313783
1.900293255131965
2.1847507331378297
2.3655913978494625
2.530791788856305
2.742913000977517
2.8514173998044967
2.936461388074292
3.0009775171065494
3.038123167155425
3.053763440860215
3.06158357771261
3.059628543499511
3.046920821114369
3.0254154447702835
2.995112414467253
2.956011730205278
2.9100684261974585
2.857282502443793
2.7966764418377323
2.729227761485826
2.66177908113392
2.592375366568915
2.515151515151515
2.43108504398827
2.3382209188660803
2.2404692082111435
2.1388074291300097
2.034213098729228
1.9305962854349952
1.83088954056696
1.737047898338221
1.6500488758553276
1.5806451612903225
1.5239491691104594
1.4711632453567938
1.426197458455523
1.391006842619746
1.3655913978494625
1.348973607038123
1.3391984359726294
1.3372434017595307
1.3401759530791788
1.3440860215053765
1.348973607038123
1.35386119257087
1.3587487781036167
1.3636363636363635
1.3655913978494625
1.3665689149560116
1.367546432062561
1.3655913978494625
1.359726295210166
1.3519061583577712
1.3411534701857282
1.3264907135874875
1.310850439882698
1.2942326490713587
1.2795698924731185
1.267839687194526
1.2531769305962854
1.2375366568914956
1.2228739002932552
1.2082111436950147
1.1935483870967742
1.1788856304985338
1.164222873900293
1.1505376344086022
1.1358748778103618
1.121212121212121
1.1094819159335287
1.1036168132942326
1.1006842619745845
1.096774193548387
1.0899315738025417
1.0821114369501466
1.075268817204301
1.0694037145650048
1.0654936461388074
1.06158357771261
1.056695992179863
1.0547409579667644
1.053763440860215
1.0557184750733135
1.0586510263929618
1.0606060606060606
1.06158357771261
1.06158357771261
1.06158357771261
1.06158357771261
1.06158357771261
1.0625610948191593
1.064516129032258
1.0664711632453567
1.0694037145650048
1.0713587487781036
1.075268817204301
1.078201368523949
1.0811339198435972
1.0850439882697946
1.088954056695992
1.0928641251221896
1.096774193548387
1.099706744868035
1.1006842619745845
1.1006842619745845
1.1006842619745845
1.1006842619745845
1.1026392961876832
1.104594330400782
1.1036168132942326
1.1006842619745845
1.0977517106549364
1.0977517106549364
1.1026392961876832
1.118279569892473
1.152492668621701
1.2121212121212122
1.3040078201368523
1.43108504398827
1.5884652981427174
1.7419354838709675
1.895405669599218
2.0762463343108504
2.2658846529814274
2.449657869012708
2.6148582600195502
2.7595307917888565
2.8826979472140764
2.981427174975562
3.0557184750733137
3.10752688172043
3.1388074291300097
3.1485826001955037
3.1436950146627565
3.1358748778103616
3.121212121212121
3.0977517106549364
3.067448680351906
3.029325513196481
2.9853372434017595
2.9335288367546437
2.8729227761485827
2.8054740957966766
2.7311827956989245
2.650048875855328
2.570869990224829
2.4916911045943304
2.40078201368524
2.302052785923754
2.201368523949169
2.1006842619745845
2.0009775171065494
1.905180840664712
1.81524926686217
1.7341153470185728
1.6637341153470186
1.6050830889540566
1.5610948191593352
1.5288367546432062
1.500488758553275
1.479960899315738
1.4652981427174976
1.457478005865103
1.4545454545454546
1.455522971652004
1.458455522971652
1.4623655913978495
1.466275659824047
1.4682306940371457
1.469208211143695
1.4711632453567938
1.4711632453567938
1.4682306940371457
1.4643206256109482
1.4408602150537635
1.404692082111437
1.3792766373411536
1.359726295210166
1.343108504398827
1.327468230694037
1.3118279569892473
1.2961876832844574
1.2825024437927663
1.2697947214076246
1.2561094819159335
1.2424242424242424
1.227761485826002
1.2121212121212122
1.1974584555229717
1.1837732160312806
1.1710654936461389
1.160312805474096
1.1505376344086022
1.1397849462365592
1.1290322580645162
1.121212121212121
1.1163245356793745
1.110459433040078
1.1026392961876832
1.0957966764418376
1.0899315738025417
1.0840664711632453
1.0791788856304985
1.0742913000977516
1.0703812316715542
1.0654936461388074
1.0606060606060606
1.0586510263929618
1.0576735092864125
1.0547409579667644
1.050830889540567
1.0469208211143697
1.0410557184750733
1.0332355816226784
1.0273704789833822
1.0234604105571847
1.021505376344086
1.0205278592375366
1.0195503421309873
1.0195503421309873
1.021505376344086
1.0234604105571847
1.0234604105571847
1.0234604105571847
1.0224828934506354
1.0205278592375366
1.0195503421309873
1.0195503421309873
1.0195503421309873
1.0195503421309873
1.0195503421309873
1.0195503421309873
1.0205278592375366
1.0205278592375366
1.0195503421309873
1.021505376344086
1.0312805474095796
1.0576735092864125
1.10752688172043
1.1857282502443791
1.2932551319648091
1.43108504398827
1.595307917888563
1.775171065493646
1.9618768328445748
2.121212121212121
2.2580645161290325
2.398826979472141
2.5288367546432062
2.641251221896383
2.732160312805474
2.8025415444770285
2.8533724340175954
2.887585532746823
2.9071358748778104
2.913000977517106
2.905180840664712
2.884652981427175
2.8563049853372435
2.8240469208211145
2.78494623655914
2.740957966764418
2.69208211143695
2.638318670576735
2.579667644183773
2.515151515151515
2.444770283479961
2.367546432062561
2.2844574780058653
2.204301075268817
2.1251221896383186
2.034213098729228
1.93841642228739
1.844574780058651
1.7546432062561097
1.6686217008797657
1.5894428152492668
1.520039100684262
1.4613880742913
1.4115347018572826
1.370478983382209
1.3391984359726294
1.3186705767350928
1.3088954056695992
1.3040078201368523
1.3010752688172045
1.3010752688172045
1.303030303030303
1.3040078201368523
1.3020527859237536
1.300097751710655
1.2991202346041055
1.2991202346041055
1.2961876832844574
1.29227761485826
1.2883675464320623
1.281524926686217
1.273704789833822
1.2658846529814272
1.2561094819159335
1.2443792766373412
1.2316715542521994
1.217008797653959
1.2023460410557183
1.1867057673509287
1.1710654936461389
1.1564027370478984
1.1456500488758554
1.1368523949169111
1.1270772238514175
1.1173020527859236
1.1085043988269794
1.099706744868035
1.0918866080156402
1.0840664711632453
1.0762463343108504
1.0684261974584557
1.0625610948191593
1.0576735092864125
1.0547409579667644
1.0518084066471165
1.04594330400782
1.040078201368524
1.032258064516129
1.0254154447702837
1.0195503421309873
1.013685239491691
1.007820136852395
1.0039100684261977
1.0019550342130987
1.0009775171065494
1.0009775171065494
1.002932551319648
1.0058651026392962
1.007820136852395
1.0097751710654936
1.0117302052785924
1.013685239491691
1.0166177908113392
1.0175953079178883
1.018572825024438
1.018572825024438
1.018572825024438
1.0195503421309873
1.0224828934506354
1.0263929618768328
1.0303030303030305
1.032258064516129
1.0332355816226784
1.0332355816226784
1.0332355816226784
1.0361681329423265
1.0391006842619743
1.040078201368524
1.0410557184750733
1.0410557184750733
1.040078201368524
1.040078201368524
1.0439882697947214
1.053763440860215
1.0772238514173995
1.1221896383186705
1.1945259042033236
1.2981427174975562
1.4330400782013686
1.595307917888563
1.7771260997067448
1.970674486803519
2.163245356793744
2.321603128054741
2.455522971652004
2.590420332355816
2.713587487781036
2.817204301075269
2.8993157380254155
2.960899315738025
3.003910068426197
3.029325513196481
3.040078201368524
3.037145650048876
3.022482893450636
3.0
2.970674486803519
2.9345063538611926
2.89247311827957
2.8455522971652005
2.792766373411535
2.735092864125122
2.670576735092864
2.60019550342131
2.5249266862170088
2.441837732160313
2.3519061583577714
2.257086999022483
2.16911045943304
2.0840664711632453
1.9902248289345064
1.8963831867057677
1.8064516129032255
1.7243401759530792
1.6520039100684265
1.5884652981427174
1.533724340175953
1.4897360703812317
1.456500488758553
1.4330400782013686
1.418377321603128
1.4115347018572826
1.409579667644184
1.4115347018572826
1.4164222873900294
1.423264907135875
1.4301075268817205
1.435972629521017
1.4389051808406648
1.4389051808406648
1.436950146627566
1.434017595307918
1.4301075268817205
1.426197458455523
1.4203323558162269
1.4134897360703813
1.404692082111437
1.392961876832845
1.380254154447703
1.367546432062561
1.35386119257087
1.3401759530791788
1.327468230694037
1.3147605083088951
1.3020527859237536
1.289345063538612
1.2795698924731185
1.2717497556207231
1.2609970674486803
1.249266862170088
1.2375366568914956
1.224828934506354
1.2130987292277615
1.2023460410557183
1.1896383186705768
1.1779081133919844
1.1681329423264908
1.160312805474096
1.1564027370478984
1.1544477028347997
1.152492668621701
1.152492668621701
1.152492668621701
1.1495601173020529
1.1485826001955035
1.147605083088954
1.1456500488758554
1.141739980449658
1.13880742913001
1.1378299120234605
1.1378299120234605
1.1407624633431086
1.1436950146627567
1.1466275659824048
1.1485826001955035
1.1505376344086022
1.152492668621701
1.1534701857282503
1.1534701857282503
1.1534701857282503
1.1534701857282503
1.1534701857282503
1.1534701857282503
1.1544477028347997
1.155425219941349
1.1534701857282503
1.152492668621701
1.152492668621701
1.152492668621701
1.1534701857282503
1.152492668621701
1.1495601173020529
1.1466275659824048
1.142717497556207
1.1407624633431086
1.142717497556207
1.1495601173020529
1.166177908113392
1.2013685239491692
1.2619745845552297
1.3519061583577712
1.4711632453567938
1.6158357771260996
1.780058651026393
1.956989247311828
2.133919843597263
2.302052785923754
2.455522971652004
2.572825024437928
2.662756598240469
2.747800586510264
2.8181818181818183
2.8729227761485827
2.9120234604105573
2.9345063538611926
2.9423264907135875
2.9374389051808407
2.921798631476051
2.8963831867057674
2.8611925708699903
2.819159335288368
2.773216031280548
2.720430107526881
2.6608015640273703
2.5962854349951123
2.527859237536657
2.4545454545454546
2.376344086021505
2.291300097751711
2.20039100684262
2.1055718475073317
2.007820136852395
1.9090909090909087
1.823069403714565
1.7448680351906158
1.664711632453568
1.5894428152492668
1.521994134897361
1.4643206256109482
1.4173998044965788
1.3812316715542523
1.3528836754643203
1.3313782991202343
1.3157380254154447
1.305962854349951
1.3010752688172045
1.3010752688172045
1.303030303030303
1.305962854349951
1.3098729227761483
1.3128054740957966
1.313782991202346
1.3118279569892473
1.3069403714565004
1.300097751710655
1.29227761485826
1.284457478005865
1.2746823069403714
1.2668621700879763
1.2590420332355816
1.2473118279569892
1.2336265884652982
1.2179863147605083
1.2023460410557183
1.1867057673509287
1.1720430107526882
1.160312805474096
1.1495601173020529
1.1378299120234605
1.1251221896383188
1.115347018572825
1.10752688172043
1.096774193548387
1.0850439882697946
1.072336265884653
1.0606060606060606
1.0488758553274682
1.0391006842619743
1.0303030303030305
1.0224828934506354
1.0175953079178883
1.0156402737047898
1.0146627565982405
1.0146627565982405
1.0166177908113392
1.0175953079178883
1.0175953079178883
1.0175953079178883
1.0175953079178883
1.0175953079178883
1.0175953079178883
1.0175953079178883
1.0175953079178883
1.0175953079178883
1.0175953079178883
1.018572825024438
1.0195503421309873
1.018572825024438
1.018572825024438
1.018572825024438
1.018572825024438
1.0195503421309873
1.0195503421309873
1.0195503421309873
1.0195503421309873
1.0195503421309873
1.0195503421309873
1.018572825024438
1.0195503421309873
1.0195503421309873
1.018572825024438
1.018572825024438
1.018572825024438
1.018572825024438
1.0166177908113392
1.0146627565982405
1.0146627565982405
1.0205278592375366
1.0381231671554252
1.075268817204301
1.1270772238514175
1.1994134897360704
1.3098729227761483
1.455522971652004
1.6265884652981428
1.8132942326490715
2.003910068426197
2.189638318670577
2.361681329423265
2.5141739980449658
2.644183773216031
2.7517106549364616
2.835777126099707
2.887585532746823
2.917888563049853
2.941348973607038
2.956011730205278
2.959921798631476
2.9530791788856305
2.9374389051808407
2.9149560117302054
2.8836754643206257
2.844574780058651
2.7996089931573804
2.747800586510264
2.6930596285435
2.636363636363636
2.5718475073313782
2.4995112414467253
2.421309872922776
2.337243401759531
2.24633431085044
2.1515151515151514
2.0547409579667644
1.956989247311828
1.8621700879765395
1.772238514173998
1.686217008797654
1.6148582600195502
1.555229716520039
1.4965786901270772
1.444770283479961
1.4007820136852396
1.3636363636363635
1.335288367546432
1.3147605083088951
1.3020527859237536
1.2961876832844574
1.2942326490713587
1.295210166177908
1.2981427174975562
1.3020527859237536
1.3049853372434017
1.305962854349951
1.3069403714565004
1.3069403714565004
1.305962854349951
1.303030303030303
1.300097751710655
1.295210166177908
1.2883675464320623
1.2805474095796676
1.2717497556207231
1.2658846529814272
1.260019550342131
1.2531769305962854
1.2453567937438903
1.2365591397849462
1.227761485826002
1.2189638318670577
1.209188660801564
1.198435972629521
1.1896383186705768
1.1808406647116323
1.1710654936461389
1.1622678396871946
1.1573802541544478
1.1534701857282503
1.1544477028347997
1.1652003910068427
1.1886608015640274
1.2316715542521994
1.300097751710655
1.393939393939394
1.512218963831867
1.6471163245356797
1.7947214076246334
1.945259042033236
2.072336265884653
2.182795698924731
2.297165200391007
2.398826979472141
2.4838709677419355
2.550342130987292
2.5992179863147604
2.631476050830889
2.649071358748778
2.652003910068426
2.641251221896383
2.6177908113391983
2.5865102639296187
2.548387096774193
2.5004887585532747
2.444770283479961
2.3812316715542523
2.3088954056695994
2.228739002932551
2.1407624633431084
2.047898338220919
1.9521016617790807
1.8533724340175952
1.7546432062561097
1.6695992179863148
1.5933528836754642
1.5161290322580645
1.444770283479961
1.3782991202346042
1.3206256109481915
1.273704789833822
1.2365591397849462
1.2101661779081134
1.195503421309873
1.1896383186705768
1.1915933528836755
1.1994134897360704
1.2111436950146628
1.224828934506354
1.2394916911045943
1.2541544477028348
1.267839687194526
1.2766373411534702
1.2825024437927663
1.2834799608993157
1.2834799608993157
1.2834799608993157
1.2834799608993157
1.2805474095796676
1.278592375366569
1.2776148582600195
1.273704789833822
1.2668621700879763
1.2590420332355816
1.2502443792766371
1.2404692082111437
1.2287390029325511
1.217008797653959
1.203323558162268
1.1896383186705768
1.1779081133919844
1.1671554252199414
1.160312805474096
1.1544477028347997
1.147605083088954
1.142717497556207
1.1378299120234605
1.1319648093841643
1.1241446725317692
1.1173020527859236
1.1114369501466277
1.1065493646138806
1.1026392961876832
1.1006842619745845
1.1016617790811338
1.1055718475073313
1.10752688172043
1.1065493646138806
1.1036168132942326
1.099706744868035
1.0957966764418376
1.0918866080156402
1.0879765395894427
1.083088954056696
1.0811339198435972
1.0811339198435972
1.0811339198435972
1.083088954056696
1.0869990224828934
1.0869990224828934
1.0869990224828934
1.0869990224828934
1.086021505376344
1.086021505376344
1.086021505376344
1.086021505376344
1.0850439882697946
1.0821114369501466
1.078201368523949
1.0762463343108504
1.075268817204301
1.0742913000977516
1.0742913000977516
1.072336265884653
1.0684261974584557
1.064516129032258
1.0625610948191593
1.06158357771261
1.0586510263929618
1.0547409579667644
1.050830889540567
1.0469208211143697
1.0449657869012707
1.043010752688172
1.0381231671554252
1.0332355816226784
1.032258064516129
1.0420332355816226
1.0713587487781036
1.1290322580645162
1.2209188660801564
1.3479960899315735
1.5083088954056696
1.694037145650049
1.866080156402737
2.029325513196481
2.210166177908113
2.389051808406647
2.5532746823069403
2.695014662756598
2.812316715542522
2.9042033235581624
2.972629521016618
3.021505376344086
3.0527859237536656
3.067448680351906
3.0664711632453567
3.050830889540567
3.022482893450636
2.9872922776148583
2.946236559139785
2.898338220918866
2.844574780058651
2.78494623655914
2.720430107526881
2.6510263929618767
2.576735092864125
2.498533724340176
2.4134897360703813
2.3313782991202348
2.2502443792766376
2.156402737047898
2.056695992179863
1.9560117302052784
1.8563049853372435
1.758553274682307
1.6656891495601174
1.5826001955034212
1.5112414467253177
1.4506353861192571
1.401759530791789
1.3636363636363635
1.33822091886608
1.3206256109481915
1.3069403714565004
1.2981427174975562
1.2932551319648091
1.2903225806451613
1.289345063538612
1.2873900293255132
1.2854349951124144
1.284457478005865
1.2834799608993157
1.2825024437927663
1.2805474095796676
1.2776148582600195
1.270772238514174
1.262952101661779
1.2551319648093842
1.24633431085044
1.2375366568914956
1.2287390029325511
1.2189638318670577
1.206256109481916
1.1915933528836755
1.1779081133919844
1.164222873900293
1.1544477028347997
1.147605083088954
1.1397849462365592
1.1319648093841643
1.1241446725317692
1.1163245356793745
1.1085043988269794
1.1026392961876832
1.0977517106549364
1.0928641251221896
1.088954056695992
1.0879765395894427
1.0899315738025417
1.0918866080156402
1.0928641251221896
1.0928641251221896
1.0899315738025417
1.0869990224828934
1.0840664711632453
1.083088954056696
1.0811339198435972
1.0791788856304985
1.078201368523949
1.0762463343108504
1.0742913000977516
1.075268817204301
1.078201368523949
1.0811339198435972
1.0840664711632453
1.0879765395894427
1.0918866080156402
1.096774193548387
1.1006842619745845
1.1055718475073313
1.110459433040078
1.1143695014662756
1.1192570869990224
1.1251221896383188
1.130987292277615
1.133919843597263
1.1358748778103618
1.13880742913001
1.141739980449658
1.142717497556207
1.1436950146627567
1.1436950146627567
1.1436950146627567
1.142717497556207
1.1397849462365592
1.1358748778103618
1.133919843597263
1.1329423264907137
1.1319648093841643
1.1319648093841643
1.1378299120234605
1.1564027370478984
1.1974584555229717
1.2658846529814272
1.3655913978494625
1.498533724340176
1.66177908113392
1.8318670576735088
1.9775171065493649
2.118279569892473
2.27761485826002
2.434017595307918
2.575757575757576
2.697947214076246
2.7966764418377323
2.8729227761485827
2.9286412512218964
2.9657869012707723
2.986314760508309
2.992179863147605
2.983382209188661
2.963831867057673
2.93841642228739
2.906158357771261
2.868035190615836
2.8240469208211145
2.774193548387097
2.719452590420332
2.659824046920821
2.592375366568915
2.517106549364614
2.4359726295210167
2.3489736070381237
2.264907135874878
2.1837732160312804
2.0928641251221896
1.9960899315738023
1.9012707722385145
1.8103616813294232
1.7233626588465298
1.6422287390029326
1.5708699902248289
1.5083088954056696
1.455522971652004
1.4134897360703813
1.383186705767351
1.3636363636363635
1.3519061583577712
1.3470185728250244
1.3479960899315735
1.35386119257087
1.3626588465298142
1.3714565004887584
1.3773216031280548
1.3822091886608017
1.3870967741935485
1.3890518084066472
1.3900293255131966
1.391006842619746
1.3890518084066472
1.3851417399804498
1.380254154447703
1.3724340175953078
1.3616813294232648
1.3499511241446724
1.3372434017595307
1.324535679374389
1.3118279569892473
1.2991202346041055
1.2854349951124144
1.2746823069403714
1.2649071358748778
1.252199413489736
1.238514173998045
1.224828934506354
1.2111436950146628
1.1964809384164223
1.181818181818182
1.1671554252199414
1.152492668621701
1.13880742913001
1.1251221896383188
1.1133919843597262
1.1065493646138806
1.1016617790811338
1.0957966764418376
1.0879765395894427
1.0801564027370478
1.072336265884653
1.064516129032258
1.0576735092864125
1.0518084066471165
1.0469208211143697
1.0420332355816226
1.0371456500488758
1.035190615835777
1.0342130987292275
1.0312805474095796
1.0254154447702837
1.018572825024438
1.0127077223851415
1.007820136852395
1.002932551319648
0.9980449657869012
0.9931573802541545
0.989247311827957
0.9853372434017597
0.9824046920821116
0.981427174975562
0.981427174975562
0.9804496578690128
0.9794721407624634
0.9794721407624634
0.9794721407624634
0.9794721407624634
0.9765395894428152
0.9736070381231672
0.9706744868035192
0.9667644183773216
0.9638318670576737
0.9648093841642228
0.9696969696969696
0.9794721407624634
1.002932551319648
1.0498533724340176
1.1241446725317692
1.2297165200391007
1.367546432062561
1.5298142717497556
1.7096774193548387
1.8973607038123168
2.081133919843597
2.2502443792766376
2.3812316715542523
2.4838709677419355
2.5835777126099706
2.6695992179863146
2.73802541544477
2.791788856304985
2.8289345063538613
2.849462365591398
2.857282502443793
2.854349951124145
2.8396871945259043
2.814271749755621
2.782013685239492
2.7438905180840663
2.699902248289345
2.6510263929618767
2.5972629521016617
2.5376344086021505
2.4701857282502444
2.396871945259042
2.317693059628544
2.232649071358749
2.1436950146627565
2.050830889540567
1.9560117302052784
1.8699902248289344
1.7898338220918866
1.7038123167155426
1.619745845552297
1.5405669599217986
1.469208211143695
1.4066471163245358
1.3528836754643203
1.3079178885630498
1.273704789833822
1.2502443792766371
1.2336265884652982
1.224828934506354
1.2218963831867058
1.2209188660801564
1.2238514173998043
1.2297165200391007
1.2346041055718475
1.238514173998045
1.241446725317693
1.2434017595307918
1.2424242424242424
1.238514173998045
1.2326490713587488
1.224828934506354
1.2189638318670577
1.2140762463343109
1.2072336265884651
1.1974584555229717
1.1837732160312806
1.1681329423264908
1.1515151515151516
1.1358748778103618
1.121212121212121
1.10752688172043
1.093841642228739
1.0811339198435972
1.0713587487781036
