ppg
2.827956989247312
2.833822091886608
2.8455522971652005
2.8641251221896384
2.8885630498533725
2.916911045943304
2.9472140762463344
2.9765395894428157
3.0
3.018572825024438
3.034213098729228
3.04594330400782
3.0527859237536656
3.053763440860215
3.050830889540567
3.043010752688172
3.032258064516129
3.0195503421309877
3.005865102639296
2.9902248289345064
2.9745845552297165
2.961876832844575
2.9501466275659824
2.93841642228739
2.9266862170087977
2.916911045943304
2.90811339198436
2.8993157380254155
2.89247311827957
2.886608015640274
2.8807429130009776
2.874877810361681
2.8690127077223853
2.8641251221896384
2.859237536656892
2.854349951124145
2.849462365591398
2.844574780058651
2.838709677419355
2.832844574780059
2.8269794721407626
2.8211143695014664
2.8152492668621703
2.809384164222874
2.8054740957966766
2.8044965786901277
2.8054740957966766
2.811339198435973
2.823069403714565
2.8406647116324537
2.8641251221896384
2.8914956011730206
2.920821114369501
2.949169110459433
2.9745845552297165
2.995112414467253
3.010752688172043
3.0205278592375366
3.0234604105571847
3.022482893450636
3.0175953079178885
3.0097751710654936
2.99902248289345
2.9853372434017595
2.970674486803519
2.9550342130987293
2.9393939393939394
2.9237536656891496
2.9100684261974585
2.897360703812317
2.8856304985337244
2.87683284457478
2.8699902248289346
2.863147605083089
2.8563049853372435
2.850439882697948
2.844574780058651
2.838709677419355
2.832844574780059
2.8269794721407626
2.8211143695014664
2.81622678396872
2.8103616813294234
2.8054740957966766
2.801564027370479
2.7966764418377323
2.791788856304985
2.7869012707722387
2.782013685239492
2.777126099706745
2.774193548387097
2.774193548387097
2.7781036168132944
2.787878787878788
2.8044965786901277
2.8269794721407626
2.849462365591398
2.8729227761485827
2.8993157380254155
2.9257086999022484
2.949169110459433
2.967741935483871
2.9804496578690127
2.9872922776148583
2.989247311827957
2.9853372434017595
2.9775171065493646
2.9667644183773216
2.956011730205278
2.9442815249266863
2.930596285434995
2.9159335288367547
2.9012707722385143
2.887585532746823
2.874877810361681
2.8641251221896384
2.854349951124145
2.84652981427175
2.8396871945259043
2.833822091886608
2.8299120234604107
2.8269794721407626
2.823069403714565
2.819159335288368
2.8152492668621703
2.811339198435973
2.806451612903226
2.801564027370479
2.7966764418377323
2.791788856304985
2.7859237536656893
2.7810361681329425
2.777126099706745
2.776148582600196
2.7781036168132944
2.78494623655914
2.7966764418377323
2.8132942326490715
2.833822091886608
2.857282502443793
2.8807429130009776
2.902248289345064
2.920821114369501
2.9345063538611926
2.9423264907135875
2.945259042033236
2.9442815249266863
2.9393939393939394
2.9315738025415445
2.919843597262952
2.641251221896383
2.2052785923753664
1.935483870967742
1.7517106549364614
1.616813294232649
1.512218963831867
1.4301075268817205
1.3655913978494625
1.3196480938416422
1.2883675464320623
1.260019550342131
1.2365591397849462
1.2179863147605083
1.2013685239491692
1.18475073313783
1.1671554252199414
1.1505376344086022
1.133919843597263
1.115347018572825
1.0957966764418376
1.0791788856304985
1.064516129032258
1.043010752688172
1.0156402737047898
0.9853372434017597
0.956989247311828
0.9403714565004888
0.9442815249266864
0.9804496578690128
1.0596285434995112
1.18475073313783
1.3519061583577712
1.5513196480938416
1.7390029325513197
1.9149560117302051
2.1006842619745845
2.272727272727273
2.41544477028348
2.520039100684262
2.582600195503421
2.6050830889540566
2.591397849462365
2.548387096774193
2.4809384164222874
2.3958944281524928
2.3098729227761488
2.2238514173998043
2.1300097751710654
2.035190615835777
1.943304007820137
1.858260019550342
1.7849462365591398
1.7233626588465298
1.6735092864125125
1.6334310850439884
1.6001955034213098
1.5718475073313782
1.5454545454545454
1.525904203323558
1.509286412512219
1.4897360703812317
1.469208211143695
1.4486803519061584
1.426197458455523
1.4027370478983383
1.3792766373411536
1.3548387096774193
1.327468230694037
1.2991202346041055
1.2717497556207231
1.2531769305962854
1.2453567937438903
1.252199413489736
1.2873900293255132
1.3607038123167154
1.478983382209189
1.6383186705767352
1.828934506353861
2.040078201368524
2.2531769305962857
2.450635386119257
2.6207233626588464
2.7536656891495603
2.8396871945259043
2.886608015640274
2.9071358748778104
2.897360703812317
2.860215053763441
2.80058651026393
2.724340175953079
2.635386119257087
2.5386119257087
2.4389051808406648
2.3411534701857284
2.249266862170088
2.1739980449657867
2.110459433040078
2.0518084066471163
2.0
1.9560117302052784
1.9178885630498532
1.8856304985337244
1.857282502443793
1.83088954056696
1.8054740957966764
1.7790811339198436
1.750733137829912
1.721407624633431
1.6930596285434996
1.664711632453568
1.6314760508308896
1.595307917888563
1.5562072336265884
1.5161290322580645
1.4760508308895406
1.439882697947214
1.4164222873900294
1.412512218963832
1.439882697947214
1.5063538611925709
1.5933528836754642
1.7067448680351909
1.868035190615836
2.060606060606061
2.2658846529814274
2.4652981427174976
2.6422287390029324
2.78494623655914
2.887585532746823
2.949169110459433
2.973607038123167
2.963831867057673
2.924731182795699
2.8699902248289346
2.801564027370479
2.7155425219941347
2.619745845552297
2.5190615835777126
2.418377321603128
2.320625610948192
2.228739002932551
2.1417399804496577
2.0635386119257086
1.994134897360704
1.932551319648094
1.8826979472140764
1.8406647116324533
1.7996089931573802
1.7624633431085044
1.7253176930596286
1.6871945259042034
1.6480938416422288
1.6080156402737047
1.5650048875855327
1.521016617790811
1.47702834799609
1.4320625610948192
1.3870967741935485
1.3519061583577712
1.3284457478005864
1.3157380254154447
1.3255131964809383
1.367546432062561
1.447702834799609
1.5650048875855327
1.7135874877810362
1.8797653958944285
2.047898338220919
2.204301075268817
2.335288367546432
2.4252199413489737
2.479960899315738
2.5083088954056696
2.506353861192571
2.474095796676442
2.41544477028348
2.3382209188660803
2.247311827956989
2.1485826001955037
2.046920821114369
1.9472140762463344
1.8514173998044965
1.7644183773216031
1.6950146627565983
1.6383186705767352
1.5826001955034212
1.5317693059628543
1.487781036168133
1.4506353861192571
1.4203323558162269
1.392961876832845
1.367546432062561
1.3421309872922775
1.3147605083088951
1.284457478005865
1.2580645161290325
1.2336265884652982
1.206256109481916
1.1837732160312806
1.1730205278592376
1.181818181818182
1.2130987292277615
1.2649071358748778
1.3333333333333333
1.4134897360703813
1.4975562072336266
1.576735092864125
1.6392961876832846
1.6852394916911049
1.7204301075268815
1.737047898338221
1.7331378299120237
1.70772238514174
1.6627565982404693
1.603128054740958
1.5327468230694037
1.455522971652004
1.375366568914956
1.2991202346041055
1.2287390029325511
1.1749755620723363
1.133919843597263
1.0948191593352885
1.0625610948191593
1.0361681329423265
1.0146627565982405
1.0
0.989247311827957
0.981427174975562
0.9736070381231672
0.9667644183773216
0.9608993157380256
0.9579667644183774
0.95405669599218
0.9442815249266864
0.9266862170087976
0.9042033235581622
0.8807429130009775
0.8641251221896383
0.8651026392961877
0.895405669599218
0.9657869012707724
1.0821114369501466
1.2424242424242424
1.435972629521017
1.6207233626588464
1.7976539589442817
1.9902248289345064
2.1710654936461387
2.32355816226784
2.4389051808406648
2.512218963831867
2.544477028347996
2.5386119257087
2.5004887585532747
2.436950146627566
2.364613880742913
2.2991202346041058
2.2267839687194524
2.139784946236559
2.048875855327468
1.9608993157380252
1.8797653958944285
1.8084066471163245
1.747800586510264
1.6959921798631477
1.6529814271749756
1.6177908113391983
1.587487781036168
1.560117302052786
1.5395894428152492
1.521994134897361
1.500488758553275
1.4750733137829912
1.447702834799609
1.418377321603128
1.3890518084066472
1.359726295210166
1.3284457478005864
1.2961876832844574
1.2639296187683284
1.23069403714565
1.206256109481916
1.1915933528836755
1.1867057673509287
1.206256109481916
1.2619745845552297
1.3577712609970674
1.495601173020528
1.6695992179863148
1.866080156402737
2.0684261974584555
2.260997067448681
2.43108504398827
2.56891495601173
2.66177908113392
2.7155425219941347
2.7438905180840663
2.7438905180840663
2.718475073313783
2.670576735092864
2.6050830889540566
2.525904203323558
2.439882697947214
2.3499511241446727
2.260019550342131
2.1739980449657867
2.101661779081134
2.0391006842619745
1.9775171065493649
1.920821114369501
1.8699902248289344
1.826001955034213
1.7878787878787878
1.75366568914956
1.7223851417399805
1.6920821114369502
1.6627565982404693
1.632453567937439
1.6011730205278591
1.5747800586510263
1.5532746823069403
1.5317693059628543
1.5180840664711632
1.5161290322580645
1.5317693059628543
1.5669599217986314
1.6207233626588464
1.6911045943304008
1.7732160312805474
1.8592375366568916
1.9413489736070384
2.004887585532747
2.0518084066471163
2.0879765395894427
2.10850439882698
2.110459433040078
2.0948191593352883
2.0625610948191597
2.01564027370479
1.9589442815249267
1.8963831867057677
1.83088954056696
1.7673509286412512
1.70772238514174
1.6608015640273706
1.6236559139784943
1.587487781036168
1.5581622678396871
1.5347018572825024
1.517106549364614
1.5053763440860215
1.4975562072336266
1.4936461388074291
1.490713587487781
1.4868035190615836
1.482893450635386
1.478983382209189
1.474095796676442
1.4623655913978495
1.444770283479961
1.4242424242424243
1.4076246334310851
1.4056695992179864
1.4301075268817205
1.490713587487781
1.5923753665689149
1.7350928641251222
1.911045943304008
2.1055718475073317
2.278592375366569
2.43108504398827
2.58455522971652
2.718475073313783
2.8211143695014664
2.8885630498533725
2.921798631476051
2.9227761485826003
2.897360703812317
2.849462365591398
2.7839687194525906
2.705767350928641
2.6285434995112413
2.552297165200391
2.4682306940371457
2.383186705767351
2.3010752688172045
2.225806451612903
2.1593352883675463
2.099706744868035
2.048875855327468
2.004887585532747
1.9667644183773216
1.932551319648094
1.900293255131965
1.871945259042033
1.844574780058651
1.8132942326490715
1.7790811339198436
1.7419354838709675
1.7038123167155426
1.6656891495601174
1.6275659824046922
1.5884652981427174
1.547409579667644
1.5063538611925709
1.4701857282502444
1.4467253176930597
1.4389051808406648
1.4506353861192571
1.495601173020528
1.581622678396872
1.7086999022482894
1.870967741935484
2.0547409579667644
2.244379276637341
2.4252199413489737
2.58455522971652
2.7126099706744866
2.7976539589442817
2.8484848484848486
2.87683284457478
2.8807429130009776
2.860215053763441
2.820136852394917
2.7614858260019552
2.6881720430107525
2.6041055718475072
2.5131964809384164
2.418377321603128
2.324535679374389
2.233626588465298
2.157380254154448
2.090909090909091
2.022482893450636
1.9579667644183771
1.8993157380254155
1.8455522971652003
1.7976539589442817
1.7517106549364614
1.70772238514174
1.664711632453568
1.6217008797653958
1.5796676441837731
1.5454545454545454
1.5151515151515151
1.4819159335288368
1.4486803519061584
1.414467253176931
1.3792766373411536
1.3421309872922775
1.305962854349951
1.2746823069403714
1.2531769305962854
1.252199413489736
1.281524926686217
1.3499511241446724
1.436950146627566
1.5464320625610948
1.6959921798631477
1.869012707722385
2.048875855327468
2.217986314760508
2.363636363636364
2.4789833822091887
2.560117302052786
2.606060606060606
2.6177908113391983
2.60019550342131
2.5650048875855327
2.5141739980449658
2.443792766373412
2.361681329423265
2.271749755620724
2.177908113391984
2.085043988269794
1.9960899315738023
1.9130009775171064
1.8387096774193548
1.772238514173998
1.7135874877810362
1.66177908113392
1.6217008797653958
1.5894428152492668
1.555229716520039
1.521016617790811
1.4868035190615836
1.452590420332356
1.4164222873900294
1.3812316715542523
1.346041055718475
1.3128054740957966
1.2805474095796676
1.2482893450635386
1.2228739002932552
1.2013685239491692
1.173998044965787
1.1456500488758554
1.1221896383186705
1.1114369501466277
1.1241446725317692
1.1700879765395895
1.2541544477028348
1.3773216031280548
1.5356793743890518
1.7165200391006843
1.903225806451613
2.06158357771261
2.1945259042033234
2.318670576735093
2.418377321603128
2.486803519061584
2.5249266862170088
2.530791788856305
2.506353861192571
2.4574780058651027
2.3900293255131966
2.3088954056695994
2.217986314760508
2.133919843597263
2.053763440860215
1.9667644183773216
1.8807429130009776
1.7996089931573802
1.7243401759530792
1.6578690127077225
1.6011730205278591
1.5503421309872922
1.5053763440860215
1.4643206256109482
1.4271749755620724
1.391006842619746
1.3607038123167154
1.332355816226784
1.2991202346041055
1.2649071358748778
1.23069403714565
1.1964809384164223
1.163245356793744
1.1300097751710656
1.0957966764418376
1.0596285434995112
1.0254154447702837
0.997067448680352
0.9824046920821116
0.9863147605083088
1.0156402737047898
1.0821114369501466
1.1915933528836755
1.3421309872922775
1.525904203323558
1.7302052785923754
1.9364613880742916
2.129032258064516
2.294232649071359
2.4242424242424243
2.5161290322580645
2.565982404692082
2.5835777126099706
2.576735092864125
2.5454545454545454
2.49266862170088
2.4222873900293256
2.340175953079179
2.249266862170088
2.155425219941349
2.0625610948191597
1.9736070381231672
1.8914956011730208
1.826001955034213
1.772238514173998
1.7204301075268815
1.6735092864125125
1.6304985337243405
1.5933528836754642
1.560117302052786
1.5278592375366569
1.495601173020528
1.4643206256109482
1.43108504398827
1.3978494623655917
1.3665689149560116
1.3411534701857282
1.3196480938416422
1.2942326490713587
1.2668621700879763
1.2375366568914956
1.2101661779081134
1.1857282502443791
1.1700879765395895
1.173998044965787
1.206256109481916
1.2776148582600195
1.3919843597262953
1.521016617790811
1.6686217008797657
1.8563049853372435
2.06158357771261
2.2639296187683287
2.44672531769306
2.598240469208211
2.7116324535679373
2.78494623655914
2.820136852394917
2.822091886608016
2.7947214076246336
2.744868035190616
2.686217008797654
2.618768328445748
2.5386119257087
2.4516129032258065
2.360703812316716
2.270772238514174
2.1867057673509285
2.110459433040078
2.043010752688172
1.9833822091886608
1.9315738025415443
1.8866080156402736
1.8514173998044965
1.8211143695014664
1.790811339198436
1.761485826001955
1.7302052785923754
1.6979472140762464
1.6666666666666667
1.6363636363636365
1.607038123167155
1.576735092864125
1.5454545454545454
1.512218963831867
1.4760508308895406
1.4437927663734116
1.41544477028348
1.3890518084066472
1.375366568914956
1.3851417399804498
1.4291300097751711
1.5141739980449658
1.643206256109482
1.8113391984359728
2.006842619745845
2.2130987292277613
2.410557184750733
2.567937438905181
2.6911045943304006
2.798631476050831
2.877810361681329
2.924731182795699
2.93841642228739
2.921798631476051
2.8797653958944283
2.8152492668621703
2.735092864125122
2.6451612903225805
2.549364613880743
2.4604105571847508
2.375366568914956
2.2854349951124147
2.196480938416422
2.112414467253177
2.034213098729228
1.963831867057673
1.900293255131965
1.8435972629521016
1.793743890518084
1.7487781036168133
1.7057673509286413
1.6637341153470186
1.6275659824046922
1.595307917888563
1.5581622678396871
1.5180840664711632
1.478005865102639
1.4379276637341154
1.3988269794721409
1.359726295210166
1.3196480938416422
1.2795698924731185
1.2434017595307918
1.2179863147605083
1.209188660801564
1.2228739002932552
1.2697947214076246
1.3587487781036167
1.4897360703812317
1.656891495601173
1.847507331378299
2.0449657869012707
2.233626588465298
2.39980449657869
2.5317693059628543
2.624633431085044
2.679374389051808
2.699902248289345
2.6940371456500487
2.664711632453568
2.6129032258064515
2.5425219941348973
2.4594330400782014
2.366568914956012
2.269794721407625
2.1710654936461387
2.074291300097752
1.9824046920821117
1.8963831867057677
1.8269794721407624
1.76930596285435
1.7126099706744868
1.6588465298142718
1.6109481915933528
1.5650048875855327
1.521016617790811
1.478983382209189
1.436950146627566
1.396871945259042
1.356793743890518
1.3176930596285434
1.2805474095796676
1.2502443792766371
1.224828934506354
1.1945259042033236
1.160312805474096
1.1241446725317692
1.088954056695992
1.0576735092864125
1.0371456500488758
1.0381231671554252
1.0703812316715542
1.142717497556207
1.2580645161290325
1.3861192570869991
1.5298142717497556
1.70772238514174
1.8983382209188664
2.081133919843597
2.239491691104594
2.3655913978494625
2.453567937438905
2.5034213098729228
2.517106549364614
2.498533724340176
2.4545454545454546
2.3900293255131966
2.320625610948192
2.24633431085044
2.158357771260997
2.064516129032258
1.970674486803519
1.881720430107527
1.8005865102639296
1.7272727272727273
1.66177908113392
1.6041055718475072
1.5532746823069403
1.5083088954056696
1.474095796676442
1.444770283479961
1.412512218963832
1.3782991202346042
1.3421309872922775
1.305962854349951
1.2697947214076246
1.2346041055718475
1.2003910068426198
1.166177908113392
1.1329423264907137
1.099706744868035
1.075268817204301
1.06158357771261
1.04594330400782
1.0283479960899315
1.0234604105571847
1.0420332355816226
1.093841642228739
1.187683284457478
1.3235581622678396
1.495601173020528
1.6901270772238517
1.8905180840664717
2.081133919843597
2.232649071358749
2.3489736070381237
2.44672531769306
2.515151515151515
2.5513196480938416
2.5542521994134897
2.527859237536657
2.47702834799609
2.407624633431085
2.324535679374389
2.231671554252199
2.132942326490713
2.035190615835777
1.951124144672532
1.8778103616813293
1.8035190615835777
1.7331378299120237
1.6686217008797657
1.6109481915933528
1.560117302052786
1.5151515151515151
1.474095796676442
1.436950146627566
1.401759530791789
1.367546432062561
1.3421309872922775
1.3196480938416422
1.29227761485826
1.2609970674486803
1.2287390029325511
1.1964809384164223
1.164222873900293
1.1300097751710656
1.0948191593352885
1.0606060606060606
1.0332355816226784
1.021505376344086
1.035190615835777
1.0713587487781036
1.1368523949169111
1.2473118279569892
1.4007820136852396
1.585532746823069
1.7878787878787878
1.9931573802541545
2.1847507331378297
2.3499511241446727
2.479960899315738
2.5698924731182795
2.621700879765396
2.6402737047898337
2.632453567937439
2.601173020527859
2.548387096774193
2.4789833822091887
2.396871945259042
2.3059628543499517
2.2111436950146626
2.1163245356793743
2.0234604105571847
1.9364613880742916
1.857282502443793
1.7878787878787878
1.7350928641251222
1.6920821114369502
1.651026392961877
1.6138807429130009
1.5786901270772238
1.5454545454545454
1.5131964809384164
1.4819159335288368
1.4516129032258065
1.4213098729227762
1.3919843597262953
1.3636363636363635
1.3411534701857282
1.3225806451612905
1.300097751710655
1.273704789833822
1.24633431085044
1.2228739002932552
1.2101661779081134
1.2160312805474096
1.2512218963831867
1.3255131964809383
1.4437927663734116
1.6050830889540566
1.7976539589442817
1.9775171065493649
2.1485826001955037
2.334310850439883
2.5083088954056696
2.6559139784946235
2.768328445747801
2.841642228739003
2.878787878787879
2.8836754643206257
2.8611925708699903
2.814271749755621
2.747800586510264
2.677419354838709
2.6021505376344085
2.5141739980449658
2.421309872922776
2.329423264907136
2.242424242424242
2.1622678396871944
2.090909090909091
2.027370478983382
1.9716520039100685
1.9227761485826005
1.878787878787879
1.8435972629521016
1.8132942326490715
1.7810361681329423
1.7458455522971652
1.7096774193548387
1.6735092864125125
1.6383186705767352
1.6041055718475072
1.56891495601173
1.5327468230694037
1.495601173020528
1.457478005865103
1.4193548387096775
1.388074291300098
1.364613880742913
1.348973607038123
1.3558162267839686
1.3988269794721409
1.4848484848484849
1.6148582600195502
1.7839687194525904
1.9804496578690127
2.187683284457478
2.3870967741935485
2.5650048875855327
2.696969696969697
2.789833822091887
2.860215053763441
2.900293255131965
2.911045943304008
2.89345063538612
2.8514173998044967
2.788856304985337
2.7116324535679373
2.622678396871945
2.5268817204301075
2.429130009775171
2.3313782991202348
2.2453567937438903
2.16911045943304
2.090909090909091
2.01564027370479
1.9472140762463344
1.8836754643206255
1.826001955034213
1.772238514173998
1.7223851417399805
1.6744868035190617
1.6265884652981428
1.5806451612903225
1.542521994134897
1.509286412512219
1.4731182795698925
1.435972629521017
1.3988269794721409
1.3616813294232648
1.3255131964809383
1.2873900293255132
1.249266862170088
1.2150537634408602
1.1906158357771262
1.1867057673509287
1.2121212121212122
1.2609970674486803
1.3401759530791788
1.466275659824047
1.6285434995112416
1.81524926686217
2.0117302052785924
2.19941348973607
2.364613880742913
2.4975562072336266
2.5943304007820136
2.653958944281525
2.677419354838709
2.6725317693059627
2.6451612903225805
2.595307917888563
2.525904203323558
2.442815249266862
2.3489736070381237
2.249266862170088
2.147605083088954
2.046920821114369
1.951124144672532
1.8621700879765395
1.7810361681329423
1.70772238514174
1.651026392961877
1.6050830889540566
1.5581622678396871
1.5141739980449658
1.4711632453567938
1.43108504398827
1.3919843597262953
1.35386119257087
1.316715542521994
1.281524926686217
1.2473118279569892
1.2130987292277615
1.1867057673509287
1.163245356793744
1.133919843597263
1.1006842619745845
1.0664711632453567
1.035190615835777
1.0156402737047898
1.0166177908113392
1.0478983382209188
1.1202346041055715
1.2355816226783969
1.3900293255131966
1.573802541544477
1.7458455522971652
1.906158357771261
2.075268817204301
2.2297165200391005
2.35386119257087
2.4408602150537635
2.490713587487781
2.504398826979472
2.487781036168133
2.444770283479961
2.380254154447703
2.300097751710655
2.220918866080156
2.1407624633431084
2.050830889540567
1.9579667644183771
1.868035190615836
1.7849462365591398
1.7165200391006843
1.6578690127077225
1.6021505376344083
1.5513196480938416
1.5053763440860215
1.4633431085043989
1.4252199413489737
1.3958944281524928
1.370478983382209
1.3401759530791788
1.305962854349951
1.2717497556207231
1.2375366568914956
1.203323558162268
1.1700879765395895
1.1378299120234605
1.104594330400782
1.0703812316715542
1.0361681329423265
1.010752688172043
0.9941348973607038
0.9853372434017597
0.9980449657869012
1.04594330400782
1.1348973607038124
1.2668621700879763
1.4379276637341154
1.635386119257087
1.8416422287390029
2.0410557184750733
2.217986314760508
2.361681329423265
2.4604105571847508
2.520039100684262
2.552297165200391
2.555229716520039
2.529814271749756
2.479960899315738
2.410557184750733
2.326490713587488
2.232649071358749
2.133919843597263
2.034213098729228
1.93841642228739
1.858260019550342
1.7898338220918866
1.7223851417399805
1.6608015640273706
1.606060606060606
1.5581622678396871
1.5161290322580645
1.47702834799609
1.439882697947214
1.4027370478983383
1.3655913978494625
1.3294232649071358
1.2942326490713587
1.2658846529814272
1.2424242424242424
1.2150537634408602
1.18475073313783
1.1544477028347997
1.1221896383186705
1.0879765395894427
1.0557184750733135
1.029325513196481
1.0166177908113392
1.0273704789833822
1.072336265884653
1.141739980449658
1.2424242424242424
1.391006842619746
1.576735092864125
1.782991202346041
1.9931573802541545
2.190615835777126
