ppg
1.0684261974584557
1.06158357771261
1.056695992179863
1.0527859237536656
1.050830889540567
1.050830889540567
1.0557184750733135
1.0703812316715542
1.0948191593352885
1.133919843597263
1.1974584555229717
1.2873900293255132
1.4037145650048877
1.543499511241447
1.699902248289345
1.8641251221896384
2.0283479960899315
2.1837732160312804
2.324535679374389
2.44672531769306
2.5376344086021505
2.6050830889540566
2.667644183773216
2.721407624633431
2.766373411534702
2.8044965786901277
2.835777126099707
2.8611925708699903
2.881720430107527
2.895405669599218
2.903225806451613
2.902248289345064
2.89345063538612
2.873900293255132
2.84652981427175
2.8103616813294234
2.7653958944281527
2.7116324535679373
2.649071358748778
2.579667644183773
2.505376344086021
2.4281524926686218
2.350928641251222
2.275659824046921
2.204301075268817
2.144672531769306
2.093841642228739
2.04594330400782
2.0019550342130987
1.9618768328445748
1.9257086999022484
1.8934506353861196
1.8621700879765395
1.83088954056696
1.7996089931573802
1.7673509286412512
1.7350928641251222
1.7028347996089932
1.6744868035190617
1.6471163245356797
1.6158357771260996
1.5835777126099706
1.5513196480938416
1.520039100684262
1.4897360703812317
1.4613880742913
1.434017595307918
1.4086021505376345
1.3841642228739004
1.3607038123167154
1.3421309872922775
1.327468230694037
1.310850439882698
1.2932551319648091
1.2766373411534702
1.2609970674486803
1.24633431085044
1.2326490713587488
1.2189638318670577
1.2052785923753666
1.1925708699902249
1.1798631476050832
1.1691104594330402
1.1622678396871946
1.1573802541544478
1.1495601173020529
1.1407624633431086
1.1319648093841643
1.1241446725317692
1.1163245356793745
1.1094819159335287
1.1026392961876832
1.096774193548387
1.0918866080156402
1.0879765395894427
1.0869990224828934
1.0869990224828934
1.0850439882697946
1.0821114369501466
1.078201368523949
1.0742913000977516
1.0703812316715542
1.0664711632453567
1.0635386119257086
1.0606060606060606
1.0586510263929618
1.056695992179863
1.0547409579667644
1.0557184750733135
1.0586510263929618
1.06158357771261
1.0684261974584557
1.0850439882697946
1.1163245356793745
1.1681329423264908
1.2453567937438903
1.3499511241446724
1.479960899315738
1.6304985337243405
1.793743890518084
1.9393939393939397
2.071358748778104
2.2111436950146626
2.343108504398827
2.4604105571847508
2.560117302052786
2.6422287390029324
2.70772238514174
2.758553274682307
2.7996089931573804
2.831867057673509
2.8563049853372435
2.8690127077223853
2.873900293255132
2.877810361681329
2.877810361681329
2.8719452590420333
2.8582600195503423
2.835777126099707
2.8025415444770285
2.7595307917888565
2.7067448680351904
2.64613880742913
2.5777126099706744
2.5024437927663734
2.432062561094819
2.363636363636364
2.290322580645161
2.217986314760508
2.150537634408602
2.088954056695992
2.035190615835777
1.988269794721408
1.948191593352884
1.9120234604105573
1.8797653958944285
1.8494623655913975
1.822091886608016
1.796676441837732
1.76930596285435
1.739980449657869
1.7096774193548387
1.6774193548387095
1.643206256109482
1.6080156402737047
1.5718475073313782
1.5356793743890518
1.500488758553275
1.466275659824047
1.434017595307918
1.4076246334310851
1.3861192570869991
1.3636363636363635
1.3411534701857282
1.3196480938416422
1.2981427174975562
1.2776148582600195
1.2590420332355816
1.241446725317693
1.224828934506354
1.2101661779081134
1.1964809384164223
1.1867057673509287
1.1798631476050832
1.1710654936461389
1.1612903225806452
1.1515151515151516
1.142717497556207
1.133919843597263
1.126099706744868
1.118279569892473
1.110459433040078
1.1036168132942326
1.096774193548387
1.0899315738025417
1.0869990224828934
1.0850439882697946
1.0811339198435972
1.0762463343108504
1.0703812316715542
1.0654936461388074
1.0606060606060606
1.056695992179863
1.053763440860215
1.0518084066471165
1.0498533724340176
1.0488758553274682
1.050830889540567
1.053763440860215
1.0557184750733135
1.0557184750733135
1.0547409579667644
1.053763440860215
1.0518084066471165
1.050830889540567
1.053763440860215
1.0654936461388074
1.0899315738025417
1.1348973607038124
1.203323558162268
1.2825024437927663
1.3773216031280548
1.504398826979472
1.653958944281525
1.8162267839687196
1.9804496578690127
2.1378299120234603
2.281524926686217
2.4086021505376345
2.517106549364614
2.6070381231671558
2.6803519061583576
2.7311827956989245
2.766373411534702
2.801564027370479
2.833822091886608
2.8611925708699903
2.8836754643206257
2.900293255131965
2.911045943304008
2.9149560117302054
2.911045943304008
2.898338220918866
2.87683284457478
2.8455522971652005
2.807429130009776
2.7614858260019552
2.705767350928641
2.641251221896383
2.5698924731182795
2.4946236559139785
2.4173998044965788
2.3411534701857284
2.2688172043010755
2.203323558162268
2.1495601173020527
2.1055718475073317
2.065493646138808
2.0303030303030303
1.9960899315738023
1.9618768328445748
1.9286412512218964
1.895405669599218
1.8621700879765395
1.827956989247312
1.793743890518084
1.758553274682307
1.7223851417399805
1.6852394916911049
1.6490713587487782
1.6177908113391983
1.5894428152492668
1.5571847507331378
1.5249266862170088
1.4926686217008798
1.4623655913978495
1.4330400782013686
1.4056695992179864
1.380254154447703
1.3577712609970674
1.3362658846529814
1.3157380254154447
1.300097751710655
1.2873900293255132
1.2717497556207231
1.2561094819159335
1.2404692082111437
1.224828934506354
1.209188660801564
1.1945259042033236
1.1798631476050832
1.166177908113392
1.1534701857282503
1.1407624633431086
1.1290322580645162
1.1221896383186705
1.118279569892473
1.1124144672531768
1.1055718475073313
1.099706744868035
1.0948191593352885
1.0899315738025417
1.0850439882697946
1.0811339198435972
1.0772238514173995
1.0742913000977516
1.0713587487781036
1.0713587487781036
1.0733137829912025
1.072336265884653
1.0713587487781036
1.0694037145650048
1.067448680351906
1.0664711632453567
1.0654936461388074
1.064516129032258
1.0625610948191593
1.0596285434995112
1.0557184750733135
1.053763440860215
1.0576735092864125
1.0694037145650048
1.0928641251221896
1.1348973607038124
1.2023460410557183
1.2991202346041055
1.4242424242424243
1.5747800586510263
1.7429130009775171
1.920821114369501
2.0987292277614857
2.2668621700879767
2.40078201368524
2.509286412512219
2.6148582600195502
2.70772238514174
2.7869012707722387
2.8514173998044967
2.9042033235581624
2.948191593352884
2.983382209188661
3.0117302052785924
3.0332355816226784
3.048875855327468
3.0576735092864125
3.0547409579667644
3.0439882697947214
3.029325513196481
3.0087976539589443
2.978494623655914
2.93841642228739
2.8885630498533725
2.8269794721407626
2.755620723362659
2.67644183773216
2.592375366568915
2.505376344086021
2.426197458455523
2.3528836754643208
2.2795698924731185
2.209188660801564
2.145650048875855
2.089931573802541
2.0410557184750733
1.9980449657869013
1.959921798631476
1.9237536656891496
1.889540566959922
1.855327468230694
1.8240469208211143
1.7956989247311828
1.7634408602150538
1.7282502443792769
1.6920821114369502
1.6549364613880744
1.6177908113391983
1.5806451612903225
1.543499511241447
1.5073313782991202
1.4731182795698925
1.439882697947214
1.409579667644184
1.3851417399804498
1.364613880742913
1.3421309872922775
1.3186705767350928
1.2961876832844574
1.273704789833822
1.252199413489736
1.2336265884652982
1.2160312805474096
1.2003910068426198
1.1857282502443791
1.1720430107526882
1.1622678396871946
1.1544477028347997
1.1456500488758554
1.1358748778103618
1.1251221896383188
1.1143695014662756
1.1036168132942326
1.093841642228739
1.0840664711632453
1.075268817204301
1.0664711632453567
1.0586510263929618
1.050830889540567
1.0469208211143697
1.0449657869012707
1.0410557184750733
1.0361681329423265
1.032258064516129
1.0283479960899315
1.024437927663734
1.0205278592375366
1.0166177908113392
1.013685239491691
1.0117302052785924
1.0097751710654936
1.010752688172043
1.013685239491691
1.0146627565982405
1.0146627565982405
1.013685239491691
1.0127077223851415
1.0166177908113392
1.0303030303030305
1.0586510263929618
1.10752688172043
1.1827956989247312
1.2864125122189638
1.4173998044965788
1.547409579667644
1.6823069403714566
1.8435972629521016
2.013685239491691
2.179863147605083
2.333333333333333
2.469208211143695
2.58455522971652
2.679374389051808
2.757575757575758
2.820136852394917
2.870967741935484
2.9042033235581624
2.9266862170087977
2.9501466275659824
2.9696969696969697
2.9853372434017595
2.995112414467253
2.99902248289345
2.9960899315738025
2.98435972629521
2.962854349951124
2.930596285434995
2.886608015640274
2.831867057673509
2.773216031280548
2.708699902248289
2.633431085043988
2.5513196480938416
2.4652981427174976
2.3792766373411536
2.297165200391007
2.220918866080156
2.1524926686217007
2.0928641251221896
2.0410557184750733
1.9960899315738023
1.9608993157380252
1.9296187683284456
1.8983382209188664
1.8670576735092863
1.8347996089931573
1.801564027370479
1.7663734115347018
1.7302052785923754
1.694037145650049
1.656891495601173
1.619745845552297
1.5835777126099706
1.547409579667644
1.5180840664711632
1.4926686217008798
1.4643206256109482
1.435972629521017
1.4076246334310851
1.380254154447703
1.3548387096774193
1.3294232649071358
1.305962854349951
1.2834799608993157
1.262952101661779
1.2434017595307918
1.2287390029325511
1.2179863147605083
1.2052785923753666
1.1915933528836755
1.1779081133919844
1.164222873900293
1.1505376344086022
1.1378299120234605
1.1251221896383188
1.1133919843597262
1.1016617790811338
1.0899315738025417
1.0791788856304985
1.0733137829912025
1.0694037145650048
1.0625610948191593
1.0547409579667644
1.0449657869012707
1.035190615835777
1.0273704789833822
1.0205278592375366
1.013685239491691
1.007820136852395
1.002932551319648
0.9990224828934506
0.9990224828934506
1.0
0.9990224828934506
0.9960899315738024
0.9941348973607038
0.9921798631476052
0.9902248289345064
0.9872922776148584
0.9853372434017597
0.9843597262952102
0.9853372434017597
0.9912023460410556
1.0087976539589445
1.0361681329423265
1.078201368523949
1.1466275659824048
1.2434017595307918
1.3685239491691104
1.517106549364614
1.683284457478006
1.858260019550342
2.03128054740958
2.1945259042033234
2.3411534701857284
2.466275659824047
2.558162267839687
2.625610948191593
2.6852394916911044
2.7341153470185726
2.7722385141739982
2.80058651026393
2.8211143695014664
2.833822091886608
2.8396871945259043
2.838709677419355
2.831867057673509
2.8181818181818183
2.7966764418377323
2.76930596285435
2.7341153470185726
2.6901270772238512
2.638318670576735
2.578690127077224
2.512218963831867
2.4408602150537635
2.366568914956012
2.2932551319648096
2.222873900293255
2.156402737047898
2.096774193548387
2.046920821114369
2.005865102639296
1.9667644183773216
1.9305962854349952
1.8973607038123168
1.866080156402737
1.8347996089931573
1.8025415444770283
1.7683284457478006
1.7331378299120237
1.6959921798631477
1.6578690127077225
1.6177908113391983
1.5826001955034212
1.5503421309872922
1.5131964809384164
1.474095796676442
1.434017595307918
1.3949169110459434
1.3577712609970674
1.3225806451612905
1.289345063538612
1.2590420332355816
1.2326490713587488
1.2082111436950147
1.1915933528836755
1.1788856304985338
1.1652003910068427
1.152492668621701
1.141739980449658
1.1329423264907137
1.126099706744868
1.1202346041055715
1.1163245356793745
1.1143695014662756
1.1124144672531768
1.110459433040078
1.110459433040078
1.1114369501466277
1.110459433040078
1.10752688172043
1.1026392961876832
1.096774193548387
1.0899315738025417
1.083088954056696
1.075268817204301
1.0664711632453567
1.0576735092864125
1.0478983382209188
1.0381231671554252
1.032258064516129
1.0273704789833822
1.018572825024438
1.0068426197458455
0.9941348973607038
0.981427174975562
0.9696969696969696
0.9589442815249268
0.9511241446725318
0.9452590420332356
0.9413489736070382
0.93841642228739
0.9393939393939394
0.9433040078201368
0.9472140762463344
0.9550342130987292
0.9696969696969696
0.9990224828934506
1.0478983382209188
1.1221896383186705
1.224828934506354
1.3548387096774193
1.509286412512219
1.6803519061583578
1.86119257086999
2.0175953079178885
2.155425219941349
2.2981427174975564
2.432062561094819
2.549364613880743
2.649071358748778
2.730205278592375
2.795698924731183
2.8484848484848486
2.8914956011730206
2.9266862170087977
2.95405669599218
2.9687194525904204
2.9745845552297165
2.9804496578690127
2.983382209188661
2.979472140762464
2.967741935483871
2.9472140762463344
2.9159335288367547
2.874877810361681
2.822091886608016
2.758553274682307
2.686217008797654
2.606060606060606
2.530791788856305
2.4574780058651027
2.3792766373411536
2.3010752688172045
2.2267839687194524
2.1593352883675463
2.0987292277614857
2.046920821114369
2.0009775171065494
1.9608993157380252
1.924731182795699
1.8914956011730208
1.8621700879765395
1.835777126099707
1.8064516129032255
1.775171065493646
1.7419354838709675
1.7086999022482894
1.675464320625611
1.6412512218963833
1.607038123167155
1.5728250244379276
1.5386119257087
1.5053763440860215
1.4731182795698925
1.4467253176930597
1.4242424242424243
1.3998044965786902
1.375366568914956
1.3519061583577712
1.3294232649071358
1.3079178885630498
1.2873900293255132
1.267839687194526
1.2482893450635386
1.23069403714565
1.2140762463343109
1.2023460410557183
1.1935483870967742
1.181818181818182
1.1691104594330402
1.1564027370478984
1.1436950146627567
1.130987292277615
1.1202346041055715
1.1094819159335287
1.099706744868035
1.0899315738025417
1.0821114369501466
1.075268817204301
1.072336265884653
1.0713587487781036
1.0684261974584557
1.064516129032258
1.0596285434995112
1.0547409579667644
1.0498533724340176
1.0449657869012707
1.040078201368524
1.035190615835777
1.0312805474095796
1.0273704789833822
1.0273704789833822
1.029325513196481
1.0303030303030305
1.029325513196481
1.0273704789833822
1.024437927663734
1.021505376344086
1.0205278592375366
1.0254154447702837
1.0410557184750733
1.0733137829912025
1.1290322580645162
1.2130987292277615
1.3069403714565004
1.41544477028348
1.5581622678396871
1.721407624633431
1.895405669599218
2.0684261974584555
2.231671554252199
2.378299120234604
2.506353861192571
2.613880742913001
2.702834799608993
2.7751710654936463
2.825024437927664
2.860215053763441
2.8963831867057674
2.929618768328446
2.9579667644183774
2.981427174975562
2.99902248289345
3.0097751710654936
3.0127077223851417
3.007820136852395
2.9931573802541545
2.964809384164223
2.924731182795699
2.8807429130009776
2.83088954056696
2.7722385141739982
2.704789833822092
2.63049853372434
2.5513196480938416
2.4701857282502444
2.389051808406647
2.3098729227761488
2.236559139784946
2.16911045943304
2.1094819159335287
2.06158357771261
2.022482893450636
1.9853372434017595
1.951124144672532
1.9188660801564028
1.8885630498533723
1.8592375366568916
1.8299120234604105
1.7996089931573802
1.7683284457478006
1.7350928641251222
1.7008797653958945
1.6656891495601174
1.6344086021505375
1.6050830889540566
1.5728250244379276
1.5405669599217986
1.509286412512219
1.479960899315738
1.452590420332356
1.4271749755620724
1.401759530791789
1.3782991202346042
1.3558162267839686
1.3333333333333333
1.316715542521994
1.303030303030303
1.2873900293255132
1.270772238514174
1.2541544477028348
1.2375366568914956
1.2209188660801564
1.2052785923753666
1.1906158357771262
1.1759530791788857
1.1622678396871946
1.1485826001955035
1.1407624633431086
1.1348973607038124
1.1270772238514175
1.118279569892473
1.110459433040078
1.1036168132942326
1.0977517106549364
1.0928641251221896
1.0879765395894427
1.083088954056696
1.078201368523949
1.0733137829912025
1.0684261974584557
1.0664711632453567
1.067448680351906
1.0654936461388074
1.0625610948191593
1.0596285434995112
1.0586510263929618
1.0576735092864125
1.0576735092864125
1.0576735092864125
1.056695992179863
1.0557184750733135
1.0547409579667644
1.0586510263929618
1.067448680351906
1.0840664711632453
1.115347018572825
1.166177908113392
1.2424242424242424
1.346041055718475
1.4750733137829912
1.624633431085044
1.7859237536656891
1.951124144672532
2.1114369501466275
2.259042033235582
2.3743890518084068
2.466275659824047
2.5532746823069403
2.6295210166177907
2.6930596285435
2.745845552297165
2.789833822091887
2.8260019550342133
2.855327468230694
2.878787878787879
2.895405669599218
2.906158357771261
2.9071358748778104
2.8993157380254155
2.887585532746823
2.868035190615836
2.8406647116324537
2.803519061583578
2.757575757575758
2.701857282502444
2.6373411534701856
2.565982404692082
2.489736070381232
2.410557184750733
2.332355816226784
2.2639296187683287
2.203323558162268
2.142717497556207
2.0869990224828934
2.038123167155425
1.9960899315738023
1.9589442815249267
1.924731182795699
1.89247311827957
1.8621700879765395
1.8318670576735088
1.8005865102639296
1.7732160312805474
1.747800586510264
1.718475073313783
1.686217008797654
1.6529814271749756
1.6187683284457477
1.58455522971652
1.5513196480938416
1.5190615835777126
1.487781036168133
1.457478005865103
1.4291300097751711
1.4027370478983383
1.3822091886608017
1.364613880742913
1.3450635386119256
1.3255131964809383
1.3049853372434017
1.2854349951124144
1.2668621700879763
1.249266862170088
1.2326490713587488
1.217008797653959
1.2023460410557183
1.187683284457478
1.1779081133919844
1.1710654936461389
1.1612903225806452
1.1505376344086022
1.1397849462365592
1.1280547409579669
1.1163245356793745
1.1055718475073313
1.0957966764418376
1.0869990224828934
1.078201368523949
1.0694037145650048
1.06158357771261
1.0586510263929618
1.056695992179863
1.0527859237536656
1.0478983382209188
1.0420332355816226
1.0371456500488758
1.032258064516129
1.0273704789833822
1.0234604105571847
1.021505376344086
1.0195503421309873
1.018572825024438
1.0195503421309873
1.0224828934506354
1.0224828934506354
1.021505376344086
1.0234604105571847
1.0312805474095796
1.0498533724340176
1.0850439882697946
1.142717497556207
1.2267839687194526
1.33822091886608
1.4750733137829912
1.6304985337243405
1.7741935483870968
1.911045943304008
2.060606060606061
2.209188660801564
2.345063538611926
2.464320625610948
2.5650048875855327
2.6471163245356792
2.7126099706744866
2.764418377321604
2.806451612903226
2.8406647116324537
2.86217008797654
2.875855327468231
2.889540566959922
2.900293255131965
2.906158357771261
2.905180840664712
2.8963831867057674
2.878787878787879
2.8514173998044967
2.814271749755621
2.766373411534702
2.708699902248289
2.643206256109482
2.5777126099706744
2.5102639296187683
2.4359726295210167
2.3597262952101663
2.2844574780058653
2.2140762463343107
2.1495601173020527
2.0928641251221896
2.043010752688172
2.0
1.9618768328445748
1.927663734115347
1.8993157380254155
1.8729227761485825
1.844574780058651
1.8142717497556209
1.782991202346041
1.750733137829912
1.718475073313783
1.6852394916911049
1.651026392961877
1.6177908113391983
1.585532746823069
1.5542521994134897
1.5239491691104594
1.499511241446725
1.47702834799609
1.452590420332356
1.4271749755620724
1.401759530791789
1.3782991202346042
1.356793743890518
1.3362658846529814
1.3176930596285434
1.300097751710655
1.2834799608993157
1.267839687194526
1.2570869990224829
1.2473118279569892
1.2346041055718475
1.2209188660801564
1.2072336265884651
1.1915933528836755
1.1749755620723363
1.1612903225806452
1.1485826001955035
1.1368523949169111
1.1270772238514175
1.118279569892473
1.1094819159335287
1.104594330400782
1.1026392961876832
1.0977517106549364
1.0909090909090908
1.0840664711632453
1.078201368523949
1.0733137829912025
1.0684261974584557
1.064516129032258
1.0596285434995112
1.0547409579667644
1.0498533724340176
1.0488758553274682
1.0498533724340176
1.0488758553274682
1.04594330400782
1.043010752688172
1.0391006842619743
1.035190615835777
1.032258064516129
1.0312805474095796
1.035190615835777
1.0498533724340176
1.0801564027370478
1.1231671554252198
1.1837732160312806
1.2746823069403714
1.3949169110459434
1.5395894428152492
1.7018572825024438
1.873900293255132
2.04594330400782
2.209188660801564
2.357771260997068
2.486803519061584
2.595307917888563
2.684261974584555
2.745845552297165
2.789833822091887
2.831867057673509
2.8690127077223853
2.9012707722385143
2.927663734115347
2.948191593352884
2.962854349951124
2.970674486803519
2.9716520039100685
2.962854349951124
2.9442815249266863
2.917888563049853
2.881720430107527
2.8367546432062563
2.7810361681329425
2.7145650048875853
2.641251221896383
2.5620723362658846
2.479960899315738
2.3978494623655915
2.3196480938416424
2.247311827956989
2.1818181818181817
2.124144672531769
2.0772238514174
2.038123167155425
2.0009775171065494
1.9657869012707725
1.932551319648094
1.900293255131965
1.868035190615836
1.8347996089931573
1.801564027370479
1.7673509286412512
1.732160312805474
1.6959921798631477
1.664711632453568
1.635386119257087
1.603128054740958
1.5708699902248289
1.5395894428152492
1.5083088954056696
1.478005865102639
1.4486803519061584
1.4203323558162269
1.392961876832845
1.367546432062561
1.343108504398827
1.3196480938416422
1.3020527859237536
1.2883675464320623
1.2727272727272727
1.2570869990224829
1.241446725317693
1.2267839687194526
1.2140762463343109
1.2013685239491692
1.1896383186705768
1.1779081133919844
1.1671554252199414
1.1564027370478984
1.1495601173020529
1.144672531769306
1.1378299120234605
1.1300097751710656
1.1221896383186705
1.1143695014662756
1.1085043988269794
1.1026392961876832
1.096774193548387
1.0918866080156402
1.0869990224828934
1.083088954056696
1.0791788856304985
1.078201368523949
1.0791788856304985
1.0772238514173995
1.075268817204301
1.072336265884653
1.0703812316715542
1.0694037145650048
1.067448680351906
1.0654936461388074
1.0625610948191593
1.0596285434995112
1.0576735092864125
1.0596285434995112
1.0684261974584557
1.0850439882697946
1.1173020527859236
1.1710654936461389
1.2502443792766371
1.3577712609970674
1.4926686217008798
1.6490713587487782
1.818181818181818
1.992179863147605
2.161290322580645
2.317693059628544
2.4408602150537635
2.539589442815249
2.634408602150537
2.717497556207233
2.787878787878788
2.8455522971652005
2.89247311827957
2.930596285434995
2.960899315738025
2.98435972629521
3.0009775171065494
3.010752688172043
3.0097751710654936
3.0009775171065494
2.9872922776148583
2.9667644183773216
2.93841642228739
2.8993157380254155
2.850439882697948
2.790811339198436
2.7223851417399803
2.64613880742913
2.5650048875855327
2.4819159335288368
2.40078201368524
2.329423264907136
2.2658846529814274
2.204301075268817
2.146627565982405
2.093841642228739
2.046920821114369
2.005865102639296
1.9687194525904204
1.9345063538611929
1.9012707722385145
1.868035190615836
1.8347996089931573
1.804496578690127
1.7761485826001957
1.7438905180840665
1.7096774193548387
1.6735092864125125
1.6373411534701858
1.6021505376344083
1.56891495601173
1.5366568914956011
1.504398826979472
1.474095796676442
1.444770283479961
1.4173998044965788
1.3958944281524928
1.3773216031280548
1.356793743890518
1.3362658846529814
1.316715542521994
1.2981427174975562
1.281524926686217
1.2649071358748778
1.2502443792766371
1.2365591397849462
1.2238514173998043
1.2111436950146628
1.2023460410557183
1.195503421309873
1.1867057673509287
1.1759530791788857
1.166177908113392
1.1564027370478984
1.147605083088954
1.13880742913001
1.130987292277615
1.1241446725317692
1.118279569892473
1.1124144672531768
1.10752688172043
1.1055718475073313
1.1055718475073313
1.1026392961876832
1.0987292277614855
1.093841642228739
1.088954056695992
1.0850439882697946
