ppg
1.595307917888563
1.573802541544477
1.5581622678396871
1.5493646138807429
1.5464320625610948
1.5483870967741935
1.5532746823069403
1.5610948191593352
1.5698924731182795
1.5796676441837731
1.590420332355816
1.6021505376344083
1.6138807429130009
1.624633431085044
1.6344086021505375
1.643206256109482
1.651026392961877
1.6588465298142718
1.667644183773216
1.6774193548387095
1.6881720430107527
1.6989247311827955
1.710654936461388
1.7253176930596286
1.7419354838709675
1.7595307917888563
1.7790811339198436
1.7996089931573802
1.8211143695014664
1.842619745845552
1.865102639296188
1.8866080156402736
1.9071358748778104
1.9227761485826005
1.9364613880742916
1.951124144672532
1.967741935483871
1.986314760508309
2.006842619745845
2.0303030303030303
2.058651026392962
2.089931573802541
2.12316715542522
2.158357771260997
2.1925708699902247
2.2238514173998043
2.24633431085044
2.2629521016617797
2.278592375366569
2.291300097751711
2.2991202346041058
2.302052785923754
2.300097751710655
2.2932551319648096
2.280547409579668
2.2639296187683287
2.244379276637341
2.2218963831867056
2.198435972629521
2.174975562072336
2.1495601173020527
2.1221896383186705
2.0928641251221896
2.06158357771261
2.027370478983382
1.989247311827957
1.949169110459433
1.90811339198436
1.866080156402737
1.8240469208211143
1.782991202346041
1.747800586510264
1.7145650048875856
1.678396871945259
1.6392961876832846
1.5992179863147604
1.5581622678396871
1.517106549364614
1.4760508308895406
1.4349951124144673
1.3949169110459434
1.3558162267839686
1.316715542521994
1.284457478005865
1.2561094819159335
1.224828934506354
1.1935483870967742
1.166177908113392
1.1436950146627567
1.1290322580645162
1.1221896383186705
1.1241446725317692
1.1348973607038124
1.152492668621701
1.176930596285435
1.2043010752688172
1.23069403714565
1.2551319648093842
1.2776148582600195
1.2942326490713587
1.305962854349951
1.3128054740957966
1.3157380254154447
1.316715542521994
1.3186705767350928
1.3235581622678396
1.332355816226784
1.346041055718475
1.3626588465298142
1.383186705767351
1.4086021505376345
1.4389051808406648
1.4721407624633431
1.5063538611925709
1.5395894428152492
1.5718475073313782
1.6021505376344083
1.632453567937439
1.6627565982404693
1.6950146627565983
1.729227761485826
1.7605083088954057
1.7917888563049853
1.827956989247312
1.866080156402737
1.9042033235581624
1.9413489736070384
1.975562072336266
2.006842619745845
2.034213098729228
2.0576735092864125
2.0762463343108504
2.09188660801564
2.101661779081134
2.1065493646138806
2.1094819159335287
2.10850439882698
2.104594330400782
2.096774193548387
2.086021505376344
2.0733137829912023
2.058651026392962
2.043010752688172
2.027370478983382
2.013685239491691
2.0009775171065494
1.9902248289345064
1.981427174975562
1.9745845552297163
1.9696969696969695
1.9657869012707725
1.9618768328445748
1.956989247311828
1.9521016617790807
1.9442815249266865
1.9345063538611929
1.9227761485826005
1.9090909090909087
1.895405669599218
1.881720430107527
1.8670576735092863
1.8514173998044965
1.836754643206256
1.8240469208211143
1.8113391984359728
1.8005865102639296
1.7898338220918866
1.7790811339198436
1.7683284457478006
1.7575757575757576
1.747800586510264
1.739980449657869
1.7331378299120237
1.726295210166178
1.7194525904203324
1.7135874877810362
1.7096774193548387
1.70772238514174
1.70772238514174
1.7116324535679377
1.7194525904203324
1.7311827956989247
1.747800586510264
1.7653958944281525
1.7859237536656891
1.812316715542522
1.8435972629521016
1.878787878787879
1.916911045943304
1.9579667644183771
2.0
2.0410557184750733
2.080156402737048
2.115347018572825
2.146627565982405
2.16911045943304
2.185728250244379
2.2023460410557183
2.2160312805474094
2.2277614858260018
2.2375366568914954
2.2453567937438903
2.251221896383187
2.2551319648093844
2.2580645161290325
2.259042033235582
2.257086999022483
2.2531769305962857
2.24633431085044
2.2375366568914954
2.228739002932551
2.218963831867057
2.209188660801564
2.20039100684262
2.1925708699902247
2.185728250244379
2.1808406647116323
2.175953079178885
2.1700879765395893
2.163245356793744
2.15347018572825
2.1417399804496577
2.1270772238514173
2.1094819159335287
2.088954056695992
2.0664711632453567
2.043010752688172
2.0195503421309877
1.9960899315738023
1.9736070381231672
1.951124144672532
1.9286412512218964
1.905180840664712
1.8836754643206255
1.8621700879765395
1.8347996089931573
1.8035190615835777
1.7683284457478006
1.7302052785923754
1.6920821114369502
1.653958944281525
1.619745845552297
1.5884652981427174
1.5620723362658846
1.5405669599217986
1.525904203323558
1.5161290322580645
1.543499511241447
1.5923753665689149
1.6207233626588464
1.64613880742913
1.6793743890518085
1.7272727272727273
1.7927663734115349
1.8758553274682308
1.9745845552297163
2.086021505376344
2.2082111436950145
2.317693059628544
2.421309872922776
2.5386119257087
2.6608015640273703
2.7810361681329425
2.8963831867057674
3.004887585532747
3.1055718475073317
3.196480938416422
3.27761485826002
3.3489736070381237
3.4115347018572826
3.4545454545454546
3.484848484848485
3.517106549364614
3.547409579667644
3.5747800586510263
3.5972629521016617
3.6158357771261
3.628543499511241
3.635386119257087
3.633431085043988
3.621700879765396
3.601173020527859
3.572825024437928
3.5376344086021505
3.4975562072336266
3.455522971652004
3.412512218963832
3.3704789833822093
3.3284457478005867
3.2844574780058653
3.2355816226783967
3.1818181818181817
3.121212121212121
3.0557184750733137
2.986314760508309
2.921798631476051
2.860215053763441
2.7996089931573804
2.744868035190616
2.699902248289345
2.6666666666666665
2.64613880742913
2.636363636363636
2.635386119257087
2.6373411534701856
2.6402737047898337
2.638318670576735
2.6295210166177907
2.613880742913001
2.590420332355816
2.558162267839687
2.5180840664711632
2.472140762463343
2.423264907135875
2.3714565004887587
2.317693059628544
2.2629521016617797
2.207233626588465
2.1495601173020527
2.088954056695992
2.035190615835777
1.9843597262952104
1.927663734115347
1.870967741935484
1.8201368523949168
1.7781036168132942
1.7468230694037146
1.7272727272727273
1.7194525904203324
1.721407624633431
1.7302052785923754
1.7429130009775171
1.7565982404692082
1.7683284457478006
1.7781036168132942
1.7849462365591398
1.7869012707722385
1.782991202346041
1.772238514173998
1.7565982404692082
1.7350928641251222
1.7086999022482894
1.6793743890518085
1.6480938416422288
1.6148582600195502
1.5865102639296187
1.560117302052786
1.5288367546432062
1.4936461388074291
1.456500488758553
1.4173998044965788
1.3763440860215057
1.335288367546432
1.2942326490713587
1.2551319648093842
1.2179863147605083
1.1827956989247312
1.1515151515151516
1.1300097751710656
1.115347018572825
1.0987292277614855
1.0821114369501466
1.0684261974584557
1.0576735092864125
1.0488758553274682
1.0420332355816226
1.0361681329423265
1.0312805474095796
1.0283479960899315
1.0254154447702837
1.0263929618768328
1.0303030303030305
1.0303030303030305
1.029325513196481
1.0283479960899315
1.0273704789833822
1.0254154447702837
1.024437927663734
1.024437927663734
1.024437927663734
1.0254154447702837
1.0263929618768328
1.0273704789833822
1.032258064516129
1.0371456500488758
1.0371456500488758
1.032258064516129
1.024437927663734
1.0146627565982405
1.0039100684261977
0.9951124144672532
0.9902248289345064
0.9912023460410556
1.0
1.018572825024438
1.0449657869012707
1.0791788856304985
1.121212121212121
1.1720430107526882
1.227761485826002
1.2864125122189638
1.3450635386119256
1.401759530791789
1.4535679374389052
1.501466275659824
1.542521994134897
1.576735092864125
1.6041055718475072
1.624633431085044
1.6412512218963833
1.6529814271749756
1.66177908113392
1.667644183773216
1.672531769305963
1.675464320625611
1.6774193548387095
1.6774193548387095
1.675464320625611
1.6715542521994136
1.664711632453568
1.6578690127077225
1.6490713587487782
1.6344086021505375
1.6158357771260996
1.595307917888563
1.5728250244379276
1.5513196480938416
1.5298142717497556
1.509286412512219
1.490713587487781
1.4731182795698925
1.457478005865103
1.447702834799609
1.4418377321603129
1.4349951124144673
1.4291300097751711
1.3978494623655917
1.401759530791789
1.4115347018572826
1.4320625610948192
1.4643206256109482
1.509286412512219
1.5669599217986314
1.6344086021505375
1.7096774193548387
1.7790811339198436
1.8435972629521016
1.913978494623656
1.9824046920821117
2.046920821114369
2.104594330400782
2.1544477028347995
2.196480938416422
2.231671554252199
2.259042033235582
2.280547409579668
2.2961876832844577
2.304007820136853
2.3069403714565007
2.3059628543499517
2.302052785923754
2.2932551319648096
2.280547409579668
2.2639296187683287
2.242424242424242
2.2160312805474094
2.185728250244379
2.1515151515151514
2.114369501466276
2.0762463343108504
2.0410557184750733
2.0087976539589443
1.9736070381231672
1.9374389051808407
1.903225806451613
1.870967741935484
1.8416422287390029
1.81524926686217
1.747800586510264
1.6627565982404693
1.6148582600195502
1.5865102639296187
1.5698924731182795
1.560117302052786
1.5513196480938416
1.544477028347996
1.5376344086021505
1.530791788856305
1.5239491691104594
1.5161290322580645
1.5073313782991202
1.498533724340176
1.4897360703812317
1.479960899315738
1.4701857282502444
1.4623655913978495
1.456500488758553
1.4486803519061584
1.439882697947214
1.43108504398827
1.4213098729227762
1.4115347018572826
1.401759530791789
1.391006842619746
1.3812316715542523
1.3714565004887584
1.3626588465298142
1.3577712609970674
1.3577712609970674
1.3607038123167154
1.370478983382209
1.388074291300098
1.4134897360703813
1.447702834799609
1.490713587487781
1.5395894428152492
1.5933528836754642
1.6480938416422288
1.7028347996089932
1.7546432062561097
1.796676441837732
1.8318670576735088
1.866080156402737
1.8963831867057677
1.9227761485826005
1.943304007820137
1.9579667644183771
1.9687194525904204
1.9745845552297163
1.9765395894428155
1.9745845552297163
1.9687194525904204
1.9618768328445748
1.9521016617790807
1.9393939393939397
1.9237536656891496
1.905180840664712
1.8836754643206255
1.8592375366568916
1.8318670576735088
1.8035190615835777
1.7741935483870968
1.7438905180840665
1.7135874877810362
1.6842619745845553
1.6598240469208212
1.6392961876832846
1.6187683284457477
1.5992179863147604
1.5826001955034212
1.5679374389051808
1.5562072336265884
1.5454545454545454
1.5356793743890518
1.5278592375366569
1.521016617790811
1.5141739980449658
1.5102639296187683
1.5073313782991202
1.5034213098729228
1.499511241446725
1.4946236559139785
1.4897360703812317
1.4838709677419355
1.478005865102639
1.4731182795698925
1.4682306940371457
1.4633431085043989
1.4594330400782014
1.455522971652004
1.4535679374389052
1.452590420332356
1.4496578690127078
1.4467253176930597
1.4428152492668622
1.4389051808406648
1.4349951124144673
1.43108504398827
1.4281524926686218
1.4291300097751711
1.434017595307918
1.4457478005865103
1.4623655913978495
1.4848484848484849
1.517106549364614
1.5581622678396871
1.606060606060606
1.6598240469208212
1.7165200391006843
1.7732160312805474
1.828934506353861
1.881720430107527
1.9296187683284456
1.970674486803519
2.005865102639296
2.032258064516129
2.050830889540567
2.067448680351906
2.080156402737048
2.088954056695992
2.093841642228739
2.0957966764418376
2.093841642228739
2.0879765395894427
2.080156402737048
2.0684261974584555
2.053763440860215
2.038123167155425
2.021505376344086
2.0
1.9765395894428155
1.9501466275659824
1.9227761485826005
1.8934506353861196
1.8641251221896384
1.835777126099707
1.8084066471163245
1.782991202346041
1.7595307917888563
1.7390029325513197
1.7223851417399805
1.7096774193548387
1.696969696969697
1.6852394916911049
1.6744868035190617
1.6637341153470186
1.653958944281525
1.6451612903225807
1.635386119257087
1.6265884652981428
1.616813294232649
1.607038123167155
1.6001955034213098
1.5933528836754642
1.585532746823069
1.576735092864125
1.5669599217986314
1.5581622678396871
1.5483870967741935
1.5386119257087
1.5288367546432062
1.520039100684262
1.5112414467253177
1.5024437927663734
1.4965786901270772
1.490713587487781
1.4838709677419355
1.4760508308895406
1.469208211143695
1.4643206256109482
1.4613880742913
1.4643206256109482
1.4731182795698925
1.490713587487781
1.5180840664711632
1.555229716520039
1.6011730205278591
1.6471163245356797
1.6930596285434996
1.747800586510264
1.8064516129032255
1.8641251221896384
1.9178885630498532
1.967741935483871
2.0117302052785924
2.048875855327468
2.0791788856304985
2.103616813294233
2.1221896383186705
2.132942326490713
2.1388074291300097
2.142717497556207
2.142717497556207
2.139784946236559
2.133919843597263
2.124144672531769
2.1114369501466275
2.0957966764418376
2.0762463343108504
2.053763440860215
2.0283479960899315
2.0009775171065494
1.9745845552297163
1.948191593352884
1.9178885630498532
1.8856304985337244
1.8533724340175952
1.822091886608016
1.7927663734115349
1.7663734115347018
1.7419354838709675
1.7194525904203324
1.699902248289345
1.683284457478006
1.6705767350928642
1.6608015640273706
1.651026392961877
1.640273704789834
1.6304985337243405
1.6207233626588464
1.6109481915933528
1.6011730205278591
1.5923753665689149
1.5835777126099706
1.573802541544477
1.564027370478983
1.5542521994134897
1.547409579667644
1.541544477028348
1.533724340175953
1.525904203323558
1.517106549364614
1.5083088954056696
1.498533724340176
1.4887585532746823
1.478983382209189
1.4682306940371457
1.458455522971652
1.4486803519061584
1.4418377321603129
1.436950146627566
1.4320625610948192
1.4301075268817205
1.4330400782013686
1.4428152492668622
1.4613880742913
1.4897360703812317
1.5278592375366569
1.5747800586510263
1.629521016617791
1.689149560117302
1.750733137829912
1.804496578690127
1.8523949169110456
2.050830889540567
2.337243401759531
2.5288367546432062
2.662756598240469
2.7595307917888565
2.8299120234604107
2.8797653958944283
2.9149560117302054
2.9374389051808407
2.9472140762463344
2.946236559139785
2.93841642228739
2.9266862170087977
2.90811339198436
2.8807429130009776
2.8455522971652005
2.803519061583578
2.7536656891495603
2.6959921798631474
2.631476050830889
2.5610948191593352
2.4858260019550342
2.406647116324536
2.3362658846529816
2.271749755620724
2.203323558162268
2.1358748778103616
2.072336265884653
2.013685239491691
1.9608993157380252
1.9120234604105573
1.8670576735092863
1.826001955034213
1.7898338220918866
1.7575757575757576
1.732160312805474
1.7126099706744868
1.6920821114369502
1.672531769305963
1.6529814271749756
1.6334310850439884
1.6138807429130009
1.595307917888563
1.576735092864125
1.5571847507331378
1.5366568914956011
1.517106549364614
1.498533724340176
1.4838709677419355
1.4721407624633431
1.457478005865103
1.4418377321603129
1.4252199413489737
1.4076246334310851
1.3890518084066472
1.370478983382209
1.3528836754643203
1.3372434017595307
1.3255131964809383
1.321603128054741
1.3284457478005864
1.3470185728250244
1.3812316715542523
1.436950146627566
1.5161290322580645
1.6187683284457477
1.7419354838709675
1.8797653958944285
2.026392961876833
2.176930596285435
2.324535679374389
2.463343108504399
2.591397849462365
2.6911045943304006
2.76930596285435
2.844574780058651
2.909090909090909
2.959921798631476
2.997067448680352
3.021505376344086
3.0332355816226784
3.035190615835777
3.027370478983382
3.0117302052785924
2.9872922776148583
2.956989247311828
2.921798631476051
2.878787878787879
2.8269794721407626
2.768328445747801
2.702834799608993
2.631476050830889
2.5562072336265884
2.4780058651026398
2.39980449657869
2.324535679374389
2.2531769305962857
2.1867057673509285
2.131964809384164
2.086021505376344
2.040078201368524
1.9980449657869013
1.959921798631476
1.9266862170087975
1.8983382209188664
1.8729227761485825
1.8484848484848484
1.826001955034213
1.804496578690127
1.782991202346041
1.7653958944281525
1.7497556207233629
1.7302052785923754
1.70772238514174
1.6842619745845553
1.6598240469208212
1.6334310850439884
1.607038123167155
1.581622678396872
1.5562072336265884
1.5317693059628543
1.5073313782991202
1.487781036168133
1.4701857282502444
1.4486803519061584
1.426197458455523
1.4027370478983383
1.3792766373411536
1.3577712609970674
1.3391984359726294
1.327468230694037
1.3255131964809383
1.3401759530791788
1.3743890518084063
1.4320625610948192
1.499511241446725
1.5835777126099706
1.696969696969697
1.8328445747800584
1.9833822091886608
2.1407624633431084
2.2981427174975564
2.4486803519061584
2.5865102639296187
2.708699902248289
2.8152492668621703
2.903225806451613
2.964809384164223
3.006842619745845
3.043010752688172
3.069403714565005
3.086021505376344
3.090909090909091
3.086021505376344
3.0733137829912023
3.050830889540567
3.018572825024438
2.979472140762464
2.9315738025415445
2.874877810361681
2.817204301075269
2.7565982404692084
2.686217008797654
2.6070381231671558
2.5239491691104594
2.4379276637341154
2.3519061583577714
2.2668621700879767
2.1847507331378297
2.10752688172043
2.0361681329423265
1.9716520039100685
1.919843597262952
1.8758553274682308
1.8318670576735088
1.7917888563049853
1.7556207233626588
1.7223851417399805
1.6911045943304008
1.6598240469208212
1.6285434995112416
1.5962854349951123
1.564027370478983
1.5298142717497556
1.495601173020528
1.4672531769305963
1.4418377321603129
1.4115347018572826
1.3782991202346042
1.3440860215053765
1.3118279569892473
1.281524926686217
1.2531769305962854
1.2267839687194526
1.2023460410557183
1.1798631476050832
1.1583577712609971
1.142717497556207
1.130987292277615
1.1133919843597262
1.0928641251221896
1.0742913000977516
1.0606060606060606
1.0547409579667644
1.0606060606060606
1.0850439882697946
1.1319648093841643
1.203323558162268
1.300097751710655
1.4193548387096775
1.5376344086021505
1.6578690127077225
1.7986314760508308
1.946236559139785
2.090909090909091
2.2277614858260018
2.3528836754643208
2.463343108504399
2.557184750733138
2.633431085043988
2.6930596285435
2.73802541544477
2.766373411534702
2.782991202346041
2.795698924731183
2.8025415444770285
2.803519061583578
2.798631476050831
2.78494623655914
2.7624633431085046
2.730205278592375
2.686217008797654
2.63049853372434
2.5640273704789838
2.4858260019550342
2.409579667644184
2.333333333333333
2.2453567937438903
2.1524926686217007
2.060606060606061
1.9716520039100685
1.8905180840664717
1.8162267839687196
1.750733137829912
1.6930596285434996
1.643206256109482
1.598240469208211
1.564027370478983
1.5366568914956011
1.5073313782991202
1.478005865102639
1.4516129032258065
1.4271749755620724
1.4056695992179864
1.3861192570869991
1.3685239491691104
1.3391984359726294
1.3020527859237536
1.2756598240469208
1.2531769305962854
1.2375366568914956
1.224828934506354
1.209188660801564
1.1915933528836755
1.173998044965787
1.1564027370478984
1.13880742913001
1.1192570869990224
1.099706744868035
1.0801564027370478
1.0596285434995112
1.040078201368524
1.0273704789833822
1.021505376344086
1.0175953079178883
1.0234604105571847
1.0439882697947214
1.083088954056696
1.144672531769306
1.2316715542521994
1.3411534701857282
1.4682306940371457
1.6099706744868034
1.7595307917888563
1.9100684261974583
2.0391006842619745
2.15347018572825
2.271749755620724
2.383186705767351
2.482893450635386
2.567937438905181
2.6392961876832843
2.695014662756598
2.7370478983382207
2.7673509286412514
2.7859237536656893
2.792766373411535
2.788856304985337
2.776148582600196
2.755620723362659
2.7253176930596283
2.686217008797654
2.638318670576735
2.582600195503421
2.520039100684262
2.449657869012708
2.375366568914956
2.297165200391007
2.2160312805474094
2.133919843597263
2.0635386119257086
2.0009775171065494
1.9374389051808407
1.87683284457478
1.825024437927664
1.7820136852394917
1.747800586510264
1.7223851417399805
1.704789833822092
1.6920821114369502
1.6842619745845553
1.6793743890518085
1.6774193548387095
1.6774193548387095
1.6764418377321604
1.6744868035190617
1.672531769305963
1.6715542521994136
1.672531769305963
1.675464320625611
1.6813294232649072
1.6881720430107527
1.6950146627565983
1.7008797653958945
1.7038123167155426
1.704789833822092
1.7038123167155426
1.699902248289345
1.6911045943304008
1.6793743890518085
1.6637341153470186
1.64613880742913
1.6275659824046922
1.6099706744868034
1.598240469208211
1.5972629521016617
1.6129032258064515
1.6422287390029326
1.689149560117302
1.7653958944281525
1.8729227761485825
2.0117302052785924
2.1818181818181817
2.3792766373411536
2.5972629521016617
2.8260019550342133
3.053763440860215
3.270772238514174
3.466275659824047
3.6148582600195502
3.728250244379277
3.8377321603128056
3.917888563049853
3.959921798631476
3.981427174975562
3.992179863147605
3.997067448680352
4.0
4.000977517106549
3.9872922776148574
3.940371456500489
3.86217008797654
3.7722385141739982
3.6725317693059623
3.5562072336265884
3.429130009775171
3.297165200391007
3.164222873900293
3.03128054740958
2.900293255131965
2.773216031280548
2.6510263929618767
2.5347018572825024
2.4271749755620724
2.3382209188660803
2.260997067448681
2.182795698924731
2.1065493646138806
2.032258064516129
1.959921798631476
1.889540566959922
1.8211143695014664
1.75366568914956
1.6881720430107527
1.6275659824046922
1.5728250244379276
1.525904203323558
1.4926686217008798
1.4711632453567938
1.456500488758553
1.4486803519061584
1.447702834799609
1.4516129032258065
1.457478005865103
1.4643206256109482
1.4701857282502444
1.4750733137829912
1.479960899315738
1.4838709677419355
1.4887585532746823
1.4936461388074291
1.4936461388074291
1.4887585532746823
1.47702834799609
1.4594330400782014
1.439882697947214
1.4222873900293256
1.4105571847507332
1.4105571847507332
1.423264907135875
1.452590420332356
1.4975562072336266
1.5493646138807429
1.607038123167155
1.6793743890518085
1.7605083088954057
1.8435972629521016
1.9257086999022484
2.002932551319648
2.072336265884653
2.132942326490713
2.1837732160312804
2.2248289345063537
2.2580645161290325
2.280547409579668
2.2952101661779083
2.3059628543499517
2.310850439882698
2.30791788856305
2.2981427174975564
2.281524926686217
2.2580645161290325
2.225806451612903
2.185728250244379
2.1378299120234603
2.081133919843597
2.016617790811339
1.9550342130987293
1.8934506353861196
1.818181818181818
1.7350928641251222
1.6471163245356797
1.5542521994134897
1.458455522971652
1.3616813294232648
1.2649071358748778
1.1710654936461389
1.0811339198435972
0.997067448680352
0.9335288367546432
0.8807429130009775
0.820136852394917
0.7546432062561095
0.6823069403714564
0.603128054740958
0.5151515151515151
0.4173998044965787
0.3098729227761486
0.1906158357771261
0.0957966764418377
0.0478983382209188
0.0234604105571847
0.0117302052785923
0.0058651026392961
0.002932551319648
0.0009775171065493
0.0
0.4301075268817204
1.083088954056696
1.4242424242424243
1.607038123167155
1.7086999022482894
1.7673509286412512
1.8025415444770283
1.8240469208211143
1.836754643206256
1.844574780058651
1.8514173998044965
1.8563049853372435
1.858260019550342
1.858260019550342
1.857282502443793
1.857282502443793
1.857282502443793
1.858260019550342
1.8592375366568916
1.86119257086999
1.8641251221896384
1.868035190615836
1.873900293255132
1.8807429130009776
1.8866080156402736
1.89247311827957
1.8973607038123168
1.9012707722385145
1.9042033235581624
1.9071358748778104
1.9090909090909087
1.911045943304008
1.9130009775171064
1.9149560117302051
1.9159335288367547
1.919843597262952
1.9237536656891496
1.9266862170087975
1.927663734115347
