ppg
2.576735092864125
2.532746823069404
2.4838709677419355
2.432062561094819
2.3841642228739004
2.3382209188660803
2.2883675464320627
2.2355816226783967
2.182795698924731
2.129032258064516
2.075268817204301
2.0234604105571847
1.9726295210166176
1.920821114369501
1.870967741935484
1.8240469208211143
1.7849462365591398
1.7487781036168133
1.7126099706744868
1.6803519061583578
1.6520039100684265
1.629521016617791
1.6138807429130009
1.6050830889540566
1.6021505376344083
1.606060606060606
1.616813294232649
1.6334310850439884
1.6500488758553276
1.6686217008797657
1.689149560117302
1.7096774193548387
1.7282502443792769
1.7468230694037146
1.7624633431085044
1.7732160312805474
1.780058651026393
1.7820136852394917
1.780058651026393
1.772238514173998
1.758553274682307
1.7429130009775171
1.7253176930596286
1.704789833822092
1.6842619745845553
1.6627565982404693
1.640273704789834
1.6148582600195502
1.587487781036168
1.5610948191593352
1.5347018572825024
1.5083088954056696
1.4819159335288368
1.4604105571847508
1.4428152492668622
1.426197458455523
1.4115347018572826
1.3978494623655917
1.3841642228739004
1.370478983382209
1.3577712609970674
1.3470185728250244
1.3391984359726294
1.3333333333333333
1.327468230694037
1.3235581622678396
1.3235581622678396
1.3235581622678396
1.3235581622678396
1.3235581622678396
1.3235581622678396
1.3196480938416422
1.3206256109481915
1.3255131964809383
1.33822091886608
1.3616813294232648
1.3988269794721409
1.452590420332356
1.512218963831867
1.5806451612903225
1.672531769305963
1.782991202346041
1.9071358748778104
2.0391006842619745
2.172043010752688
2.302052785923754
2.4222873900293256
2.525904203323558
2.6080156402737047
2.670576735092864
2.7155425219941347
2.739980449657869
2.7497556207233624
2.750733137829912
2.739980449657869
2.719452590420332
2.6881720430107525
2.650048875855328
2.6070381231671558
2.5591397849462365
2.5083088954056696
2.453567937438905
2.398826979472141
2.3499511241446727
2.304007820136853
2.2551319648093844
2.204301075268817
2.1524926686217007
2.1006842619745845
2.047898338220919
1.997067448680352
1.9472140762463344
1.8983382209188664
1.8523949169110456
1.8103616813294232
1.7732160312805474
1.7438905180840665
1.721407624633431
1.7038123167155426
1.6930596285434996
1.689149560117302
1.6901270772238517
1.694037145650049
1.7028347996089932
1.715542521994135
1.732160312805474
1.7517106549364614
1.772238514173998
1.7888563049853372
1.8025415444770283
1.8132942326490715
1.8191593352883677
1.818181818181818
1.8142717497556209
1.8054740957966764
1.7927663734115349
1.7781036168132942
1.7605083088954057
1.739980449657869
1.718475073313783
1.696969696969697
1.6774193548387095
1.656891495601173
1.632453567937439
1.6041055718475072
1.5728250244379276
1.542521994134897
1.5141739980449658
1.4868035190615836
1.4613880742913
1.4379276637341154
1.4164222873900294
1.3988269794721409
1.3870967741935485
1.3773216031280548
1.3665689149560116
1.35386119257087
1.343108504398827
1.332355816226784
1.3225806451612905
1.3157380254154447
1.3098729227761483
1.3049853372434017
1.300097751710655
1.2971652003910068
1.295210166177908
1.295210166177908
1.295210166177908
1.2942326490713587
1.2942326490713587
1.295210166177908
1.300097751710655
1.3147605083088951
1.3421309872922775
1.388074291300098
1.4535679374389052
1.5405669599217986
1.6451612903225807
1.7458455522971652
1.8465298142717497
1.963831867057673
2.0869990224828934
2.207233626588465
2.318670576735093
2.418377321603128
2.5034213098729228
2.56891495601173
2.616813294232649
2.649071358748778
2.665689149560117
2.665689149560117
2.650048875855328
2.624633431085044
2.591397849462365
2.5513196480938416
2.505376344086021
2.455522971652004
2.404692082111437
2.3528836754643208
2.3010752688172045
2.251221896383187
2.2023460410557183
2.1544477028347995
2.112414467253177
2.072336265884653
2.027370478983382
1.981427174975562
1.935483870967742
1.889540566959922
1.8465298142717497
1.8064516129032255
1.76930596285435
1.7360703812316716
1.7086999022482894
1.689149560117302
1.6774193548387095
1.672531769305963
1.672531769305963
1.6764418377321604
1.683284457478006
1.6920821114369502
1.7038123167155426
1.718475073313783
1.7331378299120237
1.7468230694037146
1.758553274682307
1.76930596285435
1.7781036168132942
1.782991202346041
1.7859237536656891
1.7849462365591398
1.780058651026393
1.7712609970674489
1.758553274682307
1.7438905180840665
1.7253176930596286
1.704789833822092
1.683284457478006
1.6578690127077225
1.6304985337243405
1.6021505376344083
1.5777126099706744
1.5571847507331378
1.5347018572825024
1.5102639296187683
1.4848484848484849
1.4604105571847508
1.4379276637341154
1.41544477028348
1.3958944281524928
1.3792766373411536
1.364613880742913
1.3509286412512218
1.3411534701857282
1.3343108504398826
1.327468230694037
1.321603128054741
1.316715542521994
1.3128054740957966
1.3079178885630498
1.3040078201368523
1.300097751710655
1.2971652003910068
1.295210166177908
1.2942326490713587
1.295210166177908
1.295210166177908
1.295210166177908
1.300097751710655
1.3157380254154447
1.3470185728250244
1.396871945259042
1.4643206256109482
1.5493646138807429
1.6520039100684265
1.7683284457478006
1.8934506353861196
2.022482893450636
2.131964809384164
2.2267839687194524
2.324535679374389
2.4144672531769307
2.4916911045943304
2.5542521994134897
2.60019550342131
2.63049853372434
2.6451612903225805
2.644183773216031
2.6285434995112413
2.6021505376344085
2.56891495601173
2.532746823069404
2.489736070381232
2.441837732160313
2.391006842619746
2.340175953079179
2.290322580645161
2.241446725317693
2.1925708699902247
2.144672531769306
2.096774193548387
2.046920821114369
1.9980449657869013
1.9550342130987293
1.9159335288367547
1.8748778103616808
1.835777126099707
1.7986314760508308
1.7644183773216031
1.7350928641251222
1.7116324535679377
1.6959921798631477
1.6871945259042034
1.683284457478006
1.6852394916911049
1.6901270772238517
1.6989247311827955
1.7126099706744868
1.7311827956989247
1.75366568914956
1.775171065493646
1.7947214076246334
1.8113391984359728
1.8240469208211143
1.8318670576735088
1.8347996089931573
1.8318670576735088
1.8240469208211143
1.8142717497556209
1.8035190615835777
1.7878787878787878
1.7683284457478006
1.7458455522971652
1.7233626588465298
1.7018572825024438
1.6803519061583578
1.6588465298142718
1.635386119257087
1.608993157380254
1.581622678396872
1.5591397849462365
1.5395894428152492
1.517106549364614
1.4946236559139785
1.4750733137829912
1.456500488758553
1.439882697947214
1.4271749755620724
1.4193548387096775
1.412512218963832
1.4086021505376345
1.4056695992179864
1.4027370478983383
1.4037145650048877
1.404692082111437
1.404692082111437
1.404692082111437
1.4037145650048877
1.4007820136852396
1.396871945259042
1.393939393939394
1.393939393939394
1.396871945259042
1.404692082111437
1.4203323558162269
1.4428152492668622
1.478005865102639
1.530791788856305
1.6011730205278591
1.689149560117302
1.7927663734115349
1.9090909090909087
2.0332355816226784
2.1710654936461387
2.312805474095797
2.4408602150537635
2.552297165200391
2.6451612903225805
2.7096774193548385
2.7546432062561097
2.790811339198436
2.8132942326490715
2.823069403714565
2.817204301075269
2.7976539589442817
2.766373411534702
2.7253176930596283
2.678396871945259
2.625610948191593
2.5698924731182795
2.5180840664711632
2.469208211143695
2.4164222873900294
2.3626588465298144
2.3098729227761488
2.2580645161290325
2.2052785923753664
2.1515151515151514
2.096774193548387
2.043010752688172
1.9931573802541545
1.946236559139785
1.9012707722385145
1.8631476050830889
1.8318670576735088
1.801564027370479
1.7741935483870968
1.75366568914956
1.7390029325513197
1.729227761485826
1.726295210166178
1.7311827956989247
1.7409579667644184
1.7565982404692082
1.7771260997067448
1.796676441837732
1.812316715542522
1.8269794721407624
1.8387096774193548
1.847507331378299
1.8514173998044965
1.8514173998044965
1.8465298142717497
1.8377321603128052
1.825024437927664
1.8084066471163245
1.7869012707722385
1.7624633431085044
1.739980449657869
1.7174975562072337
1.6901270772238517
1.6608015640273706
1.629521016617791
1.598240469208211
1.5669599217986314
1.5376344086021505
1.509286412512219
1.4819159335288368
1.4535679374389052
1.4281524926686218
1.409579667644184
1.393939393939394
1.3763440860215057
1.3607038123167154
1.346041055718475
1.3343108504398826
1.3255131964809383
1.3196480938416422
1.313782991202346
1.3088954056695992
1.3040078201368523
1.2991202346041055
1.2942326490713587
1.29227761485826
1.2903225806451613
1.284457478005865
1.2776148582600195
1.2717497556207231
1.2668621700879763
1.2649071358748778
1.2688172043010753
1.2854349951124144
1.316715542521994
1.364613880742913
1.4301075268817205
1.499511241446725
1.5786901270772238
1.6823069403714566
1.8035190615835777
1.935483870967742
2.070381231671554
2.201368523949169
2.324535679374389
2.4349951124144678
2.529814271749756
2.6041055718475072
2.654936461388074
2.6852394916911044
2.695014662756598
2.6911045943304006
2.677419354838709
2.654936461388074
2.622678396871945
2.58455522971652
2.5425219941348973
2.496578690127077
2.447702834799609
2.396871945259042
2.3440860215053765
2.291300097751711
2.243401759530792
2.19941348973607
2.1524926686217007
2.1055718475073317
2.0557184750733137
2.003910068426197
1.9530791788856303
1.902248289345064
1.8523949169110456
1.8064516129032255
1.7653958944281525
1.729227761485826
1.7018572825024438
1.6823069403714566
1.667644183773216
1.6598240469208212
1.656891495601173
1.6598240469208212
1.6666666666666667
1.6774193548387095
1.6911045943304008
1.70772238514174
1.7253176930596286
1.7429130009775171
1.758553274682307
1.7702834799608993
1.7790811339198436
1.7869012707722385
1.7927663734115349
1.7927663734115349
1.7869012707722385
1.7761485826001957
1.7605083088954057
1.739980449657869
1.7165200391006843
1.6920821114369502
1.6656891495601174
1.6412512218963833
1.6177908113391983
1.5894428152492668
1.5610948191593352
1.5327468230694037
1.504398826979472
1.47702834799609
1.4496578690127078
1.423264907135875
1.3978494623655917
1.375366568914956
1.3558162267839686
1.3391984359726294
1.327468230694037
1.3176930596285434
1.3069403714565004
1.2971652003910068
1.289345063538612
1.2825024437927663
1.2766373411534702
1.2717497556207231
1.2668621700879763
1.2619745845552297
1.2570869990224829
1.2512218963831867
1.2482893450635386
1.249266862170088
1.2502443792766371
1.2502443792766371
1.2512218963831867
1.2580645161290325
1.2756598240469208
1.3069403714565004
1.3558162267839686
1.4252199413489737
1.5151515151515151
1.6236559139784943
1.7448680351906158
1.857282502443793
1.9657869012707725
2.0869990224828934
2.209188660801564
2.3255131964809386
2.43108504398827
2.5210166177908118
2.590420332355816
2.638318670576735
2.6695992179863146
2.6852394916911044
2.6852394916911044
2.6725317693059627
2.650048875855328
2.618768328445748
2.581622678396872
2.5386119257087
2.4916911045943304
2.442815249266862
2.3919843597262958
2.3391984359726297
2.286412512218964
2.231671554252199
2.175953079178885
2.120234604105572
2.070381231671554
2.0254154447702835
1.9775171065493649
1.927663734115347
1.878787878787879
1.833822091886608
1.7927663734115349
1.75366568914956
1.718475073313783
1.6911045943304008
1.6715542521994136
1.6598240469208212
1.6549364613880744
1.656891495601173
1.664711632453568
1.6764418377321604
1.6911045943304008
1.70772238514174
1.7253176930596286
1.7429130009775171
1.761485826001955
1.7790811339198436
1.7927663734115349
1.804496578690127
1.8132942326490715
1.8172043010752688
1.8172043010752688
1.812316715542522
1.804496578690127
1.7917888563049853
1.7741935483870968
1.7517106549364614
1.7253176930596286
1.6959921798631477
1.6656891495601174
1.635386119257087
1.607038123167155
1.5826001955034212
1.5620723362658846
1.5386119257087
1.5131964809384164
1.4897360703812317
1.4672531769305963
1.4467253176930597
1.426197458455523
1.4086021505376345
1.392961876832845
1.380254154447703
1.370478983382209
1.3636363636363635
1.359726295210166
1.359726295210166
1.3607038123167154
1.3607038123167154
1.359726295210166
1.359726295210166
1.3577712609970674
1.3548387096774193
1.3509286412512218
1.3470185728250244
1.3450635386119256
1.346041055718475
1.3509286412512218
1.3636363636363635
1.3861192570869991
1.4213098729227762
1.4721407624633431
1.541544477028348
1.6304985337243405
1.7360703812316716
1.855327468230694
1.981427174975562
2.110459433040078
2.2375366568914954
2.3548387096774195
2.4457478005865103
2.5161290322580645
2.5835777126099706
2.641251221896383
2.684261974584555
2.7126099706744866
2.7253176930596283
2.7233626588465296
2.7067448680351904
2.679374389051808
2.644183773216031
2.6021505376344085
2.5591397849462365
2.5131964809384164
2.462365591397849
2.409579667644184
2.3597262952101663
2.310850439882698
2.26197458455523
2.2130987292277613
2.1652003910068425
2.117302052785924
2.0684261974584555
2.0175953079178885
1.967741935483871
1.9257086999022484
1.889540566959922
1.8523949169110456
1.8162267839687196
1.7839687194525904
1.7565982404692082
1.7350928641251222
1.7194525904203324
1.7096774193548387
1.7057673509286413
1.7067448680351909
1.7135874877810362
1.7233626588465298
1.7350928641251222
1.7497556207233629
1.7653958944281525
1.7810361681329423
1.793743890518084
1.801564027370479
1.8054740957966764
1.804496578690127
1.7996089931573802
1.790811339198436
1.7781036168132942
1.7644183773216031
1.7517106549364614
1.7341153470185728
1.7126099706744868
1.6881720430107527
1.6608015640273706
1.6314760508308896
1.6011730205278591
1.5698924731182795
1.5395894428152492
1.512218963831867
1.4848484848484849
1.458455522971652
1.436950146627566
1.418377321603128
1.3988269794721409
1.380254154447703
1.3636363636363635
1.348973607038123
1.335288367546432
1.321603128054741
1.3098729227761483
1.3010752688172045
1.2942326490713587
1.2883675464320623
1.2854349951124144
1.284457478005865
1.281524926686217
1.2776148582600195
1.273704789833822
1.2688172043010753
1.262952101661779
1.2590420332355816
1.2570869990224829
1.2561094819159335
1.2570869990224829
1.2668621700879763
1.289345063538612
1.3196480938416422
1.3607038123167154
1.4213098729227762
1.5034213098729228
1.607038123167155
1.7272727272727273
1.8563049853372435
1.989247311827957
2.120234604105572
2.243401759530792
2.3528836754643208
2.44672531769306
2.5141739980449658
2.5610948191593352
2.5972629521016617
2.619745845552297
2.6285434995112413
2.624633431085044
2.6080156402737047
2.5806451612903225
2.5454545454545454
2.504398826979472
2.4604105571847508
2.412512218963832
2.360703812316716
2.313782991202346
2.267839687194526
2.220918866080156
2.1730205278592374
2.1270772238514173
2.0821114369501466
2.035190615835777
1.9872922776148585
1.9393939393939397
1.8914956011730208
1.8465298142717497
1.804496578690127
1.76930596285435
1.7390029325513197
1.70772238514174
1.6793743890518085
1.6559139784946235
1.6392961876832846
1.6285434995112416
1.6256109481915937
1.629521016617791
1.6392961876832846
1.6520039100684265
1.6666666666666667
1.683284457478006
1.6979472140762464
1.7096774193548387
1.7194525904203324
1.729227761485826
1.7360703812316716
1.739980449657869
1.7390029325513197
1.7341153470185728
1.7253176930596286
1.7126099706744868
1.6959921798631477
1.6774193548387095
1.6608015640273706
1.6451612903225807
1.6236559139784943
1.598240469208211
1.5698924731182795
1.542521994134897
1.5151515151515151
1.487781036168133
1.4604105571847508
1.4330400782013686
1.4076246334310851
1.3841642228739004
1.3616813294232648
1.3440860215053765
1.3304007820136852
1.3176930596285434
1.3049853372434017
1.2913000977517106
1.278592375366569
1.267839687194526
1.2609970674486803
1.2561094819159335
1.2512218963831867
1.249266862170088
1.2482893450635386
1.2482893450635386
1.2482893450635386
1.24633431085044
1.2434017595307918
1.238514173998045
1.2336265884652982
1.2316715542521994
1.2326490713587488
1.2404692082111437
1.2580645161290325
1.2913000977517106
1.3421309872922775
1.412512218963832
1.487781036168133
1.5708699902248289
1.6774193548387095
1.7986314760508308
1.927663734115347
2.056695992179863
2.1808406647116323
2.2952101661779083
2.3958944281524928
2.4809384164222874
2.5464320625610948
2.5943304007820136
2.621700879765396
2.631476050830889
2.63049853372434
2.619745845552297
2.5992179863147604
2.56891495601173
2.529814271749756
2.484848484848485
2.4349951124144678
2.383186705767351
2.3313782991202348
2.2795698924731185
2.228739002932551
2.1837732160312804
2.1407624633431084
2.0928641251221896
2.043010752688172
1.9931573802541545
1.9442815249266865
1.8944281524926687
1.844574780058651
1.7976539589442817
1.7526881720430108
1.7126099706744868
1.678396871945259
1.6549364613880744
1.6383186705767352
1.6256109481915937
1.6187683284457477
1.6158357771260996
1.6187683284457477
1.6285434995112416
1.643206256109482
1.66177908113392
1.683284457478006
1.704789833822092
1.7243401759530792
1.7438905180840665
1.7595307917888563
1.76930596285435
1.7761485826001957
1.7781036168132942
1.775171065493646
1.7683284457478006
1.7565982404692082
1.7409579667644184
1.7233626588465298
1.7018572825024438
1.678396871945259
1.6529814271749756
1.6285434995112416
1.6041055718475072
1.5757575757575757
1.5464320625610948
1.5180840664711632
1.4897360703812317
1.4623655913978495
1.434017595307918
1.4076246334310851
1.3851417399804498
1.3665689149560116
1.3509286412512218
1.335288367546432
1.324535679374389
1.3176930596285434
1.3118279569892473
1.3069403714565004
1.3020527859237536
1.2971652003910068
1.29227761485826
1.2873900293255132
1.284457478005865
1.281524926686217
1.2776148582600195
1.273704789833822
1.2717497556207231
1.270772238514174
1.2688172043010753
1.2688172043010753
1.2746823069403714
1.29227761485826
1.3235581622678396
1.3734115347018572
1.4437927663734116
1.5356793743890518
1.6471163245356797
1.7741935483870968
1.8905180840664717
2.003910068426197
2.131964809384164
2.2639296187683287
2.3900293255131966
2.504398826979472
2.603128054740958
2.684261974584555
2.742913000977517
2.779081133919844
2.7966764418377323
2.7976539589442817
2.78494623655914
2.758553274682307
2.7223851417399803
2.67644183773216
2.621700879765396
2.563049853372434
2.504398826979472
2.4486803519061584
2.396871945259042
2.345063538611926
2.29227761485826
2.2404692082111435
2.188660801564027
2.1417399804496577
2.096774193548387
2.04594330400782
1.994134897360704
1.9423264907135875
1.8934506353861196
1.8494623655913975
1.8084066471163245
1.7702834799608993
1.737047898338221
1.7086999022482894
1.6871945259042034
1.672531769305963
1.664711632453568
1.6627565982404693
1.6666666666666667
1.6744868035190617
1.686217008797654
1.7018572825024438
1.7165200391006843
1.729227761485826
1.7419354838709675
1.7526881720430108
1.761485826001955
1.7673509286412512
1.7683284457478006
1.7653958944281525
1.758553274682307
1.7468230694037146
1.7311827956989247
1.7096774193548387
1.686217008797654
1.6608015640273706
1.632453567937439
1.6021505376344083
1.5708699902248289
1.5395894428152492
1.5083088954056696
1.4809384164222874
1.457478005865103
1.4320625610948192
1.4056695992179864
1.3792766373411536
1.3548387096774193
1.3313782991202343
1.310850439882698
1.2913000977517106
1.273704789833822
1.2580645161290325
1.2424242424242424
1.2316715542521994
1.2238514173998043
1.2160312805474096
1.209188660801564
1.203323558162268
1.198435972629521
1.1935483870967742
1.1886608015640274
1.1827956989247312
1.176930596285435
1.1710654936461389
1.166177908113392
1.163245356793744
1.164222873900293
1.1691104594330402
1.1798631476050832
1.2003910068426198
1.2346041055718475
1.2883675464320623
1.3626588465298142
1.458455522971652
1.5747800586510263
1.70772238514174
1.8514173998044965
2.0009775171065494
2.1300097751710654
2.241446725317693
2.356793743890518
2.463343108504399
2.555229716520039
2.6265884652981426
2.675464320625611
2.704789833822092
2.7145650048875853
2.708699902248289
2.6901270772238512
2.6608015640273703
2.622678396871945
2.579667644183773
2.5347018572825024
2.484848484848485
2.43108504398827
2.376344086021505
2.320625610948192
2.2658846529814274
2.2130987292277613
2.160312805474096
2.1055718475073317
2.050830889540567
1.9960899315738023
1.949169110459433
1.9042033235581624
1.8543499511241448
1.8064516129032255
1.7595307917888563
1.715542521994135
1.6774193548387095
1.6451612903225807
1.6187683284457477
1.598240469208211
1.5865102639296187
1.5826001955034212
1.5865102639296187
1.5943304007820136
1.606060606060606
1.6236559139784943
1.6422287390029326
1.6588465298142718
1.6715542521994136
1.6823069403714566
1.6930596285434996
1.7008797653958945
1.704789833822092
1.704789833822092
1.7018572825024438
1.6950146627565983
1.6852394916911049
1.6695992179863148
1.651026392961877
1.629521016617791
1.606060606060606
1.5796676441837731
1.5513196480938416
1.52297165200391
1.4946236559139785
1.4652981427174976
1.434017595307918
1.4027370478983383
1.3792766373411536
1.3577712609970674
1.3343108504398826
1.310850439882698
1.2873900293255132
1.2649071358748778
1.2443792766373412
1.227761485826002
1.2150537634408602
1.2043010752688172
1.1935483870967742
1.1837732160312806
1.1779081133919844
1.1749755620723363
1.1710654936461389
1.1671554252199414
1.164222873900293
1.160312805474096
1.155425219941349
1.1505376344086022
1.1466275659824048
1.144672531769306
1.1436950146627567
1.1436950146627567
1.1505376344086022
1.1671554252199414
1.1935483870967742
1.2473118279569892
1.327468230694037
1.4203323558162269
1.530791788856305
1.6588465298142718
1.8005865102639296
1.948191593352884
2.0948191593352883
2.2355816226783967
2.363636363636364
2.4613880742913
2.5347018572825024
2.60019550342131
2.6510263929618767
2.686217008797654
2.70772238514174
2.713587487781036
2.7038123167155423
2.681329423264907
2.6471163245356792
2.6041055718475072
2.5562072336265884
2.5083088954056696
2.4594330400782014
2.406647116324536
2.3528836754643208
2.2961876832844577
2.239491691104594
2.1837732160312804
2.129032258064516
2.075268817204301
2.022482893450636
1.970674486803519
1.919843597262952
1.870967741935484
1.8299120234604105
1.7927663734115349
1.75366568914956
1.718475073313783
1.689149560117302
1.6656891495601174
1.6480938416422288
1.6373411534701858
1.632453567937439
1.6344086021505375
1.643206256109482
1.6578690127077225
1.672531769305963
1.6881720430107527
1.7067448680351909
1.726295210166178
1.7448680351906158
1.761485826001955
1.7741935483870968
1.7839687194525904
1.7898338220918866
1.790811339198436
1.7859237536656891
1.775171065493646
1.758553274682307
1.739980449657869
1.7204301075268815
1.6959921798631477
1.6686217008797657
1.6412512218963833
1.6138807429130009
1.585532746823069
1.5581622678396871
1.530791788856305
1.5034213098729228
1.47702834799609
1.4506353861192571
1.43108504398827
1.414467253176931
1.396871945259042
1.380254154447703
1.364613880742913
1.3499511241446724
1.335288367546432
1.321603128054741
1.3079178885630498
1.2961876832844574
1.2883675464320623
1.2825024437927663
1.2766373411534702
1.273704789833822
1.273704789833822
1.2727272727272727
1.2697947214076246
1.267839687194526
1.2668621700879763
1.2658846529814272
1.2668621700879763
1.2727272727272727
1.2883675464320623
1.316715542521994
1.3626588465298142
1.4164222873900294
1.482893450635386
1.5757575757575757
1.6901270772238517
1.822091886608016
1.9657869012707725
2.114369501466276
2.259042033235582
2.3929618768328447
2.5112414467253177
2.610948191593353
2.6911045943304006
