ppg
2.960899315738025
2.967741935483871
2.956011730205278
2.9423264907135875
2.9257086999022484
2.8944281524926687
2.850439882697948
2.795698924731183
2.729227761485826
2.654936461388074
2.582600195503421
2.509286412512219
2.426197458455523
2.337243401759531
2.2248289345063537
2.124144672531769
2.035190615835777
1.9149560117302051
1.844574780058651
1.782991202346041
1.7028347996089932
1.664711632453568
1.6265884652981428
1.5933528836754642
1.564027370478983
1.5376344086021505
1.5112414467253177
1.4868035190615836
1.4682306940371457
1.4486803519061584
1.4222873900293256
1.3978494623655917
1.3812316715542523
1.367546432062561
1.348973607038123
1.3294232649071358
1.3098729227761483
1.289345063538612
1.267839687194526
1.2453567937438903
1.2228739002932552
1.2023460410557183
1.187683284457478
1.1827956989247312
1.1935483870967742
1.2189638318670577
1.2658846529814272
1.343108504398827
1.452590420332356
1.5943304007820136
1.7644183773216031
1.9550342130987293
2.1593352883675463
2.367546432062561
2.570869990224829
2.7624633431085046
2.9374389051808407
3.09188660801564
3.206256109481916
3.290322580645161
3.367546432062561
3.43108504398827
3.479960899315738
3.512218963831867
3.3929618768328447
3.1925708699902247
3.083088954056696
3.0117302052785924
2.9550342130987293
2.8993157380254155
2.844574780058651
2.7859237536656893
2.718475073313783
2.6422287390029324
2.5610948191593352
2.47702834799609
2.3929618768328447
2.310850439882698
2.2297165200391005
2.1515151515151514
2.0762463343108504
2.003910068426197
1.9364613880742916
1.8807429130009776
1.8328445747800584
1.7839687194525904
1.737047898338221
1.694037145650049
1.6549364613880744
1.619745845552297
1.5865102639296187
1.555229716520039
1.5249266862170088
1.495601173020528
1.4672531769305963
1.4457478005865103
1.4271749755620724
1.4056695992179864
1.3822091886608017
1.3587487781036167
1.335288367546432
1.3118279569892473
1.2883675464320623
1.2639296187683284
1.2375366568914956
1.2101661779081134
1.1827956989247312
1.1564027370478984
1.13880742913001
1.1290322580645162
1.126099706744868
1.1378299120234605
1.1710654936461389
1.227761485826002
1.3069403714565004
1.4076246334310851
1.525904203323558
1.6559139784946235
1.790811339198436
1.924731182795699
2.038123167155425
2.134897360703812
2.233626588465298
2.3255131964809386
2.404692082111437
2.4701857282502444
2.5210166177908118
2.557184750733138
2.579667644183773
2.589442815249267
2.587487781036168
2.573802541544477
2.552297165200391
2.52297165200391
2.4858260019550342
2.439882697947214
2.3870967741935485
2.3274682306940373
2.260997067448681
2.190615835777126
2.117302052785924
2.043010752688172
1.967741935483871
1.895405669599218
1.826001955034213
1.7683284457478006
1.7194525904203324
1.6695992179863148
1.624633431085044
1.5865102639296187
1.5532746823069403
1.5268817204301075
1.5053763440860215
1.487781036168133
1.4721407624633431
1.458455522971652
1.4457478005865103
1.435972629521017
1.4271749755620724
1.414467253176931
1.3988269794721409
1.3822091886608017
1.364613880742913
1.346041055718475
1.327468230694037
1.3088954056695992
1.2913000977517106
1.273704789833822
1.2561094819159335
1.2394916911045943
1.227761485826002
1.2189638318670577
1.2082111436950147
1.2003910068426198
1.198435972629521
1.2072336265884651
1.23069403714565
1.2717497556207231
1.3333333333333333
1.4164222873900294
1.520039100684262
1.640273704789834
1.7546432062561097
1.8670576735092863
1.994134897360704
2.1251221896383186
2.2521994134897363
2.3685239491691106
2.4711632453567938
2.558162267839687
2.63049853372434
2.6881720430107525
2.7311827956989245
2.7614858260019552
2.780058651026393
2.78494623655914
2.779081133919844
2.7653958944281527
2.742913000977517
2.710654936461388
2.668621700879765
2.616813294232649
2.557184750733138
2.490713587487781
2.420332355816227
2.347018572825025
2.275659824046921
2.2130987292277613
2.157380254154448
2.101661779081134
2.048875855327468
2.0
1.956989247311828
1.9188660801564028
1.8856304985337244
1.8563049853372435
1.8318670576735088
1.8093841642228736
1.7888563049853372
1.7683284457478006
1.7517106549364614
1.737047898338221
1.7223851417399805
1.7086999022482894
1.696969696969697
1.6881720430107527
1.6823069403714566
1.6793743890518085
1.678396871945259
1.678396871945259
1.678396871945259
1.6764418377321604
1.672531769305963
1.6666666666666667
1.6559139784946235
1.6412512218963833
1.6236559139784943
1.6041055718475072
1.587487781036168
1.5777126099706744
1.5796676441837731
1.598240469208211
1.6383186705767352
1.7008797653958945
1.7878787878787878
1.8778103616813293
1.9745845552297163
2.0948191593352883
2.2277614858260018
2.3626588465298144
2.4916911045943304
2.6099706744868034
2.7126099706744866
2.7976539589442817
2.8641251221896384
2.913978494623656
2.948191593352884
2.962854349951124
2.964809384164223
2.9589442815249267
2.9442815249266863
2.921798631476051
2.8905180840664717
2.850439882697948
2.803519061583578
2.748778103616813
2.686217008797654
2.6177908113391983
2.5434995112414467
2.464320625610948
2.3900293255131966
2.318670576735093
2.2404692082111435
2.161290322580645
2.083088954056696
2.007820136852395
1.9374389051808407
1.8729227761485825
1.812316715542522
1.7565982404692082
1.704789833822092
1.656891495601173
1.616813294232649
1.581622678396872
1.543499511241447
1.5053763440860215
1.469208211143695
1.434017595307918
1.4027370478983383
1.375366568914956
1.3519061583577712
1.332355816226784
1.3157380254154447
1.3010752688172045
1.2873900293255132
1.2776148582600195
1.2688172043010753
1.2551319648093842
1.2375366568914956
1.217008797653959
1.1945259042033236
1.1720430107526882
1.1515151515151516
1.1348973607038124
1.1270772238514175
1.1329423264907137
1.1544477028347997
1.1886608015640274
1.2375366568914956
1.3098729227761483
1.4037145650048877
1.5151515151515151
1.640273704789834
1.772238514173998
1.906158357771261
2.0361681329423265
2.157380254154448
2.2658846529814274
2.358748778103617
2.4359726295210167
2.482893450635386
2.509286412512219
2.5317693059628543
2.547409579667644
2.5532746823069403
2.549364613880743
2.536656891495601
2.515151515151515
2.4858260019550342
2.4486803519061584
2.401759530791789
2.345063538611926
2.2883675464320627
2.228739002932551
2.158357771260997
2.081133919843597
2.0
1.9188660801564028
1.839687194525904
1.7653958944281525
1.694037145650049
1.6265884652981428
1.564027370478983
1.5053763440860215
1.4496578690127078
1.404692082111437
1.3665689149560116
1.3264907135874875
1.2873900293255132
1.2502443792766371
1.2160312805474096
1.1837732160312806
1.1534701857282503
1.1241446725317692
1.0957966764418376
1.067448680351906
1.0391006842619743
1.0175953079178883
1.0009775171065494
0.981427174975562
0.9608993157380256
0.9423264907135877
0.9257086999022482
0.9100684261974584
0.895405669599218
0.8807429130009775
0.8651026392961877
0.8504398826979472
0.8387096774193549
0.8357771260997068
0.8435972629521017
0.8621700879765396
0.8983382209188661
0.9589442815249268
1.04594330400782
1.1593352883675463
1.2961876832844574
1.4496578690127078
1.6109481915933528
1.7741935483870968
1.9315738025415443
2.0772238514174
2.1925708699902247
2.286412512218964
2.376344086021505
2.4545454545454546
2.5190615835777126
2.5698924731182795
2.6070381231671558
2.63049853372434
2.6422287390029324
2.643206256109482
2.633431085043988
2.6129032258064515
2.5865102639296187
2.552297165200391
2.509286412512219
2.4604105571847508
2.406647116324536
2.347996089931574
2.2854349951124147
2.220918866080156
2.156402737047898
2.093841642228739
2.032258064516129
1.9726295210166176
1.9159335288367547
1.868035190615836
1.826001955034213
1.7839687194525904
1.7429130009775171
1.7028347996089932
1.6637341153470186
1.6265884652981428
1.5913978494623655
1.5571847507331378
1.5239491691104594
1.490713587487781
1.456500488758553
1.4271749755620724
1.3998044965786902
1.367546432062561
1.3333333333333333
1.300097751710655
1.2697947214076246
1.2453567937438903
1.227761485826002
1.2150537634408602
1.2052785923753666
1.195503421309873
1.1827956989247312
1.166177908113392
1.1515151515151516
1.13880742913001
1.1241446725317692
1.115347018572825
1.118279569892473
1.13880742913001
1.181818181818182
1.2502443792766371
1.343108504398827
1.457478005865103
1.587487781036168
1.7282502443792769
1.8543499511241448
1.9687194525904204
2.09188660801564
2.210166177908113
2.317693059628544
2.410557184750733
2.486803519061584
2.547409579667644
2.595307917888563
2.631476050830889
2.6578690127077222
2.674486803519061
2.6832844574780057
2.6823069403714563
2.673509286412512
2.658846529814272
2.635386119257087
2.601173020527859
2.555229716520039
2.4995112414467253
2.434017595307918
2.361681329423265
2.286412512218964
2.210166177908113
2.134897360703812
2.070381231671554
2.0127077223851417
1.95405669599218
1.8973607038123168
1.8435972629521016
1.7947214076246334
1.7497556207233629
1.7086999022482894
1.672531769305963
1.6412512218963833
1.6138807429130009
1.5894428152492668
1.5669599217986314
1.5493646138807429
1.5327468230694037
1.512218963831867
1.4887585532746823
1.4623655913978495
1.4320625610948192
1.3988269794721409
1.3636363636363635
1.3284457478005864
1.2932551319648091
1.260019550342131
1.2287390029325511
1.2052785923753666
1.187683284457478
1.1681329423264908
1.1495601173020529
1.133919843597263
1.1231671554252198
1.121212121212121
1.130987292277615
1.155425219941349
1.1994134897360704
1.2639296187683284
1.3479960899315735
1.4506353861192571
1.552297165200391
1.6559139784946235
1.7781036168132942
1.90811339198436
2.037145650048876
2.1593352883675463
2.2688172043010755
2.361681329423265
2.4349951124144678
2.4887585532746823
2.5249266862170088
2.544477028347996
2.548387096774193
2.5405669599217986
2.5239491691104594
2.498533724340176
2.466275659824047
2.4271749755620724
2.380254154447703
2.326490713587488
2.2658846529814274
2.1974584555229715
2.1221896383186705
2.042033235581622
1.9579667644183771
1.881720430107527
1.812316715542522
1.7380254154447703
1.6656891495601174
1.5992179863147604
1.5386119257087
1.4848484848484849
1.4389051808406648
1.3988269794721409
1.3636363636363635
1.332355816226784
1.3049853372434017
1.2864125122189638
1.2727272727272727
1.2570869990224829
1.2404692082111437
1.2228739002932552
1.203323558162268
1.181818181818182
1.1593352883675463
1.1358748778103618
1.1124144672531768
1.0899315738025417
1.067448680351906
1.0469208211143697
1.032258064516129
1.0224828934506354
1.010752688172043
1.0009775171065494
0.9941348973607038
0.9921798631476052
0.9951124144672532
1.0058651026392962
1.0254154447702837
1.0586510263929618
1.10752688172043
1.1749755620723363
1.2482893450635386
1.3333333333333333
1.4437927663734116
1.5728250244379276
1.7145650048875856
1.86119257086999
2.005865102639296
2.2140762463343107
2.447702834799609
2.6148582600195502
2.73802541544477
2.8289345063538613
2.8944281524926687
2.9335288367546437
2.95405669599218
2.967741935483871
2.9716520039100685
2.9657869012707723
2.952101661779081
2.9315738025415445
2.9042033235581624
2.870967741935484
2.83088954056696
2.7839687194525906
2.7311827956989245
2.678396871945259
2.624633431085044
2.563049853372434
2.4946236559139785
2.423264907135875
2.3499511241446727
2.2766373411534704
2.2052785923753664
2.1388074291300097
2.0772238514174
2.0234604105571847
1.978494623655914
1.945259042033236
1.921798631476051
1.9012707722385145
1.8856304985337244
1.873900293255132
1.866080156402737
1.8592375366568916
1.8523949169110456
1.8465298142717497
1.8416422287390029
1.839687194525904
1.842619745845552
1.8514173998044965
1.8621700879765395
1.873900293255132
1.884652981427175
1.8885630498533723
1.8807429130009776
1.8602150537634408
1.8299120234604105
1.7947214076246334
1.7624633431085044
1.7419354838709675
1.7429130009775171
1.76930596285435
1.812316715542522
1.8748778103616808
1.9726295210166176
2.101661779081134
2.257086999022483
2.4330400782013686
2.622678396871945
2.81622678396872
3.005865102639296
3.179863147605083
3.3304007820136854
3.450635386119257
3.5376344086021505
3.5855327468230693
3.6021505376344085
3.6021505376344085
3.5855327468230693
3.555229716520039
3.5141739980449658
3.4652981427174976
3.4086021505376345
3.3440860215053765
3.269794721407625
3.1847507331378297
3.086021505376344
2.9853372434017595
2.877810361681329
2.7468230694037143
2.598240469208211
2.4379276637341154
2.2737047898338223
2.112414467253177
1.959921798631476
1.823069403714565
1.704789833822092
1.606060606060606
1.5249266862170088
1.455522971652004
1.401759530791789
1.3548387096774193
1.2991202346041055
1.2365591397849462
1.1691104594330402
1.0977517106549364
1.0234604105571847
0.9491691104594332
0.8758553274682307
0.804496578690127
0.7370478983382209
0.6744868035190615
0.6295210166177908
0.5962854349951124
0.5630498533724341
0.5327468230694037
0.5073313782991202
0.4858260019550342
0.4672531769305962
0.4506353861192571
0.4340175953079179
0.4173998044965787
0.4007820136852394
0.3851417399804496
0.3734115347018573
0.3734115347018573
0.3841642228739003
0.4027370478983382
0.4349951124144672
0.4848484848484848
0.5581622678396871
0.656891495601173
0.782991202346041
0.9335288367546432
1.1036168132942326
1.2873900293255132
1.4760508308895406
1.6412512218963833
1.7869012707722385
1.935483870967742
2.072336265884653
2.189638318670577
2.283479960899316
2.3519061583577714
2.3958944281524928
2.4164222873900294
2.4164222873900294
2.398826979472141
2.367546432062561
2.3274682306940373
2.2873900293255134
2.247311827956989
2.2023460410557183
2.15347018572825
2.101661779081134
2.047898338220919
1.991202346041056
1.932551319648094
1.871945259042033
1.8113391984359728
1.7526881720430108
1.6959921798631477
1.651026392961877
1.611925708699902
1.5698924731182795
1.5298142717497556
1.4926686217008798
1.458455522971652
1.426197458455523
1.3958944281524928
1.3665689149560116
1.3372434017595307
1.3069403714565004
1.2776148582600195
1.249266862170088
1.2287390029325511
1.2111436950146628
1.1896383186705768
1.1671554252199414
1.1436950146627567
1.121212121212121
1.099706744868035
1.0801564027370478
1.0635386119257086
1.0518084066471165
1.043010752688172
1.0371456500488758
1.0361681329423265
1.0361681329423265
1.0303030303030305
1.0205278592375366
1.0097751710654936
1.0019550342130987
1.002932551319648
1.018572825024438
1.053763440860215
1.110459433040078
1.1886608015640274
1.284457478005865
1.3949169110459434
1.500488758553275
1.6041055718475072
1.721407624633431
1.844574780058651
1.967741935483871
2.0869990224828934
2.196480938416422
2.2932551319648096
2.375366568914956
2.443792766373412
2.4995112414467253
2.5454545454545454
2.579667644183773
2.606060606060606
2.634408602150537
2.66177908113392
2.684261974584555
2.699902248289345
2.7038123167155423
2.6940371456500487
2.670576735092864
2.635386119257087
2.591397849462365
2.5454545454545454
2.5024437927663734
2.466275659824047
2.4389051808406648
2.419354838709677
2.407624633431085
2.403714565004888
2.404692082111437
2.407624633431085
2.409579667644184
2.407624633431085
2.401759530791789
2.3900293255131966
2.3743890518084068
2.357771260997068
2.343108504398827
2.333333333333333
2.333333333333333
2.3440860215053765
2.364613880742913
2.391006842619746
2.41544477028348
2.434017595307918
2.443792766373412
2.441837732160313
2.4271749755620724
2.404692082111437
2.3743890518084068
2.3313782991202348
2.274682306940372
2.206256109481916
2.1270772238514173
2.0439882697947214
1.962854349951124
1.8905180840664717
1.835777126099707
1.8035190615835777
1.7986314760508308
1.823069403714565
1.8621700879765395
1.913978494623656
1.978494623655914
2.0439882697947214
2.1114369501466275
2.1808406647116323
2.2502443792766376
2.3167155425219943
2.3792766373411536
2.436950146627566
2.486803519061584
2.5288367546432062
2.557184750733138
2.576735092864125
2.5943304007820136
2.6070381231671558
2.613880742913001
2.613880742913001
2.6050830889540566
2.5884652981427174
2.563049853372434
2.5288367546432062
2.486803519061584
2.4379276637341154
2.3841642228739004
2.333333333333333
2.2825024437927666
2.2238514173998043
2.161290322580645
2.0977517106549364
2.035190615835777
1.9745845552297163
1.9178885630498532
1.866080156402737
1.8211143695014664
1.7820136852394917
1.750733137829912
1.729227761485826
1.7145650048875856
1.7008797653958945
1.6881720430107527
1.6764418377321604
1.664711632453568
1.651026392961877
1.635386119257087
1.6177908113391983
1.598240469208211
1.5777126099706744
1.5571847507331378
1.5366568914956011
1.521016617790811
1.5083088954056696
1.4936461388074291
1.478983382209189
1.4652981427174976
1.452590420332356
1.4408602150537635
1.4320625610948192
1.4281524926686218
1.4291300097751711
1.4379276637341154
1.457478005865103
1.4848484848484849
1.521994134897361
1.5747800586510263
1.6422287390029326
1.7233626588465298
1.8132942326490715
1.9090909090909087
2.006842619745845
2.102639296187683
2.193548387096774
2.278592375366569
2.3548387096774195
2.4222873900293256
2.4731182795698925
2.512218963831867
2.548387096774193
2.578690127077224
2.60019550342131
2.611925708699902
2.613880742913001
2.606060606060606
2.589442815249267
2.5640273704789838
2.530791788856305
2.490713587487781
2.450635386119257
2.407624633431085
2.356793743890518
2.3010752688172045
2.241446725317693
2.1808406647116323
2.12316715542522
2.070381231671554
2.0254154447702835
1.9902248289345064
1.964809384164223
1.9501466275659824
1.9442815249266865
1.943304007820137
1.9472140762463344
1.95405669599218
1.9618768328445748
1.967741935483871
1.970674486803519
1.9696969696969695
1.964809384164223
1.956989247311828
1.945259042033236
1.932551319648094
1.9188660801564028
1.9071358748778104
1.8963831867057677
1.8856304985337244
1.87683284457478
1.8729227761485825
1.8748778103616808
1.881720430107527
1.8944281524926687
1.9100684261974583
1.9266862170087975
1.9423264907135875
1.9560117302052784
1.967741935483871
1.9775171065493649
1.9902248289345064
2.010752688172043
2.042033235581622
2.0869990224828934
2.144672531769306
2.21505376344086
2.2952101661779083
2.380254154447703
2.466275659824047
2.549364613880743
2.625610948191593
2.6823069403714563
2.724340175953079
2.760508308895406
2.787878787878788
2.803519061583578
2.8084066471163247
2.803519061583578
2.790811339198436
2.771260997067449
2.7468230694037143
2.718475073313783
2.686217008797654
2.650048875855328
2.613880742913001
2.575757575757576
2.530791788856305
2.479960899315738
2.4242424242424243
2.3626588465298144
2.297165200391007
2.228739002932551
2.158357771260997
2.0879765395894427
2.0195503421309877
1.95405669599218
1.900293255131965
1.8543499511241448
1.8064516129032255
1.7605083088954057
1.7174975562072337
1.678396871945259
1.643206256109482
1.6129032258064515
1.585532746823069
1.5610948191593352
1.5386119257087
1.517106549364614
1.495601173020528
1.478983382209189
1.4643206256109482
1.4457478005865103
1.423264907135875
1.3988269794721409
1.3724340175953078
1.3440860215053765
1.3147605083088951
1.2854349951124144
1.2561094819159335
1.227761485826002
1.2013685239491692
1.1827956989247312
1.1710654936461389
1.1622678396871946
1.1622678396871946
1.1749755620723363
1.2043010752688172
1.252199413489736
1.3196480938416422
1.404692082111437
1.5034213098729228
1.6129032258064515
1.7272727272727273
1.8416422287390029
1.9393939393939397
2.0254154447702835
2.113391984359726
2.1955034213098727
2.267839687194526
2.329423264907136
2.3792766373411536
2.419354838709677
2.449657869012708
2.4711632453567938
2.4838709677419355
2.489736070381232
2.487781036168133
2.4789833822091887
2.4652981427174976
2.4457478005865103
2.419354838709677
2.3870967741935485
2.3489736070381237
2.3059628543499517
2.259042033235582
2.2082111436950145
2.156402737047898
2.103616813294233
2.0576735092864125
2.016617790811339
1.9716520039100685
1.9266862170087975
1.881720430107527
1.8387096774193548
1.796676441837732
1.7556207233626588
1.7165200391006843
1.6793743890518085
1.643206256109482
1.6080156402737047
1.5757575757575757
1.5503421309872922
1.5288367546432062
1.5053763440860215
1.4819159335288368
1.458455522971652
1.4379276637341154
1.4203323558162269
1.4056695992179864
1.3949169110459434
1.388074291300098
1.3841642228739004
1.3822091886608017
1.383186705767351
1.3861192570869991
1.3861192570869991
1.3861192570869991
1.3861192570869991
1.3890518084066472
1.396871945259042
1.4134897360703813
1.4203323558162269
1.434017595307918
1.4858260019550342
1.5650048875855327
1.664711632453568
1.7624633431085044
1.86119257086999
1.9745845552297163
2.09188660801564
2.2052785923753664
2.3088954056695994
2.39980449657869
2.4750733137829912
2.533724340175953
2.576735092864125
2.606060606060606
2.6236559139784945
2.6285434995112413
2.625610948191593
2.616813294232649
2.6021505376344085
2.5806451612903225
2.552297165200391
2.515151515151515
2.4701857282502444
2.418377321603128
2.360703812316716
2.2991202346041058
2.2346041055718477
2.16911045943304
2.112414467253177
2.060606060606061
2.004887585532747
1.949169110459433
1.895405669599218
1.8465298142717497
1.801564027370479
1.761485826001955
1.726295210166178
1.6959921798631477
1.6705767350928642
1.6500488758553276
1.6363636363636365
1.6275659824046922
1.6187683284457477
1.6109481915933528
1.6041055718475072
1.5972629521016617
1.590420332355816
1.581622678396872
1.5718475073313782
1.5610948191593352
1.5483870967741935
1.5356793743890518
1.5239491691104594
1.5161290322580645
1.5102639296187683
1.5034213098729228
1.495601173020528
1.4868035190615836
1.47702834799609
1.4672531769305963
1.458455522971652
1.4545454545454546
1.4604105571847508
1.4809384164222874
1.520039100684262
1.56891495601173
1.6304985337243405
1.715542521994135
1.8201368523949168
1.93841642228739
2.064516129032258
2.1925708699902247
2.3167155425219943
2.432062561094819
2.535679374389052
2.624633431085044
2.6989247311827955
2.757575757575758
2.795698924731183
2.8181818181818183
2.834799608993157
2.844574780058651
2.844574780058651
2.8367546432062563
2.8211143695014664
2.7976539589442817
2.7673509286412514
2.729227761485826
2.684261974584555
2.633431085043988
2.582600195503421
2.530791788856305
2.4731182795698925
2.412512218963832
2.350928641251222
2.291300097751711
2.2355816226783967
2.1837732160312804
2.1358748778103616
2.09188660801564
2.0527859237536656
2.016617790811339
1.9833822091886608
1.9550342130987293
1.9296187683284456
1.9012707722385145
1.871945259042033
1.842619745845552
1.812316715542522
1.7810361681329423
1.750733137829912
1.721407624633431
1.6930596285434996
1.6666666666666667
1.6412512218963833
1.6217008797653958
1.6050830889540566
1.587487781036168
1.5698924731182795
1.552297165200391
1.533724340175953
1.5141739980449658
1.4946236559139785
1.4750733137829912
1.456500488758553
1.4418377321603129
1.434017595307918
1.436950146627566
1.4516129032258065
1.479960899315738
1.5268817204301075
1.5933528836754642
1.678396871945259
1.7781036168132942
1.8885630498533723
2.004887585532747
2.12316715542522
2.2375366568914954
2.345063538611926
2.441837732160313
2.517106549364614
2.575757575757576
2.631476050830889
2.677419354838709
2.713587487781036
2.73802541544477
2.750733137829912
2.752688172043011
2.7468230694037143
2.732160312805474
2.7096774193548385
2.6803519061583576
2.643206256109482
2.6041055718475072
2.5620723362658846
2.5102639296187683
2.450635386119257
2.386119257086999
2.3167155425219943
2.24633431085044
