ppg
1.064516129032258
1.0576735092864125
1.0518084066471165
1.04594330400782
1.0391006842619743
1.0342130987292275
1.0303030303030305
1.0234604105571847
1.0097751710654936
0.9960899315738024
0.9853372434017597
0.9736070381231672
0.9589442815249268
0.9433040078201368
0.927663734115347
0.9110459433040078
0.895405669599218
0.8817204301075269
0.873900293255132
0.8699902248289345
0.863147605083089
0.8563049853372434
0.8504398826979472
0.8475073313782991
0.8475073313782991
0.8494623655913979
0.8543499511241447
0.8611925708699902
0.8699902248289345
0.8787878787878788
0.8895405669599218
0.9012707722385142
0.9120234604105572
0.9227761485826002
0.9325513196480938
0.9413489736070382
0.9481915933528836
0.9530791788856304
0.9579667644183774
0.9667644183773216
0.9872922776148584
1.0283479960899315
1.0977517106549364
1.1827956989247312
1.2903225806451613
1.439882697947214
1.619745845552297
1.8172043010752688
2.01564027370479
2.201368523949169
2.3626588465298144
2.4946236559139785
2.598240469208211
2.674486803519061
2.727272727272727
2.7565982404692084
2.76930596285435
2.776148582600196
2.7751710654936463
2.766373411534702
2.752688172043011
2.735092864125122
2.7145650048875853
2.69208211143695
2.668621700879765
2.64613880742913
2.6236559139784945
2.60019550342131
2.575757575757576
2.549364613880743
2.5219941348973607
2.490713587487781
2.455522971652004
2.4164222873900294
2.3734115347018574
2.3255131964809386
2.272727272727273
2.2130987292277613
2.146627565982405
2.072336265884653
2.0
1.924731182795699
1.8347996089931573
1.7380254154447703
1.6422287390029326
1.5542521994134897
1.479960899315738
1.423264907135875
1.3861192570869991
1.3665689149560116
1.359726295210166
1.359726295210166
1.3636363636363635
1.3685239491691104
1.3714565004887584
1.370478983382209
1.3655913978494625
1.3577712609970674
1.348973607038123
1.3391984359726294
1.3284457478005864
1.316715542521994
1.3049853372434017
1.29227761485826
1.278592375366569
1.2668621700879763
1.2561094819159335
1.241446725317693
1.2258064516129032
1.2101661779081134
1.1945259042033236
1.1779081133919844
1.160312805474096
1.1837732160312806
1.2287390029325511
1.2443792766373412
1.2453567937438903
1.2394916911045943
1.2355816226783969
1.2326490713587488
1.2267839687194526
1.2209188660801564
1.2150537634408602
1.2101661779081134
1.2052785923753666
1.2013685239491692
1.1994134897360704
1.1974584555229717
1.1945259042033236
1.1915933528836755
1.1915933528836755
1.1945259042033236
1.1964809384164223
1.1974584555229717
1.1994134897360704
1.2023460410557183
1.209188660801564
1.2160312805474096
1.2209188660801564
1.224828934506354
1.227761485826002
1.2297165200391007
1.2316715542521994
1.238514173998045
1.2541544477028348
1.2864125122189638
1.3450635386119256
1.439882697947214
1.573802541544477
1.7438905180840665
1.9403714565004888
2.150537634408602
2.360703812316716
2.555229716520039
2.7233626588465296
2.8475073313782997
2.9374389051808407
3.0146627565982405
3.075268817204301
3.120234604105572
3.1515151515151514
3.1700879765395893
3.176930596285435
3.174975562072336
3.1652003910068425
3.150537634408602
3.132942326490713
3.110459433040078
3.0869990224828934
3.065493646138808
3.04594330400782
3.026392961876833
3.004887585532747
2.981427174975562
2.9550342130987293
2.924731182795699
2.889540566959922
2.850439882697948
2.806451612903226
2.757575757575758
2.708699902248289
2.6578690127077222
2.598240469208211
2.529814271749756
2.4516129032258065
2.363636363636364
2.2668621700879767
2.1622678396871944
2.053763440860215
1.945259042033236
1.842619745845552
1.750733137829912
1.6823069403714566
1.632453567937439
1.5923753665689149
1.565982404692082
1.5532746823069403
1.5483870967741935
1.547409579667644
1.547409579667644
1.5464320625610948
1.544477028347996
1.5386119257087
1.5317693059628543
1.5249266862170088
1.520039100684262
1.5151515151515151
1.509286412512219
1.501466275659824
1.4926686217008798
1.4819159335288368
1.469208211143695
1.456500488758553
1.4428152492668622
1.4291300097751711
1.4164222873900294
1.4037145650048877
1.3958944281524928
1.391006842619746
1.3861192570869991
1.3792766373411536
1.3714565004887584
1.364613880742913
1.3587487781036167
1.35386119257087
1.3509286412512218
1.348973607038123
1.3479960899315735
1.3479960899315735
1.3479960899315735
1.3499511241446724
1.3528836754643203
1.3548387096774193
1.3558162267839686
1.3558162267839686
1.3558162267839686
1.3558162267839686
1.356793743890518
1.3587487781036167
1.3626588465298142
1.3685239491691104
1.3763440860215057
1.3851417399804498
1.392961876832845
1.3988269794721409
1.4007820136852396
1.3988269794721409
1.3949169110459434
1.3949169110459434
1.4076246334310851
1.4408602150537635
1.5053763440860215
1.606060606060606
1.7438905180840665
1.9149560117302051
2.0791788856304985
2.2385141739980448
2.4173998044965788
2.593352883675464
2.750733137829912
2.884652981427175
2.992179863147605
3.075268817204301
3.134897360703812
3.172043010752688
3.1925708699902247
3.20039100684262
3.1955034213098727
3.1808406647116323
3.164222873900293
3.144672531769306
3.124144672531769
3.103616813294233
3.083088954056696
3.06158357771261
3.0410557184750733
3.0195503421309877
2.9960899315738025
2.9716520039100685
2.946236559139785
2.918866080156403
2.887585532746823
2.8533724340175954
2.8152492668621703
2.7722385141739982
2.7233626588465296
2.668621700879765
2.6080156402737047
2.5386119257087
2.4604105571847508
2.3734115347018574
2.27761485826002
2.188660801564027
2.1006842619745845
2.002932551319648
1.906158357771261
1.8162267839687196
1.7390029325513197
1.6793743890518085
1.6363636363636365
1.608993157380254
1.5923753665689149
1.5826001955034212
1.576735092864125
1.5718475073313782
1.5679374389051808
1.563049853372434
1.555229716520039
1.5454545454545454
1.5347018572825024
1.5239491691104594
1.5141739980449658
1.504398826979472
1.4936461388074291
1.4838709677419355
1.4731182795698925
1.4613880742913
1.4516129032258065
1.4428152492668622
1.4320625610948192
1.4193548387096775
1.4066471163245358
1.392961876832845
1.380254154447703
1.367546432062561
1.3558162267839686
1.346041055718475
1.33822091886608
1.3313782991202343
1.3255131964809383
1.3225806451612905
1.321603128054741
1.3196480938416422
1.3186705767350928
1.3176930596285434
1.3176930596285434
1.3176930596285434
1.3176930596285434
1.3176930596285434
1.3176930596285434
1.3176930596285434
1.3196480938416422
1.3255131964809383
1.332355816226784
1.3401759530791788
1.348973607038123
1.359726295210166
1.370478983382209
1.380254154447703
1.3861192570869991
1.388074291300098
1.388074291300098
1.3890518084066472
1.3998044965786902
1.4281524926686218
1.4721407624633431
1.5405669599217986
1.6471163245356797
1.7917888563049853
1.9667644183773216
2.1593352883675463
2.3548387096774195
2.5405669599217986
2.705767350928641
2.843597262952102
2.9530791788856305
3.035190615835777
3.086021505376344
3.1163245356793743
3.085043988269794
3.018572825024438
2.983382209188661
2.959921798631476
2.9393939393939394
2.919843597262952
2.9012707722385143
2.881720430107527
2.8611925708699903
2.8406647116324537
2.8181818181818183
2.795698924731183
2.773216031280548
2.7497556207233624
2.724340175953079
2.695014662756598
2.66177908113392
2.625610948191593
2.5855327468230693
2.541544477028348
2.4946236559139785
2.443792766373412
2.3870967741935485
2.3118279569892475
2.243401759530792
2.187683284457478
2.112414467253177
2.0234604105571847
1.9266862170087975
1.826001955034213
1.7282502443792769
1.6392961876832846
1.563049853372434
1.504398826979472
1.4633431085043989
1.4389051808406648
1.4252199413489737
1.4173998044965788
1.4115347018572826
1.4076246334310851
1.4027370478983383
1.3958944281524928
1.3861192570869991
1.375366568914956
1.364613880742913
1.35386119257087
1.343108504398827
1.3304007820136852
1.3196480938416422
1.3088954056695992
1.295210166177908
1.2776148582600195
1.2580645161290325
1.2375366568914956
1.217008797653959
1.1974584555229717
1.1779081133919844
1.160312805474096
1.1436950146627567
1.1280547409579669
1.1173020527859236
1.1094819159335287
1.1006842619745845
1.0928641251221896
1.0840664711632453
1.0772238514173995
1.072336265884653
1.0684261974584557
1.0654936461388074
1.0635386119257086
1.0625610948191593
1.06158357771261
1.0606060606060606
1.06158357771261
1.0654936461388074
1.0694037145650048
1.0733137829912025
1.0791788856304985
1.0869990224828934
1.096774193548387
1.10752688172043
1.118279569892473
1.1290322580645162
1.1378299120234605
1.142717497556207
1.1456500488758554
1.1466275659824048
1.1466275659824048
1.152492668621701
1.1710654936461389
1.2121212121212122
1.284457478005865
1.3949169110459434
1.541544477028348
1.7174975562072337
1.9100684261974583
2.104594330400782
2.289345063538612
2.434017595307918
2.5464320625610948
2.6480938416422286
2.730205278592375
2.790811339198436
2.832844574780059
2.857282502443793
2.8699902248289346
2.8729227761485827
2.8670576735092865
2.855327468230694
2.8396871945259043
2.819159335288368
2.7966764418377323
2.774193548387097
2.750733137829912
2.7282502443792764
2.7067448680351904
2.6832844574780057
2.6578690127077222
2.63049853372434
2.60019550342131
2.5669599217986314
2.529814271749756
2.487781036168133
2.444770283479961
2.40078201368524
2.3499511241446727
2.2952101661779083
2.233626588465298
2.163245356793744
2.085043988269794
1.997067448680352
1.9012707722385145
1.7996089931573802
1.6950146627565983
1.595307917888563
1.5151515151515151
1.4496578690127078
1.391006842619746
1.3440860215053765
1.3118279569892473
1.2932551319648091
1.284457478005865
1.281524926686217
1.281524926686217
1.281524926686217
1.2795698924731185
1.2756598240469208
1.2717497556207231
1.2688172043010753
1.267839687194526
1.2639296187683284
1.2551319648093842
1.2453567937438903
1.2375366568914956
1.2267839687194526
1.2140762463343109
1.2013685239491692
1.187683284457478
1.173998044965787
1.1612903225806452
1.152492668621701
1.144672531769306
1.1358748778103618
1.126099706744868
1.1173020527859236
1.1085043988269794
1.1016617790811338
1.096774193548387
1.0928641251221896
1.0899315738025417
1.0869990224828934
1.0850439882697946
1.0840664711632453
1.0869990224828934
1.0918866080156402
1.0957966764418376
1.099706744868035
1.1026392961876832
1.1055718475073313
1.1085043988269794
1.1124144672531768
1.1163245356793745
1.1221896383186705
1.1300097751710656
1.13880742913001
1.1505376344086022
1.163245356793744
1.1749755620723363
1.18475073313783
1.1915933528836755
1.1945259042033236
1.198435972629521
1.209188660801564
1.2375366568914956
1.29227761485826
1.380254154447703
1.504398826979472
1.66177908113392
1.8172043010752688
1.9716520039100685
2.146627565982405
2.321603128054741
2.4819159335288368
2.616813294232649
2.7233626588465296
2.803519061583578
2.859237536656892
2.89345063538612
2.911045943304008
2.916911045943304
2.9100684261974585
2.895405669599218
2.878787878787879
2.859237536656892
2.8377321603128056
2.81622678396872
2.795698924731183
2.774193548387097
2.752688172043011
2.7311827956989245
2.708699902248289
2.686217008797654
2.66177908113392
2.634408602150537
2.603128054740958
2.567937438905181
2.5288367546432062
2.4858260019550342
2.4389051808406648
2.388074291300098
2.3313782991202348
2.267839687194526
2.1974584555229715
2.117302052785924
2.027370478983382
1.943304007820137
1.8602150537634408
1.7663734115347018
1.6715542521994136
1.5826001955034212
1.5053763440860215
1.4457478005865103
1.404692082111437
1.3792766373411536
1.3665689149560116
1.3626588465298142
1.3626588465298142
1.3636363636363635
1.364613880742913
1.3636363636363635
1.3587487781036167
1.3509286412512218
1.3411534701857282
1.3304007820136852
1.3196480938416422
1.3088954056695992
1.2873900293255132
1.2580645161290325
1.2365591397849462
1.2189638318670577
1.206256109481916
1.195503421309873
1.1808406647116323
1.164222873900293
1.147605083088954
1.1319648093841643
1.118279569892473
1.1055718475073313
1.0948191593352885
1.086021505376344
1.0791788856304985
1.0733137829912025
1.0703812316715542
1.0684261974584557
1.064516129032258
1.0596285434995112
1.0547409579667644
1.0488758553274682
1.0420332355816226
1.0332355816226784
1.0254154447702837
1.0195503421309873
1.0117302052785924
1.0048875855327468
0.9990224828934506
0.997067448680352
0.9980449657869012
0.9980449657869012
1.0
1.0019550342130987
1.0048875855327468
1.0068426197458455
1.0068426197458455
1.002932551319648
0.997067448680352
0.9931573802541545
0.9990224828934506
1.0175953079178883
1.0576735092864125
1.1300097751710656
1.2394916911045943
1.3841642228739004
1.5581622678396871
1.7487781036168133
1.9413489736070384
2.12316715542522
2.2825024437927666
2.4134897360703813
2.5161290322580645
2.591397849462365
2.636363636363636
2.658846529814272
2.6715542521994133
2.675464320625611
2.6715542521994133
2.66177908113392
2.6471163245356792
2.6285434995112413
2.6070381231671558
2.58455522971652
2.5620723362658846
2.5376344086021505
2.5112414467253177
2.484848484848485
2.4574780058651027
2.429130009775171
2.398826979472141
2.3655913978494625
2.3304007820136854
2.29227761485826
2.251221896383187
2.2052785923753664
2.15347018572825
2.096774193548387
2.0332355816226784
1.970674486803519
1.903225806451613
1.8191593352883677
1.7243401759530792
1.6207233626588464
1.512218963831867
1.4027370478983383
1.2981427174975562
1.2052785923753666
1.1300097751710656
1.0742913000977516
1.0371456500488758
1.0175953079178883
1.010752688172043
1.0087976539589445
1.0097751710654936
1.0097751710654936
1.007820136852395
1.002932551319648
0.9960899315738024
0.9902248289345064
0.9853372434017597
0.981427174975562
0.978494623655914
0.9745845552297164
0.9736070381231672
0.9726295210166178
0.9687194525904204
0.9638318670576737
0.956989247311828
0.9481915933528836
0.9364613880742912
0.9217986314760508
0.9051808406647116
0.8866080156402737
0.8670576735092864
0.8475073313782991
0.833822091886608
0.8240469208211144
0.8113391984359726
0.7986314760508308
0.7869012707722385
0.7761485826001955
0.7683284457478006
0.761485826001955
0.7556207233626588
0.7526881720430108
0.750733137829912
0.7497556207233627
0.750733137829912
0.7565982404692082
0.7673509286412512
0.7771260997067448
0.7869012707722385
0.7956989247311828
0.804496578690127
0.8132942326490714
0.8220918866080157
0.83088954056696
0.8396871945259042
0.8465298142717498
0.8514173998044966
0.8592375366568915
0.8719452590420332
0.8934506353861192
0.935483870967742
1.0097751710654936
1.1221896383186705
1.2766373411534702
1.466275659824047
1.6793743890518085
1.902248289345064
2.156402737047898
2.3704789833822093
2.5083088954056696
2.6148582600195502
2.695014662756598
2.763440860215054
2.8152492668621703
2.850439882697948
2.870967741935484
2.878787878787879
2.87683284457478
2.8670576735092865
2.852394916911046
2.833822091886608
2.811339198435973
2.7859237536656893
2.760508308895406
2.735092864125122
2.708699902248289
2.6803519061583576
2.650048875855328
2.6177908113391983
2.582600195503421
2.544477028347996
2.5024437927663734
2.4574780058651027
2.407624633431085
2.350928641251222
2.294232649071359
2.233626588465298
2.160312805474096
2.075268817204301
1.978494623655914
1.8729227761485825
1.7634408602150538
1.6559139784946235
1.5571847507331378
1.4711632453567938
1.404692082111437
1.3587487781036167
1.3313782991202343
1.3196480938416422
1.3157380254154447
1.316715542521994
1.3206256109481915
1.3235581622678396
1.3255131964809383
1.324535679374389
1.3196480938416422
1.310850439882698
1.2981427174975562
1.2834799608993157
1.267839687194526
1.2541544477028348
1.2434017595307918
1.23069403714565
1.2160312805474096
1.198435972629521
1.1788856304985338
1.160312805474096
1.142717497556207
1.1241446725317692
1.1036168132942326
1.0840664711632453
1.064516129032258
1.0498533724340176
1.0381231671554252
1.0254154447702837
1.0117302052785924
0.9990224828934506
0.9872922776148584
0.9775171065493646
0.9696969696969696
0.9628543499511242
0.956989247311828
0.9511241446725318
0.9442815249266864
0.9413489736070382
0.9403714565004888
0.9374389051808406
0.9325513196480938
0.927663734115347
0.9247311827956988
0.9237536656891496
0.9237536656891496
0.9257086999022482
0.9296187683284456
0.9345063538611924
0.9403714565004888
0.9452590420332356
0.9530791788856304
0.9608993157380256
0.9648093841642228
0.967741935483871
0.9765395894428152
1.0009775171065494
1.0527859237536656
1.1397849462365592
1.2697947214076246
1.4418377321603129
1.6480938416422288
1.8748778103616808
2.075268817204301
2.2531769305962857
2.4349951124144678
2.627565982404692
2.806451612903226
2.9345063538611926
3.0234604105571847
3.083088954056696
3.1221896383186705
3.145650048875855
3.156402737047898
3.156402737047898
3.1485826001955037
3.131964809384164
3.1114369501466275
3.090909090909091
3.071358748778104
3.0527859237536656
3.032258064516129
3.0117302052785924
2.989247311827957
2.964809384164223
2.936461388074292
2.903225806451613
2.866080156402737
2.8269794721407626
2.773216031280548
2.721407624633431
2.6803519061583576
2.6285434995112413
2.56891495601173
2.5004887585532747
2.4222873900293256
2.334310850439883
2.2385141739980448
2.134897360703812
2.0254154447702835
1.913978494623656
1.818181818181818
1.737047898338221
1.656891495601173
1.587487781036168
1.533724340175953
1.4975562072336266
1.4760508308895406
1.4652981427174976
1.4594330400782014
1.455522971652004
1.4516129032258065
1.4467253176930597
1.4428152492668622
1.4389051808406648
1.4320625610948192
1.4242424242424243
1.4164222873900294
1.4086021505376345
1.4007820136852396
1.392961876832845
1.3851417399804498
1.3763440860215057
1.367546432062561
1.3577712609970674
1.3470185728250244
1.3401759530791788
1.3343108504398826
1.3264907135874875
1.3157380254154447
1.3040078201368523
1.2932551319648091
1.2834799608993157
1.2746823069403714
1.2668621700879763
1.2609970674486803
1.2561094819159335
1.2531769305962854
1.2531769305962854
1.2561094819159335
1.2580645161290325
1.2590420332355816
1.2609970674486803
1.262952101661779
1.2658846529814272
1.2688172043010753
1.2717497556207231
1.273704789833822
1.2776148582600195
1.2834799608993157
1.289345063538612
1.2981427174975562
1.3088954056695992
1.321603128054741
1.3333333333333333
1.3440860215053765
1.3528836754643203
1.3607038123167154
1.3665689149560116
1.3743890518084063
1.3958944281524928
1.4418377321603129
1.520039100684262
1.6129032258064515
1.7282502443792769
1.8885630498533723
2.078201368523949
2.280547409579668
2.479960899315738
2.6637341153470184
2.822091886608016
2.9501466275659824
3.047898338220919
3.1192570869990224
3.1681329423264906
3.1974584555229715
3.2082111436950145
3.2082111436950145
3.204301075268817
3.196480938416422
3.1847507331378297
3.1681329423264906
3.1495601173020527
3.1309872922776147
3.112414467253177
3.086021505376344
3.06158357771261
3.043010752688172
3.0195503421309877
2.9853372434017595
2.95405669599218
2.929618768328446
2.8993157380254155
2.850439882697948
2.801564027370479
2.763440860215054
2.713587487781036
2.654936461388074
2.5884652981427174
2.5141739980449658
2.432062561094819
2.3528836754643208
2.272727272727273
2.179863147605083
2.080156402737048
1.9608993157380252
1.858260019550342
1.7917888563049853
1.7341153470185728
1.689149560117302
1.656891495601173
1.635386119257087
1.6217008797653958
1.6148582600195502
1.6099706744868034
1.6041055718475072
1.5972629521016617
1.585532746823069
1.573802541544477
1.564027370478983
1.5542521994134897
1.541544477028348
1.5298142717497556
1.521016617790811
1.5112414467253177
1.499511241446725
1.4897360703812317
1.4809384164222874
1.466275659824047
1.4516129032258065
1.439882697947214
1.4252199413489737
1.409579667644184
1.393939393939394
1.380254154447703
1.3685239491691104
1.359726295210166
1.3558162267839686
1.3558162267839686
1.3548387096774193
1.3528836754643203
1.3509286412512218
1.3499511241446724
1.348973607038123
1.348973607038123
1.348973607038123
1.348973607038123
1.348973607038123
1.3499511241446724
1.3548387096774193
1.3607038123167154
1.3665689149560116
1.3743890518084063
1.383186705767351
1.392961876832845
1.4007820136852396
1.409579667644184
1.4213098729227762
1.4301075268817205
1.4349951124144673
1.436950146627566
1.4379276637341154
1.4437927663734116
1.458455522971652
1.4926686217008798
1.5571847507331378
1.656891495601173
1.7947214076246334
1.964809384164223
2.155425219941349
2.3528836754643208
2.541544477028348
2.7116324535679373
2.855327468230694
2.956011730205278
3.0254154447702835
3.083088954056696
3.1251221896383186
3.1515151515151514
3.164222873900293
3.1652003910068425
3.157380254154448
3.1417399804496577
3.1221896383186705
3.099706744868035
3.0762463343108504
3.053763440860215
3.029325513196481
3.002932551319648
2.9765395894428157
2.951124144672532
2.9257086999022484
2.900293255131965
2.8719452590420333
2.841642228739003
2.809384164222874
2.773216031280548
2.732160312805474
2.687194525904203
2.6402737047898337
2.590420332355816
2.532746823069404
2.4672531769305963
2.3919843597262958
2.3069403714565007
2.2130987292277613
2.112414467253177
2.0087976539589443
1.9071358748778104
1.8132942326490715
1.732160312805474
1.6666666666666667
1.6207233626588464
1.590420332355816
1.5679374389051808
1.552297165200391
1.541544477028348
1.533724340175953
1.5268817204301075
1.5180840664711632
1.5083088954056696
1.436950146627566
1.3343108504398826
1.2776148582600195
1.2453567937438903
1.2267839687194526
1.2111436950146628
1.1964809384164223
1.181818181818182
1.1652003910068427
1.1485826001955035
1.1319648093841643
1.115347018572825
1.099706744868035
1.0869990224828934
1.075268817204301
1.0635386119257086
1.0557184750733135
1.050830889540567
1.0439882697947214
1.0371456500488758
1.029325513196481
1.021505376344086
1.0156402737047898
1.0127077223851415
1.0097751710654936
1.0087976539589445
1.0087976539589445
1.0097751710654936
1.013685239491691
1.018572825024438
1.0224828934506354
1.0254154447702837
1.0283479960899315
1.0312805474095796
1.035190615835777
1.040078201368524
1.0449657869012707
1.0498533724340176
1.056695992179863
1.0654936461388074
1.0742913000977516
1.0840664711632453
1.0918866080156402
1.096774193548387
1.099706744868035
1.1055718475073313
1.1221896383186705
1.1593352883675463
1.2267839687194526
1.3313782991202343
1.4721407624633431
1.6441837732160314
1.836754643206256
2.0087976539589443
2.1622678396871944
2.320625610948192
2.466275659824047
2.5884652981427174
2.684261974584555
2.7565982404692084
2.807429130009776
2.838709677419355
2.855327468230694
2.860215053763441
2.855327468230694
2.8426197458455524
2.823069403714565
2.80058651026393
2.779081133919844
2.757575757575758
2.73802541544477
2.719452590420332
2.7008797653958942
2.681329423264907
2.6608015640273703
2.638318670576735
2.611925708699902
2.581622678396872
2.548387096774193
2.5131964809384164
2.4731182795698925
2.429130009775171
2.380254154447703
2.326490713587488
2.2668621700879767
2.20039100684262
2.126099706744868
2.043010752688172
1.9501466275659824
1.8504398826979471
1.7468230694037146
1.656891495601173
1.5786901270772238
1.500488758553275
1.4320625610948192
1.3773216031280548
1.3391984359726294
1.316715542521994
1.3049853372434017
1.300097751710655
1.2981427174975562
1.2961876832844574
1.2932551319648091
1.2903225806451613
1.2854349951124144
1.2776148582600195
1.2688172043010753
1.2590420332355816
1.2482893450635386
1.2365591397849462
1.2238514173998043
1.2111436950146628
1.1974584555229717
1.1827956989247312
