ppg
1.0009775171065494
1.0009775171065494
1.0009775171065494
1.0009775171065494
1.0009775171065494
1.0009775171065494
1.0009775171065494
1.0009775171065494
1.0019550342130987
1.0058651026392962
1.0087976539589445
1.010752688172043
1.0127077223851415
1.0156402737047898
1.0166177908113392
1.018572825024438
1.021505376344086
1.024437927663734
1.0273704789833822
1.0303030303030305
1.0342130987292275
1.0391006842619743
1.0449657869012707
1.050830889540567
1.0547409579667644
1.056695992179863
1.0596285434995112
1.0606060606060606
1.0586510263929618
1.0576735092864125
1.0586510263929618
1.06158357771261
1.072336265884653
1.0909090909090908
1.1221896383186705
1.173998044965787
1.2512218963831867
1.3577712609970674
1.4916911045943304
1.64613880742913
1.8162267839687196
1.9902248289345064
2.1593352883675463
2.315738025415445
2.4545454545454546
2.5591397849462365
2.638318670576735
2.7126099706744866
2.776148582600196
2.8260019550342133
2.86217008797654
2.887585532746823
2.905180840664712
2.916911045943304
2.9237536656891496
2.9257086999022484
2.9237536656891496
2.919843597262952
2.909090909090909
2.89247311827957
2.874877810361681
2.8563049853372435
2.834799608993157
2.811339198435973
2.782991202346041
2.7497556207233624
2.7116324535679373
2.668621700879765
2.622678396871945
2.5698924731182795
2.517106549364614
2.462365591397849
2.398826979472141
2.3274682306940373
2.249266862170088
2.164222873900293
2.075268817204301
1.9824046920821117
1.8856304985337244
1.790811339198436
1.7008797653958945
1.6187683284457477
1.5483870967741935
1.495601173020528
1.456500488758553
1.4222873900293256
1.3958944281524928
1.3782991202346042
1.3665689149560116
1.359726295210166
1.3528836754643203
1.3440860215053765
1.3333333333333333
1.3225806451612905
1.3079178885630498
1.2932551319648091
1.278592375366569
1.260019550342131
1.238514173998045
1.2160312805474096
1.1945259042033236
1.1749755620723363
1.1564027370478984
1.13880742913001
1.1221896383186705
1.1085043988269794
1.096774193548387
1.0869990224828934
1.0791788856304985
1.0811339198435972
1.0869990224828934
1.0869990224828934
1.0840664711632453
1.0791788856304985
1.075268817204301
1.072336265884653
1.067448680351906
1.0654936461388074
1.064516129032258
1.0606060606060606
1.0606060606060606
1.0635386119257086
1.0635386119257086
1.0606060606060606
1.0586510263929618
1.0596285434995112
1.06158357771261
1.0654936461388074
1.0703812316715542
1.075268817204301
1.0811339198435972
1.0869990224828934
1.0948191593352885
1.104594330400782
1.115347018572825
1.1280547409579669
1.141739980449658
1.1544477028347997
1.1652003910068427
1.173998044965787
1.181818181818182
1.1886608015640274
1.1945259042033236
1.2003910068426198
1.206256109481916
1.2121212121212122
1.217008797653959
1.2189638318670577
1.2228739002932552
1.2355816226783969
1.2649071358748778
1.3157380254154447
1.3919843597262953
1.4965786901270772
1.6285434995112416
1.7810361681329423
1.9472140762463344
2.117302052785924
2.260997067448681
2.3851417399804498
2.5131964809384164
2.6295210166177907
2.730205278592375
2.8132942326490715
2.87683284457478
2.9237536656891496
2.9579667644183774
2.9824046920821115
2.99902248289345
3.010752688172043
3.013685239491691
3.010752688172043
3.007820136852395
3.002932551319648
2.997067448680352
2.988269794721408
2.973607038123167
2.9530791788856305
2.927663734115347
2.898338220918866
2.865102639296188
2.83088954056696
2.792766373411535
2.752688172043011
2.710654936461388
2.6608015640273703
2.6041055718475072
2.541544477028348
2.4711632453567938
2.393939393939394
2.312805474095797
2.225806451612903
2.1309872922776147
2.03128054740958
1.9305962854349952
1.842619745845552
1.7653958944281525
1.686217008797654
1.6109481915933528
1.543499511241447
1.4858260019550342
1.4408602150537635
1.4056695992179864
1.3792766373411536
1.3607038123167154
1.3450635386119256
1.3313782991202343
1.3186705767350928
1.3079178885630498
1.295210166177908
1.2766373411534702
1.2551319648093842
1.2336265884652982
1.2130987292277615
1.1906158357771262
1.1671554252199414
1.1436950146627567
1.1192570869990224
1.096774193548387
1.0772238514173995
1.0625610948191593
1.050830889540567
1.0391006842619743
1.0283479960899315
1.0205278592375366
1.0166177908113392
1.0117302052785924
1.0058651026392962
1.0
0.9941348973607038
0.989247311827957
0.9843597262952102
0.9804496578690128
0.981427174975562
0.9843597262952102
0.9863147605083088
0.9872922776148584
0.9872922776148584
0.9872922776148584
0.9872922776148584
0.9872922776148584
0.9872922776148584
0.9872922776148584
0.9872922776148584
0.9872922776148584
0.9902248289345064
0.997067448680352
1.0019550342130987
1.0058651026392962
1.010752688172043
1.0146627565982405
1.0175953079178883
1.0224828934506354
1.0273704789833822
1.0312805474095796
1.035190615835777
1.0391006842619743
1.0410557184750733
1.0449657869012707
1.0498533724340176
1.0518084066471165
1.0527859237536656
1.053763440860215
1.0527859237536656
1.0488758553274682
1.0439882697947214
1.0410557184750733
1.0449657869012707
1.056695992179863
1.0850439882697946
1.126099706744868
1.18475073313783
1.273704789833822
1.392961876832845
1.5376344086021505
1.7018572825024438
1.8748778103616808
2.0498533724340176
2.217986314760508
2.372434017595308
2.5102639296187683
2.625610948191593
2.7067448680351904
2.7653958944281527
2.817204301075269
2.8582600195503423
2.889540566959922
2.911045943304008
2.924731182795699
2.932551319648094
2.935483870967742
2.9335288367546437
2.9266862170087977
2.913978494623656
2.900293255131965
2.884652981427175
2.865102639296188
2.8426197458455524
2.8181818181818183
2.789833822091887
2.757575757575758
2.7233626588465296
2.686217008797654
2.6451612903225805
2.5992179863147604
2.548387096774193
2.49266862170088
2.4379276637341154
2.380254154447703
2.3118279569892475
2.232649071358749
2.144672531769306
2.0498533724340176
1.951124144672532
1.8523949169110456
1.7556207233626588
1.6637341153470186
1.5835777126099706
1.5151515151515151
1.4594330400782014
1.423264907135875
1.396871945259042
1.375366568914956
1.3587487781036167
1.3440860215053765
1.3304007820136852
1.3176930596285434
1.303030303030303
1.2864125122189638
1.270772238514174
1.252199413489736
1.2326490713587488
1.2179863147605083
1.206256109481916
1.1915933528836755
1.1749755620723363
1.1544477028347997
1.1329423264907137
1.1124144672531768
1.093841642228739
1.075268817204301
1.056695992179863
1.043010752688172
1.0332355816226784
1.0254154447702837
1.024437927663734
1.0273704789833822
1.0283479960899315
1.029325513196481
1.0283479960899315
1.024437927663734
1.021505376344086
1.0195503421309873
1.018572825024438
1.018572825024438
1.0195503421309873
1.021505376344086
1.024437927663734
1.0273704789833822
1.0283479960899315
1.029325513196481
1.029325513196481
1.029325513196481
1.029325513196481
1.029325513196481
1.035190615835777
1.04594330400782
1.0527859237536656
1.0576735092864125
1.0625610948191593
1.0694037145650048
1.0762463343108504
1.0811339198435972
1.0850439882697946
1.0869990224828934
1.088954056695992
1.0918866080156402
1.0928641251221896
1.093841642228739
1.093841642228739
1.0928641251221896
1.088954056695992
1.0869990224828934
1.0879765395894427
1.0899315738025417
1.0948191593352885
1.1085043988269794
1.13880742913001
1.1896383186705768
1.262952101661779
1.3626588465298142
1.4887585532746823
1.6363636363636365
1.7976539589442817
1.964809384164223
2.1094819159335287
2.2375366568914954
2.36950146627566
2.4916911045943304
2.598240469208211
2.687194525904203
2.7595307917888565
2.814271749755621
2.8533724340175954
2.878787878787879
2.8944281524926687
2.9042033235581624
2.903225806451613
2.895405669599218
2.8885630498533725
2.8807429130009776
2.870967741935484
2.860215053763441
2.8475073313782997
2.83088954056696
2.8103616813294234
2.7859237536656893
2.755620723362659
2.724340175953079
2.6940371456500487
2.662756598240469
2.6285434995112413
2.5884652981427174
2.541544477028348
2.4887585532746823
2.4271749755620724
2.356793743890518
2.2795698924731185
2.1955034213098727
2.1055718475073317
2.010752688172043
1.9159335288367547
1.836754643206256
1.7663734115347018
1.6930596285434996
1.6236559139784943
1.5610948191593352
1.5073313782991202
1.4643206256109482
1.4330400782013686
1.409579667644184
1.3919843597262953
1.3773216031280548
1.364613880742913
1.3509286412512218
1.33822091886608
1.3255131964809383
1.3088954056695992
1.2903225806451613
1.270772238514174
1.252199413489736
1.2375366568914956
1.2228739002932552
1.206256109481916
1.1906158357771262
1.176930596285435
1.163245356793744
1.1534701857282503
1.1485826001955035
1.141739980449658
1.1319648093841643
1.1231671554252198
1.1143695014662756
1.1036168132942326
1.0948191593352885
1.0869990224828934
1.0801564027370478
1.0742913000977516
1.0684261974584557
1.0635386119257086
1.0625610948191593
1.0625610948191593
1.0625610948191593
1.0625610948191593
1.0606060606060606
1.0596285434995112
1.0576735092864125
1.0557184750733135
1.0547409579667644
1.053763440860215
1.0547409579667644
1.0586510263929618
1.064516129032258
1.072336265884653
1.0791788856304985
1.0850439882697946
1.0909090909090908
1.0948191593352885
1.0987292277614855
1.1036168132942326
1.1085043988269794
1.1143695014662756
1.1202346041055715
1.126099706744868
1.1329423264907137
1.1407624633431086
1.147605083088954
1.1544477028347997
1.160312805474096
1.166177908113392
1.1720430107526882
1.1779081133919844
1.1837732160312806
1.1896383186705768
1.1974584555229717
1.2101661779081134
1.2336265884652982
1.267839687194526
1.3186705767350928
1.3978494623655917
1.5063538611925709
1.640273704789834
1.7956989247311828
1.963831867057673
2.1358748778103616
2.3010752688172045
2.4516129032258065
2.58455522971652
2.695014662756598
2.773216031280548
2.8289345063538613
2.878787878787879
2.920821114369501
2.95405669599218
2.9775171065493646
2.994134897360704
3.004887585532747
3.0117302052785924
3.013685239491691
3.0117302052785924
3.004887585532747
2.9931573802541545
2.973607038123167
2.948191593352884
2.920821114369501
2.8905180840664717
2.8582600195503423
2.8240469208211145
2.789833822091887
2.7536656891495603
2.7145650048875853
2.6715542521994133
2.6236559139784945
2.572825024437928
2.5219941348973607
2.469208211143695
2.407624633431085
2.3382209188660803
2.260997067448681
2.176930596285435
2.088954056695992
1.9980449657869013
1.90811339198436
1.822091886608016
1.7409579667644184
1.6686217008797657
1.607038123167155
1.560117302052786
1.5249266862170088
1.4936461388074291
1.4682306940371457
1.447702834799609
1.4320625610948192
1.418377321603128
1.4056695992179864
1.392961876832845
1.3812316715542523
1.3695014662756595
1.3548387096774193
1.3401759530791788
1.3255131964809383
1.305962854349951
1.284457478005865
1.2649071358748778
1.2482893450635386
1.2336265884652982
1.2209188660801564
1.2052785923753666
1.1906158357771262
1.1759530791788857
1.1612903225806452
1.1495601173020529
1.141739980449658
1.1348973607038124
1.1270772238514175
1.1202346041055715
1.1143695014662756
1.1085043988269794
1.1026392961876832
1.096774193548387
1.0909090909090908
1.0869990224828934
1.083088954056696
1.078201368523949
1.0762463343108504
1.075268817204301
1.0733137829912025
1.072336265884653
1.0713587487781036
1.0713587487781036
1.0713587487781036
1.0713587487781036
1.0694037145650048
1.0654936461388074
1.0606060606060606
1.0586510263929618
1.0576735092864125
1.0586510263929618
1.0635386119257086
1.0684261974584557
1.0742913000977516
1.0801564027370478
1.086021505376344
1.0899315738025417
1.0928641251221896
1.0957966764418376
1.0977517106549364
1.0987292277614855
1.1006842619745845
1.1055718475073313
1.1114369501466277
1.1016617790811338
1.0821114369501466
1.0713587487781036
1.0654936461388074
1.064516129032258
1.0694037145650048
1.0869990224828934
1.1221896383186705
1.1798631476050832
1.2639296187683284
1.3743890518084063
1.487781036168133
1.6099706744868034
1.7605083088954057
1.9237536656891496
2.089931573802541
2.2502443792766376
2.3958944281524928
2.5239491691104594
2.632453567937439
2.721407624633431
2.790811339198436
2.8426197458455524
2.870967741935484
2.886608015640274
2.902248289345064
2.913978494623656
2.9227761485826003
2.927663734115347
2.9266862170087977
2.9237536656891496
2.9159335288367547
2.903225806451613
2.887585532746823
2.870967741935484
2.852394916911046
2.8299120234604107
2.8054740957966766
2.7781036168132944
2.744868035190616
2.70772238514174
2.6666666666666665
2.6207233626588464
2.56891495601173
2.5131964809384164
2.452590420332356
2.3851417399804498
2.3118279569892475
2.2404692082111435
2.1681329423264906
2.081133919843597
1.9853372434017595
1.8885630498533723
1.7956989247311828
1.7096774193548387
1.6363636363636365
1.573802541544477
1.5239491691104594
1.4858260019550342
1.455522971652004
1.4320625610948192
1.414467253176931
1.3998044965786902
1.3841642228739004
1.370478983382209
1.3577712609970674
1.346041055718475
1.3343108504398826
1.3225806451612905
1.3088954056695992
1.2932551319648091
1.2766373411534702
1.2570869990224829
1.2404692082111437
1.224828934506354
1.206256109481916
1.1896383186705768
1.1749755620723363
1.1622678396871946
1.1515151515151516
1.142717497556207
1.1319648093841643
1.121212121212121
1.1124144672531768
1.1055718475073313
1.0987292277614855
1.0957966764418376
1.093841642228739
1.0899315738025417
1.0850439882697946
1.0811339198435972
1.078201368523949
1.0733137829912025
1.0684261974584557
1.0625610948191593
1.056695992179863
1.050830889540567
1.0449657869012707
1.043010752688172
1.0469208211143697
1.0518084066471165
1.0576735092864125
1.0635386119257086
1.0694037145650048
1.0733137829912025
1.0772238514173995
1.0791788856304985
1.0801564027370478
1.0821114369501466
1.0840664711632453
1.0899315738025417
1.096774193548387
1.1036168132942326
1.1094819159335287
1.1143695014662756
1.1173020527859236
1.1202346041055715
1.121212121212121
1.1202346041055715
1.1202346041055715
1.1202346041055715
1.121212121212121
1.1280547409579669
1.141739980449658
1.164222873900293
1.2052785923753666
1.2727272727272727
1.367546432062561
1.4887585532746823
1.6344086021505375
1.796676441837732
1.964809384164223
2.1309872922776147
2.286412512218964
2.426197458455523
2.5347018572825024
2.618768328445748
2.697947214076246
2.766373411534702
2.819159335288368
2.859237536656892
2.886608015640274
2.903225806451613
2.9120234604105573
2.913000977517106
2.911045943304008
2.9071358748778104
2.902248289345064
2.89247311827957
2.87683284457478
2.8611925708699903
2.8475073313782997
2.833822091886608
2.81622678396872
2.795698924731183
2.7702834799608995
2.739980449657869
2.7067448680351904
2.670576735092864
2.63049853372434
2.587487781036168
2.5405669599217986
2.4858260019550342
2.423264907135875
2.3519061583577714
2.272727272727273
2.188660801564027
2.1006842619745845
2.006842619745845
1.9120234604105573
1.822091886608016
1.737047898338221
1.6598240469208212
1.6011730205278591
1.555229716520039
1.5141739980449658
1.4819159335288368
1.456500488758553
1.4379276637341154
1.4242424242424243
1.4134897360703813
1.401759530791789
1.3890518084066472
1.3763440860215057
1.3636363636363635
1.3548387096774193
1.3470185728250244
1.3362658846529814
1.3196480938416422
1.300097751710655
1.2795698924731185
1.260019550342131
1.2404692082111437
1.2218963831867058
1.2052785923753666
1.1906158357771262
1.1788856304985338
1.1671554252199414
1.1593352883675463
1.155425219941349
1.1505376344086022
1.1456500488758554
1.1397849462365592
1.133919843597263
1.1280547409579669
1.1221896383186705
1.1173020527859236
1.115347018572825
1.1143695014662756
1.1124144672531768
1.1114369501466277
1.1133919843597262
1.1143695014662756
1.1124144672531768
1.1094819159335287
1.1085043988269794
1.10752688172043
1.1085043988269794
1.1124144672531768
1.1173020527859236
1.1231671554252198
1.1290322580645162
1.1348973607038124
1.141739980449658
1.1495601173020529
1.1564027370478984
1.163245356793744
1.1691104594330402
1.1759530791788857
1.1808406647116323
1.1827956989247312
1.1837732160312806
1.18475073313783
1.18475073313783
1.18475073313783
1.1867057673509287
1.1886608015640274
1.1896383186705768
1.1906158357771262
1.1906158357771262
1.1906158357771262
1.1935483870967742
1.2052785923753666
1.2316715542521994
1.2795698924731185
1.35386119257087
1.456500488758553
1.585532746823069
1.7135874877810362
1.844574780058651
1.9980449657869013
2.158357771260997
2.314760508308896
2.458455522971652
2.5855327468230693
2.6930596285435
2.795698924731183
2.8856304985337244
2.946236559139785
2.9872922776148583
3.0097751710654936
3.0195503421309877
3.027370478983382
3.03128054740958
3.0303030303030303
3.026392961876833
3.021505376344086
3.0146627565982405
3.002932551319648
2.988269794721408
2.970674486803519
2.951124144672532
2.9286412512218964
2.9042033235581624
2.877810361681329
2.8484848484848486
2.8152492668621703
2.776148582600196
2.7331378299120237
2.687194525904203
2.634408602150537
2.5747800586510263
2.50733137829912
2.4330400782013686
2.3519061583577714
2.271749755620724
2.190615835777126
2.0987292277614857
2.0009775171065494
1.903225806451613
1.8103616813294232
1.726295210166178
1.6529814271749756
1.5933528836754642
1.547409579667644
1.5141739980449658
1.490713587487781
1.4760508308895406
1.4672531769305963
1.458455522971652
1.4437927663734116
1.4271749755620724
1.409579667644184
1.3919843597262953
1.3743890518084063
1.3577712609970674
1.3401759530791788
1.3225806451612905
1.303030303030303
1.281524926686217
1.2649071358748778
1.2502443792766371
1.2336265884652982
1.2140762463343109
1.1935483870967742
1.1749755620723363
1.1593352883675463
1.1456500488758554
1.1329423264907137
1.1202346041055715
1.1085043988269794
1.099706744868035
1.0918866080156402
1.0879765395894427
1.0879765395894427
1.086021505376344
1.0850439882697946
1.0850439882697946
1.0821114369501466
1.0772238514173995
1.0713587487781036
1.0654936461388074
1.0625610948191593
1.0625610948191593
1.0625610948191593
1.064516129032258
1.0654936461388074
1.0625610948191593
1.0576735092864125
1.0527859237536656
1.0469208211143697
1.0420332355816226
1.040078201368524
1.040078201368524
1.0439882697947214
1.0488758553274682
1.0547409579667644
1.06158357771261
1.0703812316715542
1.0772238514173995
1.0840664711632453
1.0909090909090908
1.0977517106549364
1.1036168132942326
1.110459433040078
1.115347018572825
1.1192570869990224
1.1221896383186705
1.1241446725317692
1.126099706744868
1.130987292277615
1.1348973607038124
1.1378299120234605
1.142717497556207
1.1495601173020529
1.164222873900293
1.1935483870967742
1.24633431085044
1.327468230694037
1.4379276637341154
1.576735092864125
1.737047898338221
1.8856304985337244
2.027370478983382
2.1847507331378297
2.3391984359726297
2.4819159335288368
2.6080156402737047
2.7116324535679373
2.795698924731183
2.859237536656892
2.905180840664712
2.935483870967742
2.95405669599218
2.9667644183773216
2.9687194525904204
2.961876832844575
2.9550342130987293
2.948191593352884
2.941348973607038
2.935483870967742
2.9257086999022484
2.913000977517106
2.900293255131965
2.886608015640274
2.8690127077223853
2.8475073313782997
2.8211143695014664
2.788856304985337
2.7536656891495603
2.7155425219941347
2.6715542521994133
2.621700879765396
2.5669599217986314
2.506353861192571
2.4379276637341154
2.363636363636364
2.2825024437927666
2.193548387096774
2.0987292277614857
2.013685239491691
1.9335288367546437
1.8465298142717497
1.7605083088954057
1.6793743890518085
1.608993157380254
1.5542521994134897
1.512218963831867
1.4809384164222874
1.457478005865103
1.4389051808406648
1.4222873900293256
1.4076246334310851
1.393939393939394
1.3773216031280548
1.3616813294232648
1.346041055718475
1.3264907135874875
1.3049853372434017
1.2825024437927663
1.2609970674486803
1.238514173998045
1.217008797653959
1.1945259042033236
1.1759530791788857
1.163245356793744
1.152492668621701
1.13880742913001
1.126099706744868
1.1133919843597262
1.1026392961876832
1.093841642228739
1.083088954056696
1.0713587487781036
1.0625610948191593
1.0547409579667644
1.0478983382209188
1.0439882697947214
1.0420332355816226
1.0381231671554252
1.0332355816226784
1.0273704789833822
1.021505376344086
1.0156402737047898
1.0097751710654936
1.0039100684261977
0.9990224828934506
0.9980449657869012
0.9990224828934506
1.0009775171065494
1.0068426197458455
1.0117302052785924
1.013685239491691
1.0146627565982405
1.013685239491691
1.013685239491691
1.0117302052785924
1.010752688172043
1.0117302052785924
1.0127077223851415
1.0146627565982405
1.018572825024438
1.0254154447702837
1.0332355816226784
1.0391006842619743
1.043010752688172
1.0469208211143697
1.0488758553274682
1.0498533724340176
1.0518084066471165
1.0557184750733135
1.0596285434995112
1.0625610948191593
1.064516129032258
1.0625610948191593
1.0625610948191593
1.067448680351906
1.0762463343108504
1.0948191593352885
1.130987292277615
1.1906158357771262
1.278592375366569
1.3949169110459434
1.5356793743890518
1.696969696969697
1.870967741935484
2.046920821114369
2.1945259042033234
2.318670576735093
2.443792766373412
2.5562072336265884
2.652003910068426
2.729227761485826
2.789833822091887
2.835777126099707
2.868035190615836
2.887585532746823
2.897360703812317
2.902248289345064
2.905180840664712
2.9012707722385143
2.8944281524926687
2.8826979472140764
2.865102639296188
2.850439882697948
2.8367546432062563
2.822091886608016
2.803519061583578
2.782013685239492
2.7595307917888565
2.7331378299120237
2.7008797653958942
2.6666666666666665
2.6295210166177907
2.5865102639296187
2.5376344086021505
2.4838709677419355
2.4242424242424243
2.3597262952101663
2.2873900293255134
2.2082111436950145
2.1221896383186705
2.032258064516129
1.9393939393939397
1.8465298142717497
1.7683284457478006
1.6979472140762464
1.6285434995112416
1.5679374389051808
1.5190615835777126
1.4809384164222874
1.4506353861192571
1.426197458455523
1.4076246334310851
1.3958944281524928
1.383186705767351
1.3695014662756595
1.359726295210166
1.3519061583577712
1.3421309872922775
1.3294232649071358
1.3118279569892473
1.29227761485826
1.273704789833822
1.2531769305962854
1.2326490713587488
1.2130987292277615
1.1935483870967742
1.176930596285435
1.1671554252199414
1.160312805474096
1.1505376344086022
1.141739980449658
1.1319648093841643
1.121212121212121
1.1114369501466277
1.1036168132942326
1.096774193548387
1.0899315738025417
1.083088954056696
1.0772238514173995
1.0713587487781036
1.0684261974584557
1.0664711632453567
1.064516129032258
1.06158357771261
1.0586510263929618
1.056695992179863
1.0557184750733135
1.0557184750733135
1.056695992179863
1.0576735092864125
1.0576735092864125
1.0596285434995112
1.0635386119257086
1.0684261974584557
1.072336265884653
1.0772238514173995
1.083088954056696
1.088954056695992
1.0948191593352885
1.1006842619745845
1.10752688172043
1.1133919843597262
1.1192570869990224
1.126099706744868
1.1319648093841643
1.1397849462365592
1.1485826001955035
1.1544477028347997
1.1573802541544478
1.1583577712609971
1.1593352883675463
1.1593352883675463
1.1593352883675463
1.1593352883675463
1.1622678396871946
1.1720430107526882
1.1915933528836755
1.2218963831867058
1.2658846529814272
1.335288367546432
1.4330400782013686
1.5571847507331378
1.7018572825024438
1.8621700879765395
2.027370478983382
2.189638318670577
2.3421309872922778
2.4780058651026398
2.593352883675464
2.6881720430107525
2.7536656891495603
2.798631476050831
2.838709677419355
2.868035190615836
2.886608015640274
2.8963831867057674
2.898338220918866
