ppg
1.619745845552297
1.6011730205278591
1.590420332355816
1.5865102639296187
1.5865102639296187
1.5884652981427174
1.5923753665689149
1.5962854349951123
1.598240469208211
1.5972629521016617
1.5933528836754642
1.585532746823069
1.5747800586510263
1.5620723362658846
1.5454545454545454
1.5249266862170088
1.5053763440860215
1.4868035190615836
1.4633431085043989
1.4379276637341154
1.412512218963832
1.3841642228739004
1.3519061583577712
1.3186705767350928
1.2903225806451613
1.2727272727272727
1.2766373411534702
1.316715542521994
1.3822091886608017
1.4809384164222874
1.6314760508308896
1.818181818181818
2.021505376344086
2.219941348973607
2.3929618768328447
2.5249266862170088
2.610948191593353
2.6529814271749754
2.6559139784946235
2.63049853372434
2.587487781036168
2.5376344086021505
2.4838709677419355
2.4222873900293256
2.3597262952101663
2.2981427174975564
2.2385141739980448
2.1808406647116323
2.1251221896383186
2.070381231671554
2.016617790811339
1.9618768328445748
1.906158357771261
1.858260019550342
1.8142717497556209
1.7673509286412512
1.7194525904203324
1.6715542521994136
1.6265884652981428
1.5865102639296187
1.552297165200391
1.5249266862170088
1.5053763440860215
1.4936461388074291
1.4897360703812317
1.4926686217008798
1.498533724340176
1.5053763440860215
1.5131964809384164
1.521016617790811
1.525904203323558
1.525904203323558
1.521016617790811
1.5102639296187683
1.4965786901270772
1.478005865102639
1.455522971652004
1.4320625610948192
1.4134897360703813
1.3978494623655917
1.3782991202346042
1.3558162267839686
1.3284457478005864
1.300097751710655
1.2717497556207231
1.2434017595307918
1.2189638318670577
1.209188660801564
1.2267839687194526
1.2834799608993157
1.3851417399804498
1.5034213098729228
1.6441837732160314
1.8240469208211143
2.018572825024438
2.206256109481916
2.3655913978494625
2.484848484848485
2.5591397849462365
2.589442815249267
2.581622678396872
2.547409579667644
2.495601173020528
2.4408602150537635
2.3851417399804498
2.324535679374389
2.26197458455523
2.20039100684262
2.1417399804496577
2.083088954056696
2.026392961876833
1.970674486803519
1.9149560117302051
1.8602150537634408
1.8084066471163245
1.7644183773216031
1.726295210166178
1.683284457478006
1.6373411534701858
1.5923753665689149
1.552297165200391
1.5141739980449658
1.479960899315738
1.4506353861192571
1.43108504398827
1.4213098729227762
1.4193548387096775
1.423264907135875
1.43108504398827
1.439882697947214
1.4486803519061584
1.456500488758553
1.4623655913978495
1.4623655913978495
1.457478005865103
1.4467253176930597
1.4330400782013686
1.4173998044965788
1.3978494623655917
1.3773216031280548
1.3607038123167154
1.3450635386119256
1.3255131964809383
1.3020527859237536
1.2766373411534702
1.2482893450635386
1.2160312805474096
1.18475073313783
1.164222873900293
1.163245356793744
1.198435972629521
1.2776148582600195
1.4027370478983383
1.541544477028348
1.6959921798631477
1.8856304985337244
2.0791788856304985
2.2521994134897363
2.3870967741935485
2.4760508308895406
2.5210166177908118
2.527859237536657
2.505376344086021
2.463343108504399
2.4086021505376345
2.3519061583577714
2.2952101661779083
2.2355816226783967
2.174975562072336
2.113391984359726
2.053763440860215
1.9960899315738023
1.9393939393939397
1.8856304985337244
1.8347996089931573
1.7849462365591398
1.7350928641251222
1.6852394916911049
1.6422287390029326
1.6041055718475072
1.563049853372434
1.521994134897361
1.482893450635386
1.4486803519061584
1.4222873900293256
1.4027370478983383
1.3919843597262953
1.3890518084066472
1.392961876832845
1.401759530791789
1.4115347018572826
1.4213098729227762
1.43108504398827
1.4389051808406648
1.4437927663734116
1.4437927663734116
1.439882697947214
1.4320625610948192
1.4203323558162269
1.4056695992179864
1.3890518084066472
1.370478983382209
1.3528836754643203
1.3391984359726294
1.3255131964809383
1.3069403714565004
1.2854349951124144
1.2590420332355816
1.23069403714565
1.2072336265884651
1.1994134897360704
1.2218963831867058
1.2864125122189638
1.3978494623655917
1.555229716520039
1.718475073313783
1.8856304985337244
2.0733137829912023
2.2521994134897363
2.39980449657869
2.505376344086021
2.565982404692082
2.5865102639296187
2.573802541544477
2.536656891495601
2.484848484848485
2.4242424242424243
2.358748778103617
2.2991202346041058
2.242424242424242
2.1818181818181817
2.124144672531769
2.067448680351906
2.013685239491691
1.963831867057673
1.916911045943304
1.8699902248289344
1.8240469208211143
1.7781036168132942
1.732160312805474
1.6911045943304008
1.6549364613880744
1.6177908113391983
1.5806451612903225
1.5464320625610948
1.517106549364614
1.4926686217008798
1.4731182795698925
1.4613880742913
1.456500488758553
1.457478005865103
1.4623655913978495
1.469208211143695
1.47702834799609
1.4848484848484849
1.4897360703812317
1.490713587487781
1.487781036168133
1.479960899315738
1.4672531769305963
1.4516129032258065
1.4349951124144673
1.4164222873900294
1.3958944281524928
1.3743890518084063
1.356793743890518
1.3411534701857282
1.3206256109481915
1.2971652003910068
1.270772238514174
1.2443792766373412
1.224828934506354
1.2258064516129032
1.2590420332355816
1.335288367546432
1.4613880742913
1.6304985337243405
1.828934506353861
2.0117302052785924
2.174975562072336
2.335288367546432
2.4672531769305963
2.558162267839687
2.603128054740958
2.6080156402737047
2.582600195503421
2.536656891495601
2.4789833822091887
2.4144672531769307
2.3489736070381237
2.291300097751711
2.236559139784946
2.1788856304985336
2.1221896383186705
2.065493646138808
2.010752688172043
1.956989247311828
1.905180840664712
1.857282502443793
1.8084066471163245
1.7595307917888563
1.7126099706744868
1.6656891495601174
1.6236559139784943
1.5884652981427174
1.552297165200391
1.5190615835777126
1.490713587487781
1.4711632453567938
1.4604105571847508
1.457478005865103
1.4623655913978495
1.474095796676442
1.4868035190615836
1.4975562072336266
1.5073313782991202
1.5151515151515151
1.521016617790811
1.521016617790811
1.5141739980449658
1.5024437927663734
1.4858260019550342
1.4672531769305963
1.447702834799609
1.4271749755620724
1.4076246334310851
1.3890518084066472
1.3734115347018572
1.3577712609970674
1.335288367546432
1.3069403714565004
1.2756598240469208
1.2473118279569892
1.23069403714565
1.2375366568914956
1.2805474095796676
1.370478983382209
1.5083088954056696
1.686217008797654
1.8905180840664717
2.0733137829912023
2.232649071358749
2.3870967741935485
2.5112414467253177
2.593352883675464
2.633431085043988
2.636363636363636
2.608993157380254
2.5610948191593352
2.501466275659824
2.4349951124144678
2.367546432062561
2.3088954056695994
2.2561094819159337
2.201368523949169
2.146627565982405
2.0928641251221896
2.040078201368524
1.988269794721408
1.9374389051808407
1.8866080156402736
1.833822091886608
1.7810361681329423
1.729227761485826
1.6793743890518085
1.6383186705767352
1.6041055718475072
1.5708699902248289
1.5395894428152492
1.5131964809384164
1.5102639296187683
1.52297165200391
1.5317693059628543
1.5405669599217986
1.552297165200391
1.5650048875855327
1.576735092864125
1.5865102639296187
1.595307917888563
1.5992179863147604
1.598240469208211
1.590420332355816
1.576735092864125
1.5610948191593352
1.543499511241447
1.52297165200391
1.501466275659824
1.4819159335288368
1.4594330400782014
1.4349951124144673
1.4134897360703813
1.3919843597262953
1.3655913978494625
1.33822091886608
1.313782991202346
1.3040078201368523
1.3225806451612905
1.3792766373411536
1.482893450635386
1.6373411534701858
1.8318670576735088
2.048875855327468
2.242424242424242
2.4086021505376345
2.567937438905181
2.6959921798631474
2.779081133919844
2.814271749755621
2.8103616813294234
2.779081133919844
2.7282502443792764
2.667644183773216
2.601173020527859
2.533724340175953
2.4672531769305963
2.407624633431085
2.3528836754643208
2.297165200391007
2.242424242424242
2.189638318670577
2.136852394916911
2.0840664711632453
2.03128054740958
1.9794721407624636
1.9257086999022484
1.8699902248289344
1.81524926686217
1.76930596285435
1.729227761485826
1.689149560117302
1.6529814271749756
1.6236559139784943
1.6041055718475072
1.5943304007820136
1.5933528836754642
1.6001955034213098
1.611925708699902
1.6236559139784943
1.632453567937439
1.6383186705767352
1.6412512218963833
1.640273704789834
1.635386119257087
1.6285434995112416
1.6177908113391983
1.603128054740958
1.585532746823069
1.565982404692082
1.543499511241447
1.5190615835777126
1.495601173020528
1.4711632453567938
1.4516129032258065
1.4330400782013686
1.4066471163245358
1.3792766373411536
1.3587487781036167
1.3577712609970674
1.392961876832845
1.4750733137829912
1.6080156402737047
1.7898338220918866
2.007820136852395
2.2404692082111435
2.4613880742913
2.631476050830889
2.7536656891495603
2.849462365591398
2.90811339198436
2.9286412512218964
2.9159335288367547
2.8797653958944283
2.8299120234604107
2.7702834799608995
2.704789833822092
2.636363636363636
2.567937438905181
2.506353861192571
2.449657869012708
2.3900293255131966
2.329423264907136
2.269794721407625
2.2111436950146626
2.1544477028347995
2.099706744868035
2.0439882697947214
1.986314760508309
1.9305962854349952
1.8778103616813293
1.828934506353861
1.7898338220918866
1.7595307917888563
1.7331378299120237
1.7126099706744868
1.6989247311827955
1.6920821114369502
1.6920821114369502
1.6979472140762464
1.70772238514174
1.7204301075268815
1.7311827956989247
1.7380254154447703
1.7409579667644184
1.739980449657869
1.7341153470185728
1.7223851417399805
1.7057673509286413
1.686217008797654
1.6627565982404693
1.6373411534701858
1.6129032258064515
1.5884652981427174
1.5620723362658846
1.5317693059628543
1.4975562072336266
1.469208211143695
1.4437927663734116
1.418377321603128
1.404692082111437
1.4173998044965788
1.4731182795698925
1.5786901270772238
1.737047898338221
1.9403714565004888
2.1681329423264906
2.3978494623655915
2.608993157380254
2.7673509286412514
2.874877810361681
2.952101661779081
2.992179863147605
2.994134897360704
2.9657869012707723
2.9149560117302054
2.850439882697948
2.777126099706745
2.7008797653958942
2.627565982404692
2.5562072336265884
2.487781036168133
2.4281524926686218
2.3743890518084068
2.318670576735093
2.2629521016617797
2.2082111436950145
2.15347018572825
2.099706744868035
2.0439882697947214
1.986314760508309
1.9315738025415443
1.8807429130009776
1.8328445747800584
1.7947214076246334
1.7644183773216031
1.7380254154447703
1.7174975562072337
1.7038123167155426
1.696969696969697
1.6959921798631477
1.6979472140762464
1.7008797653958945
1.704789833822092
1.7086999022482894
1.710654936461388
1.710654936461388
1.7086999022482894
1.7018572825024438
1.6901270772238517
1.6735092864125125
1.6529814271749756
1.629521016617791
1.6041055718475072
1.576735092864125
1.5483870967741935
1.521994134897361
1.4946236559139785
1.4623655913978495
1.4330400782013686
1.4066471163245358
1.3792766373411536
1.3626588465298142
1.370478983382209
1.418377321603128
1.517106549364614
1.6686217008797657
1.8641251221896384
2.0879765395894427
2.3167155425219943
2.5249266862170088
2.6803519061583576
2.787878787878788
2.865102639296188
2.902248289345064
2.9012707722385143
2.870967741935484
2.8211143695014664
2.758553274682307
2.69208211143695
2.621700879765396
2.5513196480938416
2.482893450635386
2.4164222873900294
2.357771260997068
2.304007820136853
2.2482893450635384
2.193548387096774
2.1388074291300097
2.085043988269794
2.03128054740958
1.975562072336266
1.9178885630498532
1.8602150537634408
1.8054740957966764
1.75366568914956
1.710654936461388
1.6774193548387095
1.6490713587487782
1.6275659824046922
1.6138807429130009
1.6080156402737047
1.6099706744868034
1.616813294232649
1.624633431085044
1.6314760508308896
1.6363636363636365
1.6392961876832846
1.607038123167155
1.5581622678396871
1.5298142717497556
1.5083088954056696
1.4887585532746823
1.469208211143695
1.4467253176930597
1.4222873900293256
1.3988269794721409
1.3743890518084063
1.3479960899315735
1.3176930596285434
1.2834799608993157
1.2551319648093842
1.2336265884652982
1.2150537634408602
1.2111436950146628
1.2365591397849462
1.3020527859237536
1.414467253176931
1.5728250244379276
1.7653958944281525
1.9765395894428155
2.1837732160312804
2.366568914956012
2.5102639296187683
2.6041055718475072
2.656891495601173
2.681329423264907
2.67644183773216
2.649071358748778
2.6041055718475072
2.547409579667644
2.4838709677419355
2.41544477028348
2.347996089931574
2.283479960899316
2.2218963831867056
2.1681329423264906
2.1192570869990224
2.0684261974584555
2.0146627565982405
1.9579667644183771
1.9012707722385145
1.8455522971652003
1.790811339198436
1.737047898338221
1.6852394916911049
1.6363636363636365
1.5913978494623655
1.5513196480938416
1.521016617790811
1.499511241446725
1.4819159335288368
1.4711632453567938
1.4682306940371457
1.4721407624633431
1.4819159335288368
1.4946236559139785
1.5053763440860215
1.512218963831867
1.5161290322580645
1.5141739980449658
1.5112414467253177
1.5053763440860215
1.4936461388074291
1.47702834799609
1.455522971652004
1.43108504398827
1.4076246334310851
1.3841642228739004
1.3616813294232648
1.3391984359726294
1.3147605083088951
1.2854349951124144
1.2541544477028348
1.2316715542521994
1.2218963831867058
1.2287390029325511
1.267839687194526
1.3499511241446724
1.479960899315738
1.6529814271749756
1.858260019550342
2.075268817204301
2.281524926686217
2.4594330400782014
2.5943304007820136
2.67644183773216
2.713587487781036
2.720430107526881
2.699902248289345
2.658846529814272
2.6041055718475072
2.5425219941348973
2.4780058651026398
2.412512218963832
2.3489736070381237
2.286412512218964
2.225806451612903
2.167155425219941
2.115347018572825
2.0684261974584555
2.0175953079178885
1.963831867057673
1.90811339198436
1.8533724340175952
1.7996089931573802
1.7458455522971652
1.694037145650049
1.6451612903225807
1.6001955034213098
1.5610948191593352
1.533724340175953
1.5161290322580645
1.5034213098729228
1.499511241446725
1.501466275659824
1.5083088954056696
1.517106549364614
1.5249266862170088
1.530791788856305
1.533724340175953
1.5317693059628543
1.525904203323558
1.517106549364614
1.509286412512219
1.500488758553275
1.4868035190615836
1.469208211143695
1.4486803519061584
1.4271749755620724
1.4056695992179864
1.383186705767351
1.3616813294232648
1.3372434017595307
1.3098729227761483
1.281524926686217
1.2609970674486803
1.2541544477028348
1.267839687194526
1.3176930596285434
1.41544477028348
1.5620723362658846
1.747800586510264
1.9589442815249267
2.172043010752688
2.364613880742913
2.52297165200391
2.636363636363636
2.7008797653958942
2.724340175953079
2.718475073313783
2.6901270772238512
2.6451612903225805
2.5884652981427174
2.525904203323558
2.4613880742913
2.3978494623655915
2.335288367546432
2.274682306940372
2.21505376344086
2.158357771260997
2.1094819159335287
2.0664711632453567
2.0205278592375366
1.9716520039100685
1.921798631476051
1.8699902248289344
1.8162267839687196
1.7634408602150538
1.7116324535679377
1.6627565982404693
1.6187683284457477
1.581622678396872
1.555229716520039
1.5376344086021505
1.5239491691104594
1.517106549364614
1.5161290322580645
1.5190615835777126
1.5249266862170088
1.530791788856305
1.5356793743890518
1.5366568914956011
1.5327468230694037
1.5239491691104594
1.512218963831867
1.499511241446725
1.4838709677419355
1.4633431085043989
1.439882697947214
1.4164222873900294
1.392961876832845
1.370478983382209
1.3479960899315735
1.324535679374389
1.2971652003910068
1.2649071358748778
1.2316715542521994
1.2072336265884651
1.1974584555229717
1.2072336265884651
1.2502443792766371
1.3391984359726294
1.4760508308895406
1.6559139784946235
1.8621700879765395
2.075268817204301
2.2737047898338223
2.441837732160313
2.56891495601173
2.649071358748778
2.686217008797654
2.689149560117302
2.6666666666666665
2.624633431085044
2.5698924731182795
2.5083088954056696
2.442815249266862
2.375366568914956
2.3069403714565007
2.2385141739980448
2.1710654936461387
2.10752688172043
2.053763440860215
2.003910068426197
1.951124144672532
1.8973607038123168
1.8435972629521016
1.7898338220918866
1.7350928641251222
1.6823069403714566
1.6314760508308896
1.5835777126099706
1.5405669599217986
1.5063538611925709
1.478983382209189
1.4613880742913
1.452590420332356
1.447702834799609
1.447702834799609
1.4516129032258065
1.4594330400782014
1.4682306940371457
1.4760508308895406
1.4819159335288368
1.4819159335288368
1.478005865102639
1.469208211143695
1.4594330400782014
1.4486803519061584
1.4320625610948192
1.4105571847507332
1.388074291300098
1.3655913978494625
1.3450635386119256
1.3235581622678396
1.2971652003910068
1.267839687194526
1.2365591397849462
1.2052785923753666
1.1808406647116323
1.1710654936461389
1.1827956989247312
1.227761485826002
1.3186705767350928
1.4594330400782014
1.6422287390029326
1.8533724340175952
2.0733137829912023
2.27761485826002
2.4486803519061584
2.575757575757576
2.6559139784946235
2.69208211143695
2.69208211143695
2.665689149560117
2.619745845552297
2.5610948191593352
2.4946236559139785
2.4242424242424243
2.3528836754643208
2.2825024437927666
2.2140762463343107
2.150537634408602
2.090909090909091
2.032258064516129
1.981427174975562
1.935483870967742
1.884652981427175
1.83088954056696
1.7771260997067448
1.7233626588465298
1.6686217008797657
1.6138807429130009
1.563049853372434
1.517106549364614
1.478983382209189
1.4506353861192571
1.4320625610948192
1.4213098729227762
1.414467253176931
1.4134897360703813
1.4173998044965788
1.4242424242424243
1.4320625610948192
1.439882697947214
1.4467253176930597
1.4486803519061584
1.4467253176930597
1.4389051808406648
1.4242424242424243
1.409579667644184
1.393939393939394
1.375366568914956
1.3548387096774193
1.3333333333333333
1.310850439882698
1.2873900293255132
1.2619745845552297
1.2336265884652982
1.2013685239491692
1.1700879765395895
1.144672531769306
1.1348973607038124
1.1485826001955035
1.1994134897360704
1.2981427174975562
1.4457478005865103
1.632453567937439
1.8455522971652003
2.0635386119257086
2.2639296187683287
2.4281524926686218
2.547409579667644
2.6207233626588464
2.650048875855328
2.6480938416422286
2.6236559139784945
2.578690127077224
2.5190615835777126
2.4516129032258065
2.3822091886608017
2.312805474095797
2.24633431085044
2.182795698924731
2.121212121212121
2.0635386119257086
2.007820136852395
1.959921798631476
1.9159335288367547
1.866080156402737
1.8142717497556209
1.761485826001955
1.7096774193548387
1.6578690127077225
1.606060606060606
1.5571847507331378
1.512218963831867
1.474095796676442
1.4437927663734116
1.4213098729227762
1.409579667644184
1.4056695992179864
1.4066471163245358
1.4115347018572826
1.418377321603128
1.4252199413489737
1.4301075268817205
1.4330400782013686
1.4320625610948192
1.4271749755620724
1.4193548387096775
1.4066471163245358
1.3949169110459434
1.383186705767351
1.367546432062561
1.3479960899315735
1.327468230694037
1.305962854349951
1.281524926686217
1.2551319648093842
1.2258064516129032
1.1945259042033236
1.1652003910068427
1.144672531769306
1.1397849462365592
1.160312805474096
1.2189638318670577
1.324535679374389
1.478983382209189
1.6744868035190617
1.8934506353861196
2.113391984359726
2.313782991202346
2.47702834799609
2.593352883675464
2.66177908113392
2.6852394916911044
2.677419354838709
2.64613880742913
2.5962854349951123
2.536656891495601
2.472140762463343
2.403714565004888
2.3362658846529816
2.269794721407625
2.204301075268817
2.142717497556207
2.083088954056696
2.0234604105571847
1.970674486803519
1.921798631476051
1.869012707722385
1.8162267839687196
1.761485826001955
1.7067448680351909
1.6529814271749756
1.6011730205278591
1.5542521994134897
1.5141739980449658
1.479960899315738
1.4535679374389052
1.434017595307918
1.4242424242424243
1.4213098729227762
1.4213098729227762
1.426197458455523
1.4330400782013686
1.4408602150537635
1.447702834799609
1.452590420332356
1.452590420332356
1.4486803519061584
1.439882697947214
1.426197458455523
1.4134897360703813
1.401759530791789
1.3861192570869991
1.3665689149560116
1.346041055718475
1.324535679374389
1.3010752688172045
1.2756598240469208
1.2473118279569892
1.2150537634408602
1.1827956989247312
1.1583577712609971
1.152492668621701
1.1700879765395895
1.2189638318670577
1.316715542521994
1.4643206256109482
1.653958944281525
1.870967741935484
2.09188660801564
2.2932551319648096
2.458455522971652
2.578690127077224
2.6510263929618767
2.679374389051808
2.674486803519061
2.64613880742913
2.5992179863147604
2.5386119257087
2.4701857282502444
2.398826979472141
2.326490713587488
2.2551319648093844
2.188660801564027
2.126099706744868
2.0664711632453567
2.0097751710654936
1.9530791788856303
1.902248289345064
1.855327468230694
1.804496578690127
1.7526881720430108
1.7008797653958945
1.6500488758553276
1.6001955034213098
1.552297165200391
1.509286412512219
1.4711632453567938
1.4389051808406648
1.414467253176931
1.4007820136852396
1.396871945259042
1.3978494623655917
1.4027370478983383
1.409579667644184
1.4173998044965788
1.4252199413489737
1.4301075268817205
1.4301075268817205
1.426197458455523
1.418377321603128
1.4066471163245358
1.392961876832845
1.3812316715542523
1.3685239491691104
1.3499511241446724
1.3284457478005864
1.3040078201368523
1.278592375366569
1.2531769305962854
1.2258064516129032
1.195503421309873
1.163245356793744
1.1358748778103618
1.1231671554252198
1.1515151515151516
1.2189638318670577
1.3128054740957966
1.447702834799609
1.6236559139784943
1.8299120234604105
2.047898338220919
2.2561094819159337
2.4359726295210167
2.572825024437928
2.66177908113392
2.704789833822092
2.7096774193548385
2.6901270772238512
2.652003910068426
2.598240469208211
2.5347018572825024
2.4672531769305963
2.39980449657869
2.335288367546432
2.272727272727273
2.2111436950146626
2.1524926686217007
2.0948191593352883
2.037145650048876
1.986314760508309
1.9393939393939397
1.8875855327468232
1.8318670576735088
1.7741935483870968
1.7165200391006843
1.6598240469208212
1.607038123167155
1.5591397849462365
1.5190615835777126
1.487781036168133
1.4652981427174976
1.4516129032258065
1.4467253176930597
1.4486803519061584
1.4545454545454546
1.4613880742913
1.469208211143695
1.47702834799609
1.4819159335288368
1.482893450635386
1.479960899315738
1.474095796676442
1.466275659824047
1.455522971652004
1.4457478005865103
1.434017595307918
1.4164222873900294
1.396871945259042
1.3763440860215057
1.3558162267839686
1.335288367546432
1.3118279569892473
1.2834799608993157
1.2512218963831867
1.2218963831867058
1.2043010752688172
1.2130987292277615
1.24633431085044
1.313782991202346
1.434017595307918
1.6011730205278591
1.8035190615835777
2.0234604105571847
2.2375366568914954
2.423264907135875
2.5669599217986314
2.66177908113392
2.710654936461388
2.719452590420332
2.701857282502444
2.664711632453568
2.611925708699902
2.548387096774193
2.4819159335288368
2.41544477028348
2.3499511241446727
2.2854349951124147
2.220918866080156
2.1593352883675463
2.1006842619745845
2.042033235581622
1.9843597262952104
1.9335288367546437
1.8885630498533723
1.8377321603128052
1.7839687194525904
1.7302052785923754
1.6793743890518085
1.6304985337243405
1.5835777126099706
1.5395894428152492
1.5034213098729228
1.4760508308895406
1.4594330400782014
1.452590420332356
1.455522971652004
1.4633431085043989
1.474095796676442
1.4848484848484849
1.4946236559139785
1.5034213098729228
1.5073313782991202
1.5063538611925709
1.500488758553275
1.4897360703812317
1.4750733137829912
