ppg
0.9628543499511242
0.9696969696969696
0.9765395894428152
0.9833822091886608
0.9912023460410556
1.0
1.0097751710654936
1.021505376344086
1.0332355816226784
1.04594330400782
1.0596285434995112
1.075268817204301
1.0899315738025417
1.1006842619745845
1.1085043988269794
1.1133919843597262
1.1163245356793745
1.1231671554252198
1.13880742913001
1.1700879765395895
1.2209188660801564
1.2932551319648091
1.388074291300098
1.4858260019550342
1.590420332355816
1.7194525904203324
1.8621700879765395
2.0097751710654936
2.158357771260997
2.300097751710655
2.432062561094819
2.5513196480938416
2.656891495601173
2.7468230694037143
2.823069403714565
2.887585532746823
2.9335288367546437
2.9657869012707723
2.9960899315738025
3.022482893450636
3.042033235581622
3.0547409579667644
3.058651026392962
3.053763440860215
3.040078201368524
3.018572825024438
2.989247311827957
2.951124144672532
2.909090909090909
2.863147605083089
2.811339198435973
2.7565982404692084
2.6989247311827955
2.641251221896383
2.58455522971652
2.529814271749756
2.4760508308895406
2.423264907135875
2.372434017595308
2.3225806451612905
2.274682306940372
2.232649071358749
2.1925708699902247
2.1485826001955037
2.102639296187683
2.0547409579667644
2.004887585532747
1.9550342130987293
1.903225806451613
1.8523949169110456
1.801564027370479
1.750733137829912
1.699902248289345
1.6549364613880744
1.6148582600195502
1.5698924731182795
1.5239491691104594
1.478983382209189
1.436950146627566
1.396871945259042
1.3607038123167154
1.327468230694037
1.2981427174975562
1.2727272727272727
1.2502443792766371
1.2316715542521994
1.2209188660801564
1.217008797653959
1.2150537634408602
1.219941348973607
1.2346041055718475
1.2590420332355816
1.2942326490713587
1.3401759530791788
1.396871945259042
1.4643206256109482
1.5405669599217986
1.624633431085044
1.7018572825024438
1.7761485826001957
1.8602150537634408
1.946236559139785
2.03128054740958
2.113391984359726
2.189638318670577
2.257086999022483
2.315738025415445
2.366568914956012
2.410557184750733
2.44672531769306
2.474095796676442
2.4916911045943304
2.501466275659824
2.509286412512219
2.5112414467253177
2.50733137829912
2.4975562072336266
2.479960899315738
2.4545454545454546
2.423264907135875
2.3870967741935485
2.346041055718475
2.303030303030303
2.2629521016617797
2.2248289345063537
2.185728250244379
2.1485826001955037
2.115347018572825
2.0869990224828934
2.0635386119257086
2.042033235581622
2.0205278592375366
2.0009775171065494
1.9833822091886608
1.964809384164223
1.943304007820137
1.9237536656891496
1.9042033235581624
1.8807429130009776
1.855327468230694
1.8269794721407624
1.7976539589442817
1.7673509286412512
1.7350928641251222
1.7018572825024438
1.6686217008797657
1.6344086021505375
1.5992179863147604
1.5698924731182795
1.542521994134897
1.5112414467253177
1.478983382209189
1.444770283479961
1.4115347018572826
1.3792766373411536
1.3479960899315735
1.3186705767350928
1.29227761485826
1.2697947214076246
1.2502443792766371
1.2375366568914956
1.2375366568914956
1.2375366568914956
1.2375366568914956
1.2375366568914956
1.2375366568914956
1.241446725317693
1.2424242424242424
1.249266862170088
1.2619745845552297
1.284457478005865
1.3176930596285434
1.3636363636363635
1.414467253176931
1.4750733137829912
1.5542521994134897
1.64613880742913
1.747800586510264
1.8592375366568916
1.9775171065493649
2.0977517106549364
2.217986314760508
2.334310850439883
2.443792766373412
2.5434995112414467
2.6207233626588464
2.679374389051808
2.7370478983382207
2.787878787878788
2.827956989247312
2.859237536656892
2.8826979472140764
2.8993157380254155
2.909090909090909
2.9100684261974585
2.903225806451613
2.887585532746823
2.863147605083089
2.833822091886608
2.798631476050831
2.758553274682307
2.7145650048875853
2.6666666666666665
2.6158357771261
2.563049853372434
2.509286412512219
2.4574780058651027
2.407624633431085
2.3597262952101663
2.314760508308896
2.2766373411534704
2.242424242424242
2.209188660801564
2.174975562072336
2.1407624633431084
2.10752688172043
2.075268817204301
2.040078201368524
2.002932551319648
1.962854349951124
1.919843597262952
1.8748778103616808
1.828934506353861
1.7898338220918866
1.7517106549364614
1.7086999022482894
1.66177908113392
1.6129032258064515
1.563049853372434
1.5151515151515151
1.469208211143695
1.4242424242424243
1.3812316715542523
1.3411534701857282
1.3020527859237536
1.270772238514174
1.2453567937438903
1.2179863147605083
1.1906158357771262
1.163245356793744
1.1378299120234605
1.115347018572825
1.0948191593352885
1.075268817204301
1.0576735092864125
1.0420332355816226
1.0303030303030305
1.0195503421309873
1.0146627565982405
1.0146627565982405
1.0127077223851415
1.010752688172043
1.007820136852395
1.0048875855327468
1.0019550342130987
1.0
1.0009775171065494
1.002932551319648
1.0058651026392962
1.0087976539589445
1.0146627565982405
1.0224828934506354
1.0283479960899315
1.035190615835777
1.0439882697947214
1.0557184750733135
1.072336265884653
1.0948191593352885
1.126099706744868
1.1700879765395895
1.2267839687194526
1.2991202346041055
1.388074291300098
1.478005865102639
1.5718475073313782
1.6871945259042034
1.8132942326490715
1.9413489736070384
2.065493646138808
2.182795698924731
2.290322580645161
2.386119257086999
2.4711632453567938
2.5464320625610948
2.6129032258064515
2.6608015640273703
2.697947214076246
2.735092864125122
2.768328445747801
2.7966764418377323
2.8181818181818183
2.83088954056696
2.835777126099707
2.832844574780059
2.822091886608016
2.803519061583578
2.777126099706745
2.7438905180840663
2.70772238514174
2.667644183773216
2.622678396871945
2.572825024437928
2.5219941348973607
2.4711632453567938
2.420332355816227
2.3714565004887587
2.3255131964809386
2.283479960899316
2.244379276637341
2.206256109481916
2.1739980449657867
2.1436950146627565
2.1114369501466275
2.078201368523949
2.042033235581622
2.003910068426197
1.962854349951124
1.9188660801564028
1.8729227761485825
1.8269794721407624
1.780058651026393
1.732160312805474
1.6852394916911049
1.64613880742913
1.6129032258064515
1.5757575757575757
1.5395894428152492
1.504398826979472
1.4701857282502444
1.4389051808406648
1.409579667644184
1.383186705767351
1.359726295210166
1.3372434017595307
1.3176930596285434
1.3049853372434017
1.2971652003910068
1.289345063538612
1.284457478005865
1.2825024437927663
1.2834799608993157
1.2873900293255132
1.2932551319648091
1.3010752688172045
1.3088954056695992
1.3186705767350928
1.3304007820136852
1.3450635386119256
1.3616813294232648
1.3792766373411536
1.3998044965786902
1.4222873900293256
1.447702834799609
1.4750733137829912
1.5024437927663734
1.5317693059628543
1.563049853372434
1.5943304007820136
1.6285434995112416
1.6627565982404693
1.694037145650049
1.726295210166178
1.7653958944281525
1.812316715542522
1.866080156402737
1.9296187683284456
2.0009775171065494
2.078201368523949
2.1593352883675463
2.241446725317693
2.32355816226784
2.4027370478983383
2.474095796676442
2.5288367546432062
2.572825024437928
2.6177908113391983
2.656891495601173
2.6911045943304006
2.719452590420332
2.739980449657869
2.755620723362659
2.7673509286412514
2.776148582600196
2.782013685239492
2.7839687194525906
2.7781036168132944
2.766373411534702
2.752688172043011
2.735092864125122
2.7126099706744866
2.6852394916911044
2.6559139784946235
2.6236559139784945
2.587487781036168
2.549364613880743
2.5112414467253177
2.474095796676442
2.4389051808406648
2.4056695992179864
2.3734115347018574
2.3440860215053765
2.315738025415445
2.2883675464320627
2.260019550342131
2.23069403714565
2.20039100684262
2.16911045943304
2.134897360703812
2.0977517106549364
2.058651026392962
2.021505376344086
1.9853372434017595
1.9442815249266865
1.900293255131965
1.8543499511241448
1.8074291300097751
1.7595307917888563
1.710654936461388
1.6686217008797657
1.6314760508308896
1.5894428152492668
1.5464320625610948
1.5102639296187683
1.478983382209189
1.4428152492668622
1.4056695992179864
1.370478983382209
1.33822091886608
1.3098729227761483
1.2864125122189638
1.2697947214076246
1.262952101661779
1.2688172043010753
1.2883675464320623
1.3235581622678396
1.3685239491691104
1.4242424242424243
1.500488758553275
1.5913978494623655
1.6930596285434996
1.801564027370479
1.9120234604105573
2.0205278592375366
2.124144672531769
2.217986314760508
2.3010752688172045
2.3734115347018574
2.426197458455523
2.466275659824047
2.5024437927663734
2.5317693059628543
2.5542521994134897
2.5698924731182795
2.579667644183773
2.581622678396872
2.5747800586510263
2.558162267839687
2.532746823069404
2.4995112414467253
2.4574780058651027
2.4144672531769307
2.3714565004887587
2.32355816226784
2.2737047898338223
2.2248289345063537
2.176930596285435
2.131964809384164
2.089931573802541
2.0518084066471163
2.016617790811339
1.9824046920821117
1.948191593352884
1.9188660801564028
1.8905180840664717
1.857282502443793
1.8201368523949168
1.7790811339198436
1.7350928641251222
1.689149560117302
1.6412512218963833
1.5943304007820136
1.5483870967741935
1.5024437927663734
1.455522971652004
1.4076246334310851
1.3685239491691104
1.3333333333333333
1.29227761485826
1.249266862170088
1.206256109481916
1.164222873900293
1.1241446725317692
1.086021505376344
1.050830889540567
1.018572825024438
0.9882697947214076
0.9618768328445748
0.9452590420332356
0.9325513196480938
0.9178885630498532
0.9051808406647116
0.895405669599218
0.8875855327468231
0.8826979472140762
0.8817204301075269
0.8836754643206256
0.8875855327468231
0.8934506353861192
0.9022482893450636
0.9130009775171064
0.9266862170087976
0.9433040078201368
0.9608993157380256
0.9794721407624634
1.0
1.0195503421309873
1.0410557184750733
1.064516129032258
1.0899315738025417
1.1173020527859236
1.1466275659824048
1.1798631476050832
1.2140762463343109
1.2531769305962854
1.3040078201368523
1.367546432062561
1.4428152492668622
1.5327468230694037
1.6383186705767352
1.7565982404692082
1.884652981427175
2.0175953079178885
2.150537634408602
2.2795698924731185
2.39980449657869
2.496578690127077
2.575757575757576
2.656891495601173
2.732160312805474
2.798631476050831
2.857282502443793
2.90811339198436
2.952101661779081
2.988269794721408
3.0175953079178885
3.040078201368524
3.0557184750733137
3.060606060606061
3.0576735092864125
3.0518084066471163
3.0410557184750733
3.0234604105571847
2.9980449657869013
2.964809384164223
2.924731182795699
2.878787878787879
2.8269794721407626
2.7722385141739982
2.716520039100684
2.659824046920821
2.606060606060606
2.555229716520039
2.5034213098729228
2.452590420332356
2.4027370478983383
2.3548387096774195
2.310850439882698
2.270772238514174
2.231671554252199
2.1915933528836757
2.1524926686217007
2.113391984359726
2.078201368523949
2.0449657869012707
2.007820136852395
1.967741935483871
1.9266862170087975
1.884652981427175
1.8406647116324533
1.7956989247311828
1.750733137829912
1.7057673509286413
1.6608015640273706
1.616813294232649
1.573802541544477
1.5395894428152492
1.5102639296187683
1.47702834799609
1.4457478005865103
1.4164222873900294
1.3890518084066472
1.3655913978494625
1.3450635386119256
1.3294232649071358
1.3176930596285434
1.310850439882698
1.310850439882698
1.3186705767350928
1.335288367546432
1.3636363636363635
1.4056695992179864
1.4643206256109482
1.5395894428152492
1.629521016617791
1.732160312805474
1.842619745845552
1.95405669599218
2.0625610948191597
2.164222873900293
2.254154447702835
2.32355816226784
2.378299120234604
2.4301075268817205
2.4731182795698925
2.504398826979472
2.525904203323558
2.5386119257087
2.5434995112414467
2.5425219941348973
2.535679374389052
2.52297165200391
2.504398826979472
2.4809384164222874
2.4545454545454546
2.4242424242424243
2.388074291300098
2.3489736070381237
2.3069403714565007
2.26197458455523
2.2170087976539588
2.174975562072336
2.134897360703812
2.096774193548387
2.0635386119257086
2.037145650048876
2.0146627565982405
1.992179863147605
1.9687194525904204
1.9442815249266865
1.9188660801564028
1.89247311827957
1.8631476050830889
1.8318670576735088
1.7976539589442817
1.761485826001955
1.7223851417399805
1.6803519061583578
1.6451612903225807
1.6129032258064515
1.576735092864125
1.5395894428152492
1.501466275659824
1.4643206256109482
1.4271749755620724
1.388074291300098
1.3499511241446724
1.3147605083088951
1.281524926686217
1.249266862170088
1.2258064516129032
1.2052785923753666
1.181818181818182
1.1583577712609971
1.1378299120234605
1.1192570869990224
1.1036168132942326
1.0909090909090908
1.0811339198435972
1.0733137829912025
1.0664711632453567
1.0625610948191593
1.0606060606060606
1.0625610948191593
1.067448680351906
1.096774193548387
1.1407624633431086
1.166177908113392
1.181818181818182
1.1925708699902249
1.203323558162268
1.2140762463343109
1.2238514173998043
1.2346041055718475
1.2482893450635386
1.2639296187683284
1.2825024437927663
1.303030303030303
1.3284457478005864
1.359726295210166
1.3988269794721409
1.4496578690127078
1.512218963831867
1.5884652981427174
1.6774193548387095
1.7790811339198436
1.889540566959922
2.005865102639296
2.1094819159335287
2.2052785923753664
2.3118279569892475
2.418377321603128
2.520039100684262
2.6129032258064515
2.6959921798631474
2.768328445747801
2.8289345063538613
2.8797653958944283
2.920821114369501
2.951124144672532
2.967741935483871
2.973607038123167
2.9765395894428157
2.9745845552297165
2.9657869012707723
2.951124144672532
2.930596285434995
2.9042033235581624
2.870967741935484
2.831867057673509
2.787878787878788
2.740957966764418
2.6901270772238512
2.641251221896383
2.5943304007820136
2.544477028347996
2.495601173020528
2.4486803519061584
2.4027370478983383
2.358748778103617
2.314760508308896
2.269794721407625
2.225806451612903
2.182795698924731
2.139784946236559
2.1006842619745845
2.0635386119257086
2.022482893450636
1.978494623655914
1.932551319648094
1.884652981427175
1.833822091886608
1.782991202346041
1.7331378299120237
1.6842619745845553
1.635386119257087
1.5865102639296187
1.5386119257087
1.498533724340176
1.4633431085043989
1.4252199413489737
1.3861192570869991
1.346041055718475
1.3069403714565004
1.270772238514174
1.238514173998045
1.2072336265884651
1.1788856304985338
1.1534701857282503
1.1300097751710656
1.115347018572825
1.1055718475073313
1.0948191593352885
1.0850439882697946
1.075268817204301
1.067448680351906
1.0635386119257086
1.0625610948191593
1.0684261974584557
1.083088954056696
1.1085043988269794
1.147605083088954
1.2023460410557183
1.262952101661779
1.332355816226784
1.4193548387096775
1.5190615835777126
1.6265884652981428
1.737047898338221
1.844574780058651
1.9472140762463344
2.042033235581622
2.1270772238514173
2.2023460410557183
2.2688172043010755
2.318670576735093
2.357771260997068
2.396871945259042
2.432062561094819
2.463343108504399
2.487781036168133
2.506353861192571
2.5180840664711632
2.5219941348973607
2.5180840664711632
2.506353861192571
2.4858260019550342
2.4574780058651027
2.426197458455523
2.391006842619746
2.3499511241446727
2.3059628543499517
2.260997067448681
2.217986314760508
2.1788856304985336
2.1417399804496577
2.10850439882698
2.0772238514174
2.048875855327468
2.021505376344086
1.997067448680352
1.975562072336266
1.9521016617790807
1.9266862170087975
1.900293255131965
1.873900293255132
1.8455522971652003
1.8162267839687196
1.7859237536656891
1.75366568914956
1.7204301075268815
1.6852394916911049
1.6480938416422288
1.6177908113391983
1.590420332355816
1.560117302052786
1.5298142717497556
1.501466275659824
1.474095796676442
1.4486803519061584
1.4252199413489737
1.404692082111437
1.3870967741935485
1.3734115347018572
1.3626588465298142
1.3577712609970674
1.3558162267839686
1.35386119257087
1.3528836754643203
1.35386119257087
1.3577712609970674
1.3626588465298142
1.370478983382209
1.380254154447703
1.3919843597262953
1.404692082111437
1.418377321603128
1.434017595307918
1.4506353861192571
1.469208211143695
1.4887585532746823
1.5073313782991202
1.5249266862170088
1.544477028347996
1.5650048875855327
1.585532746823069
1.606060606060606
1.6265884652981428
1.6471163245356797
1.6686217008797657
1.6881720430107527
1.7096774193548387
1.7350928641251222
1.7653958944281525
1.7986314760508308
1.8347996089931573
1.8758553274682308
1.9237536656891496
1.9794721407624636
2.043010752688172
2.114369501466276
2.1925708699902247
2.2629521016617797
2.3304007820136854
2.406647116324536
2.4858260019550342
2.563049853372434
2.6373411534701856
2.7067448680351904
2.76930596285435
2.8260019550342133
2.874877810361681
2.9159335288367547
2.9501466275659824
2.9775171065493646
2.994134897360704
3.003910068426197
3.0146627565982405
3.022482893450636
3.0254154447702835
3.021505376344086
3.010752688172043
2.992179863147605
2.9657869012707723
2.932551319648094
2.89345063538612
2.849462365591398
2.8044965786901277
2.758553274682307
2.708699902248289
2.6578690127077222
2.6070381231671558
2.558162267839687
2.5131964809384164
2.4701857282502444
2.43108504398827
2.3958944281524928
2.3626588465298144
2.3304007820136854
2.2961876832844577
2.264907135874878
2.2346041055718477
2.20039100684262
2.1622678396871944
2.12316715542522
2.0821114369501466
2.0391006842619745
1.994134897360704
1.946236559139785
1.8973607038123168
1.8484848484848484
1.7996089931573802
1.758553274682307
1.721407624633431
1.6813294232649072
1.640273704789834
1.5992179863147604
1.5581622678396871
1.5190615835777126
1.479960899315738
1.4437927663734116
1.3978494623655917
1.346041055718475
1.3079178885630498
1.2834799608993157
1.2717497556207231
1.270772238514174
1.278592375366569
1.3010752688172045
1.3401759530791788
1.393939393939394
1.4604105571847508
1.5376344086021505
1.6226783968719452
1.7126099706744868
1.804496578690127
1.8944281524926687
1.9687194525904204
2.03128054740958
2.09188660801564
2.145650048875855
2.189638318670577
2.2238514173998043
2.249266862170088
2.2658846529814274
2.274682306940372
2.27761485826002
2.2737047898338223
2.2629521016617797
2.2453567937438903
2.222873900293255
2.196480938416422
2.164222873900293
2.1270772238514173
2.0869990224828934
2.04594330400782
2.004887585532747
1.9657869012707725
1.9286412512218964
1.89247311827957
1.857282502443793
1.8240469208211143
1.796676441837732
1.7712609970674489
1.7429130009775171
1.7126099706744868
1.6813294232649072
1.6480938416422288
1.611925708699902
1.573802541544477
1.5327468230694037
1.4897360703812317
1.444770283479961
1.3978494623655917
1.3509286412512218
1.3118279569892473
1.2776148582600195
1.2394916911045943
1.2003910068426198
1.1612903225806452
1.1241446725317692
1.0899315738025417
1.0557184750733135
1.024437927663734
0.9980449657869012
0.975562072336266
0.9550342130987292
0.9423264907135877
0.9345063538611924
0.9237536656891496
0.9130009775171064
0.9051808406647116
0.9002932551319648
0.8983382209188661
0.8983382209188661
0.9022482893450636
0.9090909090909092
0.9208211143695014
0.935483870967742
0.95405669599218
0.975562072336266
0.9990224828934506
1.024437927663734
1.050830889540567
1.0791788856304985
1.110459433040078
1.1456500488758554
1.1837732160312806
1.2258064516129032
1.270772238514174
1.3176930596285434
1.3665689149560116
1.409579667644184
1.4486803519061584
1.487781036168133
1.5239491691104594
1.5581622678396871
1.5894428152492668
1.6207233626588464
1.6559139784946235
1.6979472140762464
1.747800586510264
1.8074291300097751
1.878787878787879
1.9608993157380252
2.037145650048876
2.110459433040078
2.1955034213098727
2.2825024437927666
2.36950146627566
2.4516129032258065
2.527859237536657
2.5972629521016617
2.6608015640273703
2.717497556207233
2.7673509286412514
2.809384164222874
2.8377321603128056
2.857282502443793
2.875855327468231
2.8914956011730206
2.9012707722385143
2.9042033235581624
2.8993157380254155
2.8856304985337244
2.8641251221896384
2.834799608993157
2.7996089931573804
2.758553274682307
2.716520039100684
2.674486803519061
2.6285434995112413
2.581622678396872
2.533724340175953
2.487781036168133
2.443792766373412
2.401759530791789
2.361681329423265
2.324535679374389
2.291300097751711
2.259042033235582
2.228739002932551
2.203323558162268
2.1788856304985336
2.1524926686217007
2.124144672531769
2.0928641251221896
2.058651026392962
2.021505376344086
1.9833822091886608
1.9442815249266865
1.905180840664712
1.868035190615836
1.8318670576735088
1.7996089931573802
1.7702834799608993
1.7380254154447703
1.7038123167155426
1.6705767350928642
1.6383186705767352
1.607038123167155
1.5786901270772238
1.552297165200391
1.5278592375366569
1.504398826979472
1.482893450635386
1.4682306940371457
1.4613880742913
1.4633431085043989
1.4760508308895406
1.5024437927663734
1.5454545454545454
1.6041055718475072
1.678396871945259
1.7644183773216031
1.857282502443793
1.95405669599218
2.048875855327468
2.136852394916911
2.206256109481916
2.2629521016617797
2.317693059628544
2.363636363636364
2.40078201368524
2.426197458455523
2.441837732160313
2.44672531769306
2.443792766373412
2.4330400782013686
2.4164222873900294
2.3958944281524928
2.3704789833822093
2.3440860215053765
2.315738025415445
2.2825024437927666
2.24633431085044
2.207233626588465
2.167155425219941
2.1270772238514173
2.089931573802541
2.053763440860215
2.0205278592375366
1.992179863147605
1.9687194525904204
1.9501466275659824
1.9345063538611929
1.9178885630498532
1.900293255131965
1.881720430107527
1.86119257086999
1.8387096774193548
1.8142717497556209
1.7869012707722385
1.7565982404692082
1.7243401759530792
1.6901270772238517
1.653958944281525
1.6217008797653958
1.5923753665689149
1.5591397849462365
1.52297165200391
1.4858260019550342
1.4486803519061584
1.4115347018572826
1.3763440860215057
1.3411534701857282
1.3079178885630498
1.2766373411534702
1.24633431085044
1.2238514173998043
1.2052785923753666
1.1827956989247312
1.160312805474096
1.1397849462365592
1.1202346041055715
1.1026392961876832
1.0879765395894427
1.0772238514173995
1.0694037145650048
1.064516129032258
1.0625610948191593
1.0635386119257086
1.0684261974584557
1.0762463343108504
1.083088954056696
1.0918866080156402
1.1026392961876832
1.1143695014662756
1.1290322580645162
1.144672531769306
1.1622678396871946
1.181818181818182
1.203323558162268
1.227761485826002
1.2512218963831867
1.2756598240469208
1.303030303030303
1.3577712609970674
1.426197458455523
1.478005865102639
1.521994134897361
1.5650048875855327
1.6109481915933528
1.6608015640273706
1.7165200391006843
1.7820136852394917
1.857282502443793
1.927663734115347
1.9990224828934504
2.085043988269794
2.179863147605083
2.2795698924731185
2.380254154447703
2.47702834799609
2.56891495601173
2.653958944281525
2.729227761485826
2.7966764418377323
2.8563049853372435
2.8993157380254155
2.9315738025415445
2.9657869012707723
2.9980449657869013
3.027370478983382
3.0547409579667644
3.078201368523949
3.0977517106549364
3.1114369501466275
3.120234604105572
3.121212121212121
3.113391984359726
3.096774193548387
3.071358748778104
3.038123167155425
2.9980449657869013
2.949169110459433
2.89345063538612
2.832844574780059
2.76930596285435
2.7067448680351904
2.64613880742913
2.589442815249267
2.5347018572825024
2.4819159335288368
2.4359726295210167
2.3949169110459434
2.350928641251222
2.3059628543499517
2.26197458455523
2.217986314760508
2.1739980449657867
2.129032258064516
2.0821114369501466
2.0332355816226784
1.9833822091886608
1.932551319648094
1.8797653958944285
1.833822091886608
1.7898338220918866
1.739980449657869
1.6871945259042034
