ppg
1.2160312805474096
1.2052785923753666
1.1945259042033236
1.181818181818182
1.1652003910068427
1.1436950146627567
1.1173020527859236
1.0840664711632453
1.050830889540567
1.0283479960899315
1.0263929618768328
1.0606060606060606
1.1436950146627567
1.2541544477028348
1.3978494623655917
1.595307917888563
1.825024437927664
2.0635386119257086
2.289345063538612
2.4838709677419355
2.635386119257087
2.7390029325513194
2.798631476050831
2.817204301075269
2.8044965786901277
2.768328445747801
2.720430107526881
2.6637341153470184
2.5943304007820136
2.517106549364614
2.436950146627566
2.357771260997068
2.283479960899316
2.2130987292277613
2.144672531769306
2.078201368523949
2.0146627565982405
1.95405669599218
1.905180840664712
1.8621700879765395
1.81524926686217
1.7653958944281525
1.7145650048875856
1.6627565982404693
1.6129032258064515
1.564027370478983
1.517106549364614
1.4750733137829912
1.4408602150537635
1.4173998044965788
1.4056695992179864
1.404692082111437
1.4115347018572826
1.4242424242424243
1.4418377321603129
1.4594330400782014
1.47702834799609
1.4916911045943304
1.5024437927663734
1.509286412512219
1.5102639296187683
1.5053763440860215
1.498533724340176
1.4926686217008798
1.4848484848484849
1.4731182795698925
1.4604105571847508
1.447702834799609
1.4349951124144673
1.4222873900293256
1.4086021505376345
1.3949169110459434
1.380254154447703
1.3636363636363635
1.3421309872922775
1.3157380254154447
1.2903225806451613
1.2668621700879763
1.2443792766373412
1.2394916911045943
1.267839687194526
1.3421309872922775
1.469208211143695
1.64613880742913
1.8631476050830889
2.102639296187683
2.3440860215053765
2.5669599217986314
2.736070381231672
2.8582600195503423
2.956011730205278
3.0175953079178885
3.0449657869012707
3.043010752688172
3.016617790811339
2.9716520039100685
2.9149560117302054
2.852394916911046
2.787878787878788
2.7223851417399803
2.6578690127077222
2.5992179863147604
2.5454545454545454
2.490713587487781
2.4349951124144678
2.378299120234604
2.3225806451612905
2.267839687194526
2.212121212121212
2.156402737047898
2.1006842619745845
2.046920821114369
1.9931573802541545
1.945259042033236
1.9012707722385145
1.8543499511241448
1.8084066471163245
1.7683284457478006
1.7360703812316716
1.7126099706744868
1.6989247311827955
1.6959921798631477
1.7008797653958945
1.7135874877810362
1.7302052785923754
1.7458455522971652
1.758553274682307
1.7683284457478006
1.7761485826001957
1.780058651026393
1.780058651026393
1.7771260997067448
1.7712609970674489
1.7624633431085044
1.750733137829912
1.7380254154447703
1.7243401759530792
1.7096774193548387
1.6950146627565983
1.6793743890518085
1.6598240469208212
1.6373411534701858
1.611925708699902
1.5826001955034212
1.5464320625610948
1.5063538611925709
1.466275659824047
1.4349951124144673
1.4301075268817205
1.4682306940371457
1.5591397849462365
1.675464320625611
1.8211143695014664
2.021505376344086
2.2521994134897363
2.4858260019550342
2.7008797653958942
2.8807429130009776
3.016617790811339
3.10752688172043
3.156402737047898
3.16911045943304
3.1515151515151514
3.115347018572825
3.047898338220919
2.9775171065493646
2.9227761485826003
2.8533724340175954
2.779081133919844
2.704789833822092
2.632453567937439
2.5620723362658846
2.496578690127077
2.4349951124144678
2.377321603128055
2.3196480938416424
2.2658846529814274
2.2160312805474094
2.160312805474096
2.099706744868035
2.035190615835777
1.9667644183773216
1.8983382209188664
1.8328445747800584
1.772238514173998
1.7194525904203324
1.6764418377321604
1.643206256109482
1.6217008797653958
1.6109481915933528
1.606060606060606
1.6041055718475072
1.606060606060606
1.608993157380254
1.6129032258064515
1.6148582600195502
1.6129032258064515
1.6099706744868034
1.606060606060606
1.6011730205278591
1.5923753665689149
1.5835777126099706
1.5728250244379276
1.5581622678396871
1.541544477028348
1.5239491691104594
1.504398826979472
1.4838709677419355
1.4652981427174976
1.4467253176930597
1.4252199413489737
1.4027370478983383
1.3763440860215057
1.3499511241446724
1.3235581622678396
1.29227761485826
1.2619745845552297
1.2394916911045943
1.241446725317693
1.289345063538612
1.3900293255131966
1.541544477028348
1.7350928641251222
1.9560117302052784
2.1808406647116323
2.366568914956012
2.5161290322580645
2.652003910068426
2.757575757575758
2.8269794721407626
2.860215053763441
2.86217008797654
2.8377321603128056
2.792766373411535
2.7331378299120237
2.6637341153470184
2.5884652981427174
2.5083088954056696
2.4349951124144678
2.366568914956012
2.2961876832844577
2.2277614858260018
2.1622678396871944
2.099706744868035
2.037145650048876
1.9745845552297163
1.9120234604105573
1.8504398826979471
1.7888563049853372
1.7272727272727273
1.6735092864125125
1.6226783968719452
1.5669599217986314
1.509286412512219
1.456500488758553
1.4105571847507332
1.3734115347018572
1.3479960899315735
1.3333333333333333
1.327468230694037
1.3294232649071358
1.3372434017595307
1.3479960899315735
1.359726295210166
1.3714565004887584
1.383186705767351
1.3919843597262953
1.396871945259042
1.3958944281524928
1.3900293255131966
1.380254154447703
1.3695014662756595
1.3577712609970674
1.3450635386119256
1.332355816226784
1.3225806451612905
1.313782991202346
1.300097751710655
1.2825024437927663
1.260019550342131
1.2326490713587488
1.2003910068426198
1.1612903225806452
1.1202346041055715
1.083088954056696
1.056695992179863
1.056695992179863
1.0948191593352885
1.1612903225806452
1.2639296187683284
1.423264907135875
1.6285434995112416
1.919843597262952
2.188660801564027
2.36950146627566
2.541544477028348
2.6832844574780057
2.78494623655914
2.8455522971652005
2.8690127077223853
2.863147605083089
2.8367546432062563
2.793743890518084
2.73802541544477
2.673509286412512
2.603128054740958
2.529814271749756
2.453567937438905
2.375366568914956
2.2991202346041058
2.2248289345063537
2.1524926686217007
2.0821114369501466
2.0195503421309877
1.964809384164223
1.9071358748778104
1.847507331378299
1.7878787878787878
1.729227761485826
1.6715542521994136
1.6148582600195502
1.5620723362658846
1.5131964809384164
1.4701857282502444
1.435972629521017
1.4134897360703813
1.4007820136852396
1.393939393939394
1.392961876832845
1.3978494623655917
1.4066471163245358
1.4203323558162269
1.434017595307918
1.4467253176930597
1.457478005865103
1.4643206256109482
1.466275659824047
1.4623655913978495
1.457478005865103
1.4496578690127078
1.436950146627566
1.423264907135875
1.4086021505376345
1.3919843597262953
1.3734115347018572
1.3528836754643203
1.332355816226784
1.310850439882698
1.2903225806451613
1.2697947214076246
1.2502443792766371
1.2287390029325511
1.1994134897360704
1.1681329423264908
1.1466275659824048
1.1466275659824048
1.1827956989247312
1.267839687194526
1.4086021505376345
1.598240469208211
1.8240469208211143
2.065493646138808
2.3010752688172045
2.489736070381232
2.635386119257087
2.7624633431085046
2.857282502443793
2.9149560117302054
2.9257086999022484
2.9120234604105573
2.889540566959922
2.843597262952102
2.782991202346041
2.7126099706744866
2.638318670576735
2.56891495601173
2.504398826979472
2.4379276637341154
2.372434017595308
2.3088954056695994
2.24633431085044
2.1867057673509285
2.1280547409579667
2.0557184750733137
1.9902248289345064
1.943304007820137
1.8905180840664717
1.825024437927664
1.7702834799608993
1.729227761485826
1.6803519061583578
1.624633431085044
1.5786901270772238
1.5503421309872922
1.5278592375366569
1.5161290322580645
1.5112414467253177
1.5131964809384164
1.52297165200391
1.533724340175953
1.544477028347996
1.555229716520039
1.5650048875855327
1.5728250244379276
1.5777126099706744
1.5796676441837731
1.5757575757575757
1.5708699902248289
1.5610948191593352
1.544477028347996
1.5278592375366569
1.5102639296187683
1.495601173020528
1.478983382209189
1.458455522971652
1.435972629521017
1.414467253176931
1.391006842619746
1.3626588465298142
1.3304007820136852
1.2971652003910068
1.267839687194526
1.2512218963831867
1.260019550342131
1.29227761485826
1.3587487781036167
1.4760508308895406
1.6412512218963833
1.8455522971652003
2.069403714565005
2.294232649071359
2.498533724340176
2.668621700879765
2.7966764418377323
2.8807429130009776
2.9237536656891496
2.930596285434995
2.911045943304008
2.873900293255132
2.8211143695014664
2.755620723362659
2.681329423264907
2.601173020527859
2.5190615835777126
2.4389051808406648
2.3597262952101663
2.2844574780058653
2.212121212121212
2.142717497556207
2.083088954056696
2.027370478983382
1.9667644183773216
1.9042033235581624
1.839687194525904
1.7732160312805474
1.7067448680351909
1.6422287390029326
1.5806451612903225
1.5239491691104594
1.4731182795698925
1.4320625610948192
1.4037145650048877
1.3851417399804498
1.3724340175953078
1.3695014662756595
1.375366568914956
1.3870967741935485
1.401759530791789
1.4164222873900294
1.4291300097751711
1.4389051808406648
1.444770283479961
1.4408602150537635
1.4301075268817205
1.4222873900293256
1.41544477028348
1.404692082111437
1.392961876832845
1.380254154447703
1.3665689149560116
1.3509286412512218
1.3333333333333333
1.313782991202346
1.29227761485826
1.2717497556207231
1.2502443792766371
1.23069403714565
1.209188660801564
1.176930596285435
1.1407624633431086
1.1055718475073313
1.0811339198435972
1.0821114369501466
1.1231671554252198
1.2111436950146628
1.3509286412512218
1.5366568914956011
1.75366568914956
1.9833822091886608
2.179863147605083
2.346041055718475
2.5034213098729228
2.6295210166177907
2.7155425219941347
2.763440860215054
2.7751710654936463
2.758553274682307
2.718475073313783
2.662756598240469
2.5962854349951123
2.5219941348973607
2.450635386119257
2.3822091886608017
2.3088954056695994
2.236559139784946
2.166177908113392
2.0987292277614857
2.034213098729228
1.9716520039100685
1.911045943304008
1.8494623655913975
1.7878787878787878
1.726295210166178
1.6637341153470186
1.608993157380254
1.5581622678396871
1.5024437927663734
1.4486803519061584
1.3998044965786902
1.3587487781036167
1.327468230694037
1.3049853372434017
1.2903225806451613
1.2834799608993157
1.284457478005865
1.2913000977517106
1.3010752688172045
1.3128054740957966
1.3235581622678396
1.332355816226784
1.3391984359726294
1.3450635386119256
1.3479960899315735
1.3470185728250244
1.3440860215053765
1.3391984359726294
1.3313782991202343
1.321603128054741
1.3079178885630498
1.2942326490713587
1.2795698924731185
1.2590420332355816
1.2355816226783969
1.2101661779081134
1.18475073313783
1.1573802541544478
1.1270772238514175
1.0928641251221896
1.0576735092864125
1.0283479960899315
1.0205278592375366
1.0381231671554252
1.088954056695992
1.1886608015640274
1.3411534701857282
1.5386119257087
1.7634408602150538
1.9960899315738023
2.2160312805474094
2.4056695992179864
2.555229716520039
2.66177908113392
2.7233626588465296
2.7468230694037143
2.740957966764418
2.713587487781036
2.668621700879765
2.610948191593353
2.544477028347996
2.474095796676442
2.401759530791789
2.326490713587488
2.2521994134897363
2.1818181818181817
2.112414467253177
2.0449657869012707
1.9872922776148585
1.9345063538611929
1.87683284457478
1.8172043010752688
1.7565982404692082
1.696969696969697
1.6373411534701858
1.5777126099706744
1.520039100684262
1.466275659824047
1.4173998044965788
1.375366568914956
1.3411534701857282
1.3186705767350928
1.305962854349951
1.300097751710655
1.300097751710655
1.305962854349951
1.3147605083088951
1.3264907135874875
1.33822091886608
1.3499511241446724
1.3587487781036167
1.3655913978494625
1.3695014662756595
1.3714565004887584
1.3724340175953078
1.370478983382209
1.3655913978494625
1.3577712609970674
1.3450635386119256
1.3304007820136852
1.313782991202346
1.295210166177908
1.2756598240469208
1.2570869990224829
1.238514173998045
1.219941348973607
1.203323558162268
1.1857282502443791
1.1593352883675463
1.1300097751710656
1.110459433040078
1.115347018572825
1.1583577712609971
1.2512218963831867
1.3988269794721409
1.595307917888563
1.825024437927664
2.0684261974584555
2.2737047898338223
2.443792766373412
2.6021505376344085
2.729227761485826
2.8152492668621703
2.8611925708699903
2.8729227761485827
2.857282502443793
2.8211143695014664
2.7702834799608995
2.7096774193548385
2.641251221896383
2.5698924731182795
2.505376344086021
2.443792766373412
2.378299120234604
2.314760508308896
2.2531769305962857
2.193548387096774
2.134897360703812
2.0772238514174
2.0195503421309877
1.962854349951124
1.905180840664712
1.8494623655913975
1.8005865102639296
1.7526881720430108
1.7008797653958945
1.651026392961877
1.6021505376344083
1.5581622678396871
1.52297165200391
1.4975562072336266
1.4838709677419355
1.4809384164222874
1.487781036168133
1.499511241446725
1.512218963831867
1.5239491691104594
1.5356793743890518
1.544477028347996
1.5493646138807429
1.5493646138807429
1.5454545454545454
1.5386119257087
1.5288367546432062
1.5161290322580645
1.500488758553275
1.4838709677419355
1.4672531769305963
1.452590420332356
1.439882697947214
1.4252199413489737
1.409579667644184
1.3949169110459434
1.3773216031280548
1.3548387096774193
1.3255131964809383
1.2883675464320623
1.2473118279569892
1.209188660801564
1.1886608015640274
1.1925708699902249
1.23069403714565
1.3186705767350928
1.4604105571847508
1.651026392961877
1.8758553274682308
2.115347018572825
2.345063538611926
2.5464320625610948
2.705767350928641
2.817204301075269
2.881720430107527
2.905180840664712
2.8993157380254155
2.870967741935484
2.8240469208211145
2.7624633431085046
2.69208211143695
2.616813294232649
2.5386119257087
2.458455522971652
2.380254154447703
2.3059628543499517
2.2355816226783967
2.1681329423264906
2.110459433040078
2.0576735092864125
2.0009775171065494
1.9442815249266865
1.8856304985337244
1.8318670576735088
1.7790811339198436
1.721407624633431
1.6627565982404693
1.6050830889540566
1.5503421309872922
1.500488758553275
1.458455522971652
1.4291300097751711
1.4105571847507332
1.396871945259042
1.3900293255131966
1.3900293255131966
1.393939393939394
1.4007820136852396
1.4086021505376345
1.4173998044965788
1.4242424242424243
1.426197458455523
1.423264907135875
1.4203323558162269
1.41544477028348
1.404692082111437
1.3890518084066472
1.3695014662756595
1.348973607038123
1.3264907135874875
1.3020527859237536
1.2805474095796676
1.260019550342131
1.2394916911045943
1.217008797653959
1.1925708699902249
1.1710654936461389
1.147605083088954
1.1163245356793745
1.0811339198435972
1.0498533724340176
1.0342130987292275
1.050830889540567
1.1163245356793745
1.2355816226783969
1.4066471163245358
1.6187683284457477
1.8533724340175952
2.06158357771261
2.241446725317693
2.4164222873900294
2.5620723362658846
2.668621700879765
2.7341153470185726
2.7614858260019552
2.7546432062561097
2.7233626588465296
2.673509286412512
2.608993157380254
2.535679374389052
2.4565004887585533
2.3841642228739004
2.3167155425219943
2.244379276637341
2.1710654936461387
2.0987292277614857
2.029325513196481
1.9657869012707725
1.905180840664712
1.847507331378299
1.790811339198436
1.7331378299120237
1.675464320625611
1.6236559139784943
1.573802541544477
1.5180840664711632
1.4604105571847508
1.4066471163245358
1.359726295210166
1.321603128054741
1.2942326490713587
1.2776148582600195
1.2688172043010753
1.2668621700879763
1.267839687194526
1.273704789833822
1.2834799608993157
1.2932551319648091
1.3020527859237536
1.3079178885630498
1.313782991202346
1.316715542521994
1.313782991202346
1.3040078201368523
1.289345063538612
1.2717497556207231
1.252199413489736
1.2316715542521994
1.2160312805474096
1.2013685239491692
1.1827956989247312
1.1622678396871946
1.13880742913001
1.115347018572825
1.0869990224828934
1.053763440860215
1.0166177908113392
0.9794721407624634
0.9472140762463344
0.9296187683284456
0.9403714565004888
0.978494623655914
1.053763440860215
1.1827956989247312
1.3616813294232648
1.576735092864125
1.8054740957966764
2.0283479960899315
2.2267839687194524
2.3870967741935485
2.5024437927663734
2.573802541544477
2.606060606060606
2.6070381231671558
2.5855327468230693
2.544477028347996
2.4916911045943304
2.4301075268817205
2.363636363636364
2.294232649071359
2.222873900293255
2.15347018572825
2.0869990224828934
2.0234604105571847
1.962854349951124
1.905180840664712
1.857282502443793
1.812316715542522
1.7634408602150538
1.7126099706744868
1.6608015640273706
1.606060606060606
1.552297165200391
1.4975562072336266
1.444770283479961
1.3958944281524928
1.3519061583577712
1.313782991202346
1.2883675464320623
1.273704789833822
1.2649071358748778
1.262952101661779
1.2649071358748778
1.2717497556207231
1.2825024437927663
1.2932551319648091
1.3020527859237536
1.3079178885630498
1.313782991202346
1.3186705767350928
1.3225806451612905
1.3255131964809383
1.3264907135874875
1.3225806451612905
1.3128054740957966
1.2981427174975562
1.2805474095796676
1.2639296187683284
1.2482893450635386
1.2346041055718475
1.2209188660801564
1.2052785923753666
1.1886608015640274
1.1749755620723363
1.1573802541544478
1.1319648093841643
1.104594330400782
1.0821114369501466
1.0762463343108504
1.1006842619745845
1.1671554252199414
1.2834799608993157
1.447702834799609
1.6480938416422288
1.868035190615836
2.06158357771261
2.228739002932551
2.3900293255131966
2.5239491691104594
2.6207233626588464
2.678396871945259
2.699902248289345
2.6911045943304006
2.659824046920821
2.6129032258064515
2.555229716520039
2.49266862170088
2.4281524926686218
2.3704789833822093
2.3167155425219943
2.260019550342131
2.2052785923753664
2.15347018572825
2.1055718475073317
2.056695992179863
2.006842619745845
1.9589442815249267
1.9090909090909087
1.8563049853372435
1.8035190615835777
1.7565982404692082
1.7135874877810362
1.667644183773216
1.6226783968719452
1.5806451612903225
1.543499511241447
1.5141739980449658
1.4916911045943304
1.474095796676442
1.4633431085043989
1.4594330400782014
1.4604105571847508
1.4652981427174976
1.4721407624633431
1.479960899315738
1.487781036168133
1.4926686217008798
1.495601173020528
1.4946236559139785
1.4897360703812317
1.4809384164222874
1.469208211143695
1.4545454545454546
1.4379276637341154
1.4213098729227762
1.409579667644184
1.3978494623655917
1.3812316715542523
1.3616813294232648
1.3401759530791788
1.3186705767350928
1.295210166177908
1.267839687194526
1.2336265884652982
1.1945259042033236
1.1564027370478984
1.1319648093841643
1.1329423264907137
1.1593352883675463
1.219941348973607
1.332355816226784
1.4936461388074291
1.689149560117302
1.902248289345064
2.1114369501466275
2.2961876832844577
2.444770283479961
2.549364613880743
2.610948191593353
2.6823069403714563
2.748778103616813
2.758553274682307
2.732160312805474
2.681329423264907
2.6158357771261
2.5425219941348973
2.4672531769305963
2.3919843597262958
2.320625610948192
2.2561094819159337
2.196480938416422
2.139784946236559
2.083088954056696
2.032258064516129
1.9853372434017595
1.9335288367546437
1.8797653958944285
1.826001955034213
1.76930596285435
1.7116324535679377
1.653958944281525
1.5972629521016617
1.5454545454545454
1.499511241446725
1.4604105571847508
1.434017595307918
1.4173998044965788
1.4056695992179864
1.3988269794721409
1.3958944281524928
1.396871945259042
1.3998044965786902
1.4037145650048877
1.4076246334310851
1.409579667644184
1.4086021505376345
1.4056695992179864
1.3998044965786902
1.392961876832845
1.3870967741935485
1.3773216031280548
1.3626588465298142
1.346041055718475
1.3284457478005864
1.3098729227761483
1.2913000977517106
1.2717497556207231
1.2541544477028348
1.2365591397849462
1.2160312805474096
1.1974584555229717
1.176930596285435
1.1466275659824048
1.1114369501466277
1.078201368523949
1.0586510263929618
1.0625610948191593
1.1036168132942326
1.1945259042033236
1.33822091886608
1.525904203323558
1.7448680351906158
1.9736070381231672
2.167155425219941
2.3255131964809386
2.4701857282502444
2.581622678396872
2.6529814271749754
2.686217008797654
2.6881720430107525
2.665689149560117
2.6236559139784945
2.567937438905181
2.504398826979472
2.436950146627566
2.3734115347018574
2.3118279569892475
2.24633431085044
2.1818181818181817
2.1192570869990224
2.060606060606061
2.006842619745845
1.9550342130987293
1.902248289345064
1.8504398826979471
1.7986314760508308
1.7468230694037146
1.6950146627565983
1.6490713587487782
1.606060606060606
1.5591397849462365
1.5141739980449658
1.4701857282502444
1.4301075268817205
1.3998044965786902
1.380254154447703
1.370478983382209
1.3685239491691104
1.3724340175953078
1.3792766373411536
1.3870967741935485
1.3949169110459434
1.4007820136852396
1.4056695992179864
1.4066471163245358
1.404692082111437
1.3998044965786902
1.3919843597262953
1.3822091886608017
1.3695014662756595
1.35386119257087
1.3362658846529814
1.316715542521994
1.3010752688172045
1.2883675464320623
1.2727272727272727
1.2551319648093842
1.238514173998045
1.2209188660801564
1.1994134897360704
1.1749755620723363
1.144672531769306
1.1143695014662756
1.0918866080156402
1.086021505376344
1.1016617790811338
1.147605083088954
1.2404692082111437
1.3870967741935485
1.5806451612903225
1.804496578690127
2.040078201368524
2.2668621700879767
2.464320625610948
2.621700879765396
2.7341153470185726
2.80058651026393
2.827956989247312
2.825024437927664
2.798631476050831
2.7546432062561097
2.696969696969697
2.6295210166177907
2.560117302052786
2.49266862170088
2.426197458455523
2.361681329423265
2.300097751710655
2.241446725317693
2.188660801564027
2.144672531769306
2.103616813294233
2.058651026392962
2.0127077223851417
1.9657869012707725
1.9178885630498532
1.8670576735092863
1.8162267839687196
1.7644183773216031
1.715542521994135
1.672531769305963
1.6344086021505375
1.606060606060606
1.58455522971652
1.5679374389051808
1.5581622678396871
1.555229716520039
1.5591397849462365
1.565982404692082
1.573802541544477
1.5826001955034212
1.5913978494623655
1.5992179863147604
1.6050830889540566
1.6080156402737047
1.608993157380254
1.607038123167155
1.6011730205278591
1.5933528836754642
1.5835777126099706
1.5708699902248289
1.555229716520039
1.5386119257087
1.52297165200391
1.5083088954056696
1.4936461388074291
1.478005865102639
1.4643206256109482
1.4486803519061584
1.426197458455523
1.3988269794721409
1.3724340175953078
1.3519061583577712
1.3499511241446724
1.3822091886608017
1.4633431085043989
1.5972629521016617
1.782991202346041
2.0097751710654936
2.2551319648093844
2.4682306940371457
2.650048875855328
2.8269794721407626
2.9745845552297165
3.080156402737048
3.1436950146627565
3.1700879765395893
3.164222873900293
3.133919843597263
3.085043988269794
3.0254154447702835
2.959921798631476
2.897360703812317
2.8367546432062563
2.774193548387097
2.713587487781036
2.6559139784946235
2.6021505376344085
2.5532746823069403
2.5102639296187683
2.472140762463343
2.439882697947214
2.4115347018572826
2.386119257086999
2.360703812316716
2.3362658846529816
2.3098729227761488
2.281524926686217
2.2531769305962857
2.2218963831867056
2.189638318670577
2.1593352883675463
2.1309872922776147
2.1055718475073317
2.085043988269794
2.069403714565005
2.059628543499511
2.0527859237536656
2.046920821114369
2.0410557184750733
2.0361681329423265
2.0303030303030303
2.021505376344086
2.0087976539589443
1.992179863147605
1.9726295210166176
1.9472140762463344
1.9159335288367547
1.881720430107527
1.8465298142717497
1.8172043010752688
1.790811339198436
1.761485826001955
1.7272727272727273
1.6901270772238517
1.6314760508308896
1.5610948191593352
1.504398826979472
1.4516129032258065
1.3978494623655917
1.3470185728250244
1.3088954056695992
1.2932551319648091
1.3088954056695992
1.3685239491691104
