ppg
2.49266862170088
2.4565004887585533
2.421309872922776
2.383186705767351
2.340175953079179
2.2961876832844577
2.251221896383187
2.209188660801564
2.1710654936461387
2.1358748778103616
2.101661779081134
2.0684261974584555
2.037145650048876
2.006842619745845
1.9775171065493649
1.951124144672532
1.927663734115347
1.903225806451613
1.878787878787879
1.8523949169110456
1.8240469208211143
1.7947214076246334
1.7673509286412512
1.7409579667644184
1.715542521994135
1.6911045943304008
1.667644183773216
1.6500488758553276
1.6344086021505375
1.6177908113391983
1.5992179863147604
1.5786901270772238
1.5581622678396871
1.5366568914956011
1.5151515151515151
1.4946236559139785
1.4731182795698925
1.4535679374389052
1.4349951124144673
1.4173998044965788
1.404692082111437
1.3958944281524928
1.3861192570869991
1.375366568914956
1.3626588465298142
1.3499511241446724
1.3372434017595307
1.3225806451612905
1.3069403714565004
1.2913000977517106
1.2756598240469208
1.2619745845552297
1.2531769305962854
1.24633431085044
1.2365591397849462
1.2258064516129032
1.2140762463343109
1.2013685239491692
1.1896383186705768
1.176930596285435
1.1671554252199414
1.163245356793744
1.1700879765395895
1.1945259042033236
1.238514173998045
1.2942326490713587
1.364613880742913
1.4604105571847508
1.5757575757575757
1.7057673509286413
1.842619745845552
1.9794721407624636
2.1114369501466275
2.2355816226783967
2.3519061583577714
2.4594330400782014
2.5562072336265884
2.63049853372434
2.6911045943304006
2.7546432062561097
2.8152492668621703
2.870967741935484
2.919843597262952
2.962854349951124
2.99902248289345
3.027370478983382
3.047898338220919
3.059628543499511
3.0625610948191597
3.0547409579667644
3.0361681329423265
3.0087976539589443
2.9745845552297165
2.9335288367546437
2.886608015640274
2.834799608993157
2.776148582600196
2.713587487781036
2.650048875855328
2.587487781036168
2.527859237536657
2.472140762463343
2.4242424242424243
2.3792766373411536
2.332355816226784
2.2873900293255134
2.242424242424242
2.198435972629521
2.155425219941349
2.1221896383186705
2.096774193548387
2.0684261974584555
2.0391006842619745
2.0087976539589443
1.9775171065493649
1.9501466275659824
1.9257086999022484
1.8983382209188664
1.8699902248289344
1.8406647116324533
1.8093841642228736
1.7771260997067448
1.747800586510264
1.718475073313783
1.6901270772238517
1.6627565982404693
1.6363636363636365
1.6158357771260996
1.5972629521016617
1.576735092864125
1.5571847507331378
1.5356793743890518
1.5151515151515151
1.495601173020528
1.4750733137829912
1.4545454545454546
1.4349951124144673
1.41544477028348
1.396871945259042
1.380254154447703
1.3685239491691104
1.3607038123167154
1.3509286412512218
1.3401759530791788
1.3294232649071358
1.3186705767350928
1.3079178885630498
1.2942326490713587
1.2795698924731185
1.2649071358748778
1.252199413489736
1.2424242424242424
1.2394916911045943
1.2443792766373412
1.2590420332355816
1.2883675464320623
1.3362658846529814
1.4027370478983383
1.4897360703812317
1.5913978494623655
1.7038123167155426
1.822091886608016
1.9413489736070384
2.0557184750733137
2.1622678396871944
2.2482893450635384
2.3196480938416424
2.393939393939394
2.4652981427174976
2.5317693059628543
2.592375366568915
2.6471163245356792
2.6959921798631474
2.73802541544477
2.7722385141739982
2.798631476050831
2.819159335288368
2.8289345063538613
2.8299120234604107
2.8269794721407626
2.817204301075269
2.798631476050831
2.773216031280548
2.739980449657869
2.6989247311827955
2.6510263929618767
2.5992179863147604
2.5454545454545454
2.489736070381232
2.432062561094819
2.380254154447703
2.332355816226784
2.283479960899316
2.2355816226783967
2.189638318670577
2.144672531769306
2.1006842619745845
2.0576735092864125
2.016617790811339
1.9775171065493649
1.9393939393939397
1.902248289345064
1.8699902248289344
1.842619745845552
1.8113391984359728
1.7781036168132942
1.7468230694037146
1.7165200391006843
1.686217008797654
1.656891495601173
1.629521016617791
1.6021505376344083
1.5728250244379276
1.543499511241447
1.520039100684262
1.498533724340176
1.4731182795698925
1.4457478005865103
1.4173998044965788
1.3900293255131966
1.3636363636363635
1.3372434017595307
1.310850439882698
1.2854349951124144
1.2639296187683284
1.2434017595307918
1.2218963831867058
1.206256109481916
1.1945259042033236
1.1788856304985338
1.1612903225806452
1.142717497556207
1.1241446725317692
1.1055718475073313
1.0869990224828934
1.0684261974584557
1.050830889540567
1.0342130987292275
1.018572825024438
1.0097751710654936
1.0058651026392962
0.997067448680352
0.9863147605083088
0.9765395894428152
0.9706744868035192
0.9736070381231672
0.989247311827957
1.0234604105571847
1.0791788856304985
1.1564027370478984
1.521994134897361
1.6256109481915937
1.7438905180840665
1.866080156402737
1.986314760508309
2.099706744868035
2.2023460410557183
2.29227761485826
2.3704789833822093
2.4379276637341154
2.4946236559139785
2.541544477028348
2.5747800586510263
2.5992179863147604
2.624633431085044
2.6471163245356792
2.665689149560117
2.678396871945259
2.684261974584555
2.684261974584555
2.677419354838709
2.6637341153470184
2.643206256109482
2.613880742913001
2.575757575757576
2.535679374389052
2.493646138807429
2.44672531769306
2.396871945259042
2.3489736070381237
2.304007820136853
2.26197458455523
2.222873900293255
2.1867057673509285
2.15347018572825
2.12316715542522
2.093841642228739
2.069403714565005
2.046920821114369
2.021505376344086
1.997067448680352
1.9726295210166176
1.945259042033236
1.916911045943304
1.8885630498533723
1.8621700879765395
1.836754643206256
1.812316715542522
1.7888563049853372
1.7644183773216031
1.7448680351906158
1.729227761485826
1.7116324535679377
1.6920821114369502
1.6705767350928642
1.6480938416422288
1.6265884652981428
1.606060606060606
1.5865102639296187
1.5669599217986314
1.547409579667644
1.5268817204301075
1.5112414467253177
1.498533724340176
1.4838709677419355
1.469208211143695
1.4545454545454546
1.4389051808406648
1.4242424242424243
1.409579667644184
1.396871945259042
1.3861192570869991
1.3773216031280548
1.3695014662756595
1.3616813294232648
1.3577712609970674
1.35386119257087
1.346041055718475
1.33822091886608
1.3304007820136852
1.3206256109481915
1.3118279569892473
1.303030303030303
1.295210166177908
1.2873900293255132
1.2805474095796676
1.273704789833822
1.270772238514174
1.2697947214076246
1.2688172043010753
1.2717497556207231
1.284457478005865
1.310850439882698
1.3548387096774193
1.418377321603128
1.500488758553275
1.6001955034213098
1.7145650048875856
1.8406647116324533
1.9550342130987293
2.059628543499511
2.1730205278592374
2.2873900293255134
2.396871945259042
2.498533724340176
2.590420332355816
2.6725317693059627
2.744868035190616
2.807429130009776
2.860215053763441
2.9042033235581624
2.940371456500489
2.963831867057673
2.9775171065493646
2.992179863147605
3.003910068426197
3.010752688172043
3.010752688172043
3.0019550342130987
2.983382209188661
2.9550342130987293
2.916911045943304
2.8699902248289346
2.81622678396872
2.763440860215054
2.710654936461388
2.653958944281525
2.5992179863147604
2.5454545454545454
2.49266862170088
2.441837732160313
2.3958944281524928
2.3528836754643208
2.3118279569892475
2.270772238514174
2.231671554252199
2.193548387096774
2.161290322580645
2.131964809384164
2.0987292277614857
2.065493646138808
2.0332355816226784
1.9990224828934504
1.9657869012707725
1.9345063538611929
1.903225806451613
1.873900293255132
1.844574780058651
1.81524926686217
1.790811339198436
1.7683284457478006
1.7429130009775171
1.7165200391006843
1.6901270772238517
1.664711632453568
1.6392961876832846
1.6138807429130009
1.5884652981427174
1.5650048875855327
1.543499511241447
1.52297165200391
1.501466275659824
1.482893450635386
1.466275659824047
1.4467253176930597
1.4271749755620724
1.409579667644184
1.391006842619746
1.3714565004887584
1.35386119257087
1.335288367546432
1.316715542521994
1.300097751710655
1.284457478005865
1.273704789833822
1.2658846529814272
1.2561094819159335
1.2434017595307918
1.2287390029325511
1.2140762463343109
1.1994134897360704
1.1857282502443791
1.1749755620723363
1.1652003910068427
1.1564027370478984
1.1505376344086022
1.1505376344086022
1.1593352883675463
1.1798631476050832
1.217008797653959
1.2746823069403714
1.3519061583577712
1.4486803519061584
1.5620723362658846
1.6871945259042034
1.8191593352883677
1.9501466275659824
2.078201368523949
2.1974584555229715
2.291300097751711
2.36950146627566
2.447702834799609
2.520039100684262
2.5835777126099706
2.6402737047898337
2.6911045943304006
2.7331378299120237
2.7673509286412514
2.7947214076246336
2.814271749755621
2.8260019550342133
2.8299120234604107
2.8240469208211145
2.8084066471163247
2.7869012707722387
2.758553274682307
2.721407624633431
2.675464320625611
2.622678396871945
2.5640273704789838
2.5024437927663734
2.4408602150537635
2.380254154447703
2.320625610948192
2.269794721407625
2.2218963831867056
2.1710654936461387
2.1192570869990224
2.069403714565005
2.022482893450636
1.978494623655914
1.9364613880742916
1.895405669599218
1.8563049853372435
1.8191593352883677
1.7820136852394917
1.7458455522971652
1.7145650048875856
1.6871945259042034
1.6578690127077225
1.6265884652981428
1.595307917888563
1.5650048875855327
1.5356793743890518
1.5053763440860215
1.4760508308895406
1.447702834799609
1.4222873900293256
1.3958944281524928
1.375366568914956
1.356793743890518
1.3343108504398826
1.3118279569892473
1.2913000977517106
1.270772238514174
1.2502443792766371
1.23069403714565
1.2101661779081134
1.1935483870967742
1.1808406647116323
1.1710654936461389
1.1622678396871946
1.160312805474096
1.1622678396871946
1.163245356793744
1.164222873900293
1.164222873900293
1.164222873900293
1.163245356793744
1.1622678396871946
1.1593352883675463
1.1544477028347997
1.1505376344086022
1.1456500488758554
1.142717497556207
1.141739980449658
1.13880742913001
1.1378299120234605
1.1397849462365592
1.1495601173020529
1.1710654936461389
1.2072336265884651
1.262952101661779
1.3372434017595307
1.4291300097751711
1.5366568914956011
1.653958944281525
1.7605083088954057
1.8602150537634408
1.9696969696969695
2.078201368523949
2.179863147605083
2.272727272727273
2.355816226783969
2.429130009775171
2.4916911045943304
2.544477028347996
2.589442815249267
2.624633431085044
2.64613880742913
2.658846529814272
2.670576735092864
2.678396871945259
2.6803519061583576
2.675464320625611
2.6637341153470184
2.64613880742913
2.6207233626588464
2.5884652981427174
2.548387096774193
2.5024437927663734
2.4574780058651027
2.4115347018572826
2.3626588465298144
2.314760508308896
2.269794721407625
2.225806451612903
2.185728250244379
2.1495601173020527
2.117302052785924
2.086021505376344
2.0557184750733137
2.0283479960899315
2.0
1.975562072336266
1.9521016617790807
1.927663734115347
1.903225806451613
1.878787878787879
1.8533724340175952
1.827956989247312
1.8025415444770283
1.7781036168132942
1.75366568914956
1.7272727272727273
1.7018572825024438
1.6813294232649072
1.6627565982404693
1.6412512218963833
1.6187683284457477
1.595307917888563
1.573802541544477
1.5542521994134897
1.533724340175953
1.5141739980449658
1.4936461388074291
1.474095796676442
1.452590420332356
1.43108504398827
1.414467253176931
1.4007820136852396
1.3861192570869991
1.3714565004887584
1.3558162267839686
1.3411534701857282
1.3264907135874875
1.313782991202346
1.3020527859237536
1.29227761485826
1.2834799608993157
1.2727272727272727
1.2658846529814272
1.260019550342131
1.2512218963831867
1.2404692082111437
1.2297165200391007
1.2179863147605083
1.206256109481916
1.1945259042033236
1.18475073313783
1.1456500488758554
1.0957966764418376
1.0821114369501466
1.0987292277614855
1.133919843597263
1.1886608015640274
1.2717497556207231
1.3822091886608017
1.5112414467253177
1.6520039100684265
1.7996089931573802
1.9472140762463344
2.088954056695992
2.220918866080156
2.3411534701857284
2.449657869012708
2.532746823069404
2.60019550342131
2.6715542521994133
2.739980449657869
2.803519061583578
2.8611925708699903
2.911045943304008
2.9530791788856305
2.9872922776148583
3.0127077223851417
3.0283479960899315
3.034213098729228
3.029325513196481
3.0146627565982405
2.991202346041056
2.959921798631476
2.921798631476051
2.874877810361681
2.820136852394917
2.760508308895406
2.699902248289345
2.6392961876832843
2.5777126099706744
2.5190615835777126
2.4613880742913
2.410557184750733
2.363636363636364
2.314760508308896
2.2658846529814274
2.217986314760508
2.172043010752688
2.1280547409579667
2.0840664711632453
2.043010752688172
2.004887585532747
1.9667644183773216
1.9296187683284456
1.8934506353861196
1.8631476050830889
1.836754643206256
1.8084066471163245
1.7781036168132942
1.7458455522971652
1.7145650048875856
1.6842619745845553
1.653958944281525
1.6236559139784943
1.595307917888563
1.5669599217986314
1.5376344086021505
1.512218963831867
1.490713587487781
1.4682306940371457
1.4457478005865103
1.4242424242424243
1.401759530791789
1.3773216031280548
1.3528836754643203
1.3284457478005864
1.3069403714565004
1.2873900293255132
1.267839687194526
1.2473118279569892
1.2326490713587488
1.2209188660801564
1.206256109481916
1.1896383186705768
1.1730205278592376
1.1583577712609971
1.144672531769306
1.130987292277615
1.1173020527859236
1.1036168132942326
1.0879765395894427
1.0713587487781036
1.0576735092864125
1.0469208211143697
1.0371456500488758
1.032258064516129
1.0371456500488758
1.0557184750733135
1.0948191593352885
1.1583577712609971
1.24633431085044
1.3558162267839686
1.4819159335288368
1.616813294232649
1.7546432062561097
1.8729227761485825
1.9794721407624636
2.090909090909091
2.198435972629521
2.2991202346041058
2.3900293255131966
2.469208211143695
2.5386119257087
2.5992179863147604
2.650048875855328
2.6930596285435
2.727272727272727
2.747800586510264
2.758553274682307
2.768328445747801
2.774193548387097
2.774193548387097
2.766373411534702
2.7497556207233624
2.7223851417399803
2.684261974584555
2.636363636363636
2.5806451612903225
2.5190615835777126
2.4545454545454546
2.393939393939394
2.3362658846529816
2.2766373411534704
2.218963831867057
2.164222873900293
2.1114369501466275
2.0576735092864125
2.004887585532747
1.95405669599218
1.9042033235581624
1.855327468230694
1.8103616813294232
1.7712609970674489
1.737047898338221
1.7008797653958945
1.6637341153470186
1.6265884652981428
1.5894428152492668
1.5542521994134897
1.520039100684262
1.4868035190615836
1.455522971652004
1.4242424242424243
1.393939393939394
1.364613880742913
1.3401759530791788
1.3176930596285434
1.2913000977517106
1.2609970674486803
1.2287390029325511
1.1964809384164223
1.1681329423264908
1.1407624633431086
1.1143695014662756
1.0909090909090908
1.0694037145650048
1.0498533724340176
1.0371456500488758
1.0283479960899315
1.018572825024438
1.0097751710654936
1.0009775171065494
0.9921798631476052
0.9833822091886608
0.9745845552297164
0.9667644183773216
0.9579667644183774
0.9511241446725318
0.946236559139785
0.9472140762463344
0.9511241446725318
0.9530791788856304
0.9521016617790812
0.9511241446725318
0.9481915933528836
0.9423264907135877
0.9364613880742912
0.9325513196480938
0.9305962854349952
0.9325513196480938
0.9442815249266864
0.9706744868035192
1.0068426197458455
1.056695992179863
1.1300097751710656
1.2238514173998043
1.335288367546432
1.4604105571847508
1.5913978494623655
1.7233626588465298
1.8523949169110456
1.9736070381231672
2.0840664711632453
2.1837732160312804
2.26197458455523
2.324535679374389
2.386119257086999
2.4408602150537635
2.487781036168133
2.5268817204301075
2.558162267839687
2.582600195503421
2.60019550342131
2.6099706744868034
2.611925708699902
2.606060606060606
2.590420332355816
2.567937438905181
2.5386119257087
2.5024437927663734
2.4594330400782014
2.4115347018572826
2.361681329423265
2.3098729227761488
2.259042033235582
2.2111436950146626
2.163245356793744
2.118279569892473
2.0772238514174
2.043010752688172
2.010752688172043
1.978494623655914
1.946236559139785
1.9130009775171064
1.8807429130009776
1.8504398826979471
1.822091886608016
1.7956989247311828
1.76930596285435
1.7438905180840665
1.7194525904203324
1.696969696969697
1.6774193548387095
1.656891495601173
1.6314760508308896
1.6050830889540566
1.5796676441837731
1.5542521994134897
1.5278592375366569
1.5024437927663734
1.47702834799609
1.452590420332356
1.4301075268817205
1.4076246334310851
1.3900293255131966
1.375366568914956
1.356793743890518
1.3499511241446724
1.3499511241446724
1.3421309872922775
1.3304007820136852
1.316715542521994
1.3040078201368523
1.2932551319648091
1.281524926686217
1.267839687194526
1.2531769305962854
1.241446725317693
1.2346041055718475
1.2297165200391007
1.23069403714565
1.2434017595307918
1.273704789833822
1.324535679374389
1.3988269794721409
1.4936461388074291
1.606060606060606
1.7311827956989247
1.8621700879765395
1.975562072336266
2.075268817204301
2.182795698924731
2.2883675464320627
2.3870967741935485
2.4780058651026398
2.560117302052786
2.633431085043988
2.697947214076246
2.7546432062561097
2.8054740957966766
2.849462365591398
2.8856304985337244
2.9071358748778104
2.919843597262952
2.932551319648094
2.941348973607038
2.943304007820137
2.936461388074292
2.918866080156403
2.8905180840664717
2.852394916911046
2.8054740957966766
2.7517106549364616
2.6930596285435
2.635386119257087
2.579667644183773
2.520039100684262
2.4604105571847508
2.4027370478983383
2.3499511241446727
2.300097751710655
2.251221896383187
2.2052785923753664
2.161290322580645
2.120234604105572
2.081133919843597
2.0439882697947214
2.010752688172043
1.9824046920821117
1.9521016617790807
1.9188660801564028
1.8856304985337244
1.8514173998044965
1.81524926686217
1.7790811339198436
1.7468230694037146
1.7165200391006843
1.6871945259042034
1.6559139784946235
1.629521016617791
1.607038123167155
1.581622678396872
1.5542521994134897
1.5268817204301075
1.501466275659824
1.478983382209189
1.455522971652004
1.43108504398827
1.4066471163245358
1.3822091886608017
1.359726295210166
1.3401759530791788
1.324535679374389
1.310850439882698
1.2942326490713587
1.2746823069403714
1.2551319648093842
1.2355816226783969
1.2150537634408602
1.1964809384164223
1.1788856304985338
1.1622678396871946
1.1466275659824048
1.1329423264907137
1.1231671554252198
1.115347018572825
1.1065493646138806
1.0977517106549364
1.0869990224828934
1.0762463343108504
1.0654936461388074
1.053763440860215
1.043010752688172
1.032258064516129
1.0205278592375366
1.010752688172043
1.0019550342130987
0.997067448680352
0.9951124144672532
0.9902248289345064
0.9843597262952102
0.9794721407624634
0.9745845552297164
0.9716520039100685
0.9716520039100685
0.978494623655914
0.997067448680352
1.0342130987292275
1.0928641251221896
1.160312805474096
1.2404692082111437
1.3470185728250244
1.4721407624633431
1.6099706744868034
1.7517106549364614
1.8914956011730208
2.024437927663734
2.147605083088954
2.260019550342131
2.358748778103617
2.444770283479961
2.5112414467253177
2.563049853372434
2.6148582600195502
2.6637341153470184
2.705767350928641
2.740957966764418
2.76930596285435
2.791788856304985
2.807429130009776
2.814271749755621
2.811339198435973
2.7996089931573804
2.779081133919844
2.750733137829912
2.7155425219941347
2.6715542521994133
2.6207233626588464
2.5640273704789838
2.5034213098729228
2.4408602150537635
2.377321603128055
2.314760508308896
2.254154447702835
2.1955034213098727
2.139784946236559
2.0928641251221896
2.050830889540567
2.006842619745845
1.9618768328445748
1.9178885630498532
1.8748778103616808
1.8328445747800584
1.7927663734115349
1.7556207233626588
1.7204301075268815
1.6871945259042034
1.653958944281525
1.6226783968719452
1.5962854349951123
1.5718475073313782
1.543499511241447
1.5141739980449658
1.4858260019550342
1.457478005865103
1.4291300097751711
1.4007820136852396
1.3734115347018572
1.348973607038123
1.327468230694037
1.3088954056695992
1.295210166177908
1.284457478005865
1.270772238514174
1.2561094819159335
1.241446725317693
1.2287390029325511
1.2160312805474096
1.2043010752688172
1.1945259042033236
1.1857282502443791
1.1779081133919844
1.1700879765395895
1.1612903225806452
1.1573802541544478
1.155425219941349
1.1515151515151516
1.147605083088954
1.1436950146627567
1.13880742913001
1.1329423264907137
1.126099706744868
1.1173020527859236
1.1085043988269794
1.096774193548387
1.083088954056696
1.0733137829912025
1.0654936461388074
1.0527859237536656
1.0391006842619743
1.0234604105571847
1.0097751710654936
1.0019550342130987
1.0048875855327468
1.024437927663734
1.064516129032258
1.1270772238514175
1.2121212121212122
1.3186705767350928
1.4242424242424243
1.5317693059628543
1.656891495601173
1.7869012707722385
1.913978494623656
2.0332355816226784
2.142717497556207
2.239491691104594
2.32355816226784
2.3978494623655915
2.462365591397849
2.5180840664711632
2.558162267839687
2.5855327468230693
2.6129032258064515
2.6373411534701856
2.6578690127077222
2.6715542521994133
2.678396871945259
2.678396871945259
2.668621700879765
2.650048875855328
2.6236559139784945
2.591397849462365
2.5532746823069403
2.5141739980449658
2.4731182795698925
2.426197458455523
2.378299120234604
2.3304007820136854
2.2825024437927666
2.236559139784946
2.1915933528836757
2.1495601173020527
2.121212121212121
2.1006842619745845
2.074291300097752
2.048875855327468
2.024437927663734
1.9980449657869013
1.970674486803519
1.943304007820137
1.9149560117302051
1.8866080156402736
1.858260019550342
1.828934506353861
1.801564027370479
1.7761485826001957
1.7517106549364614
1.7272727272727273
1.7067448680351909
1.6871945259042034
1.664711632453568
1.6412512218963833
1.616813294232649
1.5923753665689149
1.56891495601173
1.5454545454545454
1.5239491691104594
1.501466275659824
1.478005865102639
1.4545454545454546
1.435972629521017
1.4203323558162269
1.404692082111437
1.3890518084066472
1.375366568914956
1.3626588465298142
1.3499511241446724
1.3411534701857282
1.3362658846529814
1.3421309872922775
1.3636363636363635
1.404692082111437
1.4701857282502444
1.542521994134897
1.6236559139784943
1.7282502443792769
1.8465298142717497
1.970674486803519
2.093841642228739
2.21505376344086
2.329423264907136
2.434017595307918
2.527859237536657
2.611925708699902
2.689149560117302
2.7468230694037143
2.792766373411535
2.8426197458455524
2.889540566959922
2.9315738025415445
2.9667644183773216
2.994134897360704
3.013685239491691
3.027370478983382
3.0332355816226784
3.0303030303030303
3.0195503421309877
2.99902248289345
2.9696969696969697
2.932551319648094
2.887585532746823
2.8367546432062563
2.782013685239492
2.724340175953079
2.664711632453568
2.6050830889540566
2.5454545454545454
2.487781036168133
2.43108504398827
2.377321603128055
2.3313782991202348
2.290322580645161
2.247311827956989
2.2052785923753664
2.166177908113392
2.1280547409579667
2.089931573802541
2.0518084066471163
2.013685239491691
1.9765395894428155
1.9403714565004888
1.906158357771261
1.8729227761485825
1.844574780058651
1.818181818181818
1.7888563049853372
1.7575757575757576
1.7243401759530792
1.6911045943304008
1.6608015640273706
1.6314760508308896
1.6021505376344083
1.5757575757575757
1.5503421309872922
1.5249266862170088
1.504398826979472
1.4858260019550342
1.4633431085043989
1.4379276637341154
1.4134897360703813
1.391006842619746
1.3685239491691104
1.3470185728250244
1.3255131964809383
1.3040078201368523
1.284457478005865
1.2658846529814272
1.2531769305962854
1.2424242424242424
1.2287390029325511
