ppg
2.290322580645161
2.455522971652004
2.5943304007820136
2.69208211143695
2.7595307917888565
2.8132942326490715
2.8514173998044967
2.873900293255132
2.881720430107527
2.87683284457478
2.860215053763441
2.834799608993157
2.803519061583578
2.7673509286412514
2.7262952101661777
2.681329423264907
2.635386119257087
2.587487781036168
2.533724340175953
2.4731182795698925
2.4056695992179864
2.332355816226784
2.2531769305962857
2.16911045943304
2.0821114369501466
1.994134897360704
1.90811339198436
1.8240469208211143
1.75366568914956
1.6930596285434996
1.6334310850439884
1.5786901270772238
1.5317693059628543
1.4916911045943304
1.4594330400782014
1.434017595307918
1.414467253176931
1.396871945259042
1.383186705767351
1.370478983382209
1.356793743890518
1.3470185728250244
1.33822091886608
1.3255131964809383
1.310850439882698
1.2961876832844574
1.2825024437927663
1.267839687194526
1.252199413489736
1.2365591397849462
1.2218963831867058
1.2072336265884651
1.1906158357771262
1.1759530791788857
1.163245356793744
1.147605083088954
1.1329423264907137
1.1202346041055715
1.1085043988269794
1.096774193548387
1.086021505376344
1.0762463343108504
1.0664711632453567
1.0557184750733135
1.0449657869012707
1.0381231671554252
1.0332355816226784
1.0273704789833822
1.0205278592375366
1.0127077223851415
1.0058651026392962
1.0019550342130987
1.0
0.9990224828934506
0.9980449657869012
0.9980449657869012
0.9980449657869012
0.9990224828934506
1.002932551319648
1.007820136852395
1.0097751710654936
1.0117302052785924
1.0146627565982405
1.0175953079178883
1.0205278592375366
1.024437927663734
1.0283479960899315
1.032258064516129
1.035190615835777
1.0391006842619743
1.0439882697947214
1.050830889540567
1.0586510263929618
1.0664711632453567
1.0762463343108504
1.086021505376344
1.0957966764418376
1.1036168132942326
1.1085043988269794
1.1114369501466277
1.1202346041055715
1.1456500488758554
1.1964809384164223
1.2619745845552297
1.3519061583577712
1.4848484848484849
1.653958944281525
1.8484848484848484
2.0527859237536656
2.254154447702835
2.4408602150537635
2.603128054740958
2.735092864125122
2.8396871945259043
2.917888563049853
2.963831867057673
2.9872922776148583
3.0009775171065494
3.003910068426197
2.9960899315738025
2.979472140762464
2.95405669599218
2.9227761485826003
2.886608015640274
2.8455522971652005
2.7996089931573804
2.7497556207233624
2.6959921798631474
2.6422287390029324
2.5855327468230693
2.520039100684262
2.4486803519061584
2.3714565004887587
2.289345063538612
2.2052785923753664
2.124144672531769
2.0449657869012707
1.9696969696969695
1.8993157380254155
1.835777126099707
1.7869012707722385
1.747800586510264
1.7135874877810362
1.6871945259042034
1.6686217008797657
1.6559139784946235
1.64613880742913
1.6373411534701858
1.629521016617791
1.619745845552297
1.6080156402737047
1.5943304007820136
1.5806451612903225
1.5698924731182795
1.5610948191593352
1.5513196480938416
1.5405669599217986
1.5288367546432062
1.5151515151515151
1.499511241446725
1.4819159335288368
1.4652981427174976
1.4496578690127078
1.4349951124144673
1.4203323558162269
1.4086021505376345
1.3988269794721409
1.3890518084066472
1.3792766373411536
1.367546432062561
1.3558162267839686
1.343108504398827
1.3313782991202343
1.3206256109481915
1.3098729227761483
1.2991202346041055
1.2883675464320623
1.2776148582600195
1.2697947214076246
1.2649071358748778
1.260019550342131
1.2561094819159335
1.252199413489736
1.2482893450635386
1.2443792766373412
1.241446725317693
1.2375366568914956
1.2326490713587488
1.2287390029325511
1.224828934506354
1.2228739002932552
1.2228739002932552
1.219941348973607
1.2160312805474096
1.2121212121212122
1.2082111436950147
1.206256109481916
1.2052785923753666
1.2052785923753666
1.2052785923753666
1.2052785923753666
1.2043010752688172
1.2003910068426198
1.1974584555229717
1.195503421309873
1.1896383186705768
1.1837732160312806
1.1837732160312806
1.2003910068426198
1.2424242424242424
1.3186705767350928
1.4301075268817205
1.576735092864125
1.7497556207233629
1.93841642228739
2.104594330400782
2.2521994134897363
2.403714565004888
2.541544477028348
2.6578690127077222
2.750733137829912
2.819159335288368
2.8641251221896384
2.889540566959922
2.898338220918866
2.89247311827957
2.875855327468231
2.849462365591398
2.817204301075269
2.780058651026393
2.73802541544477
2.6911045943304006
2.6402737047898337
2.5865102639296187
2.5288367546432062
2.466275659824047
2.3978494623655915
2.3255131964809386
2.247311827956989
2.163245356793744
2.086021505376344
2.0127077223851417
1.9335288367546437
1.8543499511241448
1.7790811339198436
1.7086999022482894
1.64613880742913
1.5923753665689149
1.547409579667644
1.5102639296187683
2.730205278592375
2.687194525904203
2.6392961876832843
2.5865102639296187
2.529814271749756
2.4682306940371457
2.40078201368524
2.3274682306940373
2.2502443792766376
2.167155425219941
2.080156402737048
1.992179863147605
1.9071358748778104
1.8347996089931573
1.7712609970674489
1.7057673509286413
1.6451612903225807
1.5933528836754642
1.5513196480938416
1.5190615835777126
1.4946236559139785
1.4760508308895406
1.4623655913978495
1.4516129032258065
1.444770283479961
1.4408602150537635
1.436950146627566
1.4330400782013686
1.4291300097751711
1.4242424242424243
1.418377321603128
1.4115347018572826
1.4027370478983383
1.391006842619746
1.3782991202346042
1.364613880742913
1.3509286412512218
1.3391984359726294
1.3304007820136852
1.3235581622678396
1.3147605083088951
1.3040078201368523
1.2913000977517106
1.2766373411534702
1.2609970674486803
1.2473118279569892
1.2355816226783969
1.2267839687194526
1.2189638318670577
1.2140762463343109
1.2111436950146628
1.2101661779081134
1.2072336265884651
1.203323558162268
1.198435972629521
1.1945259042033236
1.1915933528836755
1.1896383186705768
1.1886608015640274
1.1896383186705768
1.1915933528836755
1.1945259042033236
1.198435972629521
1.2043010752688172
1.2111436950146628
1.2160312805474096
1.2189638318670577
1.2218963831867058
1.2238514173998043
1.224828934506354
1.224828934506354
1.224828934506354
1.2258064516129032
1.2267839687194526
1.2287390029325511
1.2316715542521994
1.2365591397849462
1.238514173998045
1.2375366568914956
1.2346041055718475
1.23069403714565
1.2297165200391007
1.2375366568914956
1.2639296187683284
1.3186705767350928
1.4086021505376345
1.5356793743890518
1.696969696969697
1.855327468230694
2.0117302052785924
2.190615835777126
2.36950146627566
2.535679374389052
2.678396871945259
2.791788856304985
2.874877810361681
2.932551319648094
2.967741935483871
2.98435972629521
2.986314760508309
2.973607038123167
2.9501466275659824
2.921798631476051
2.887585532746823
2.8484848484848486
2.8044965786901277
2.7546432062561097
2.7008797653958942
2.6422287390029324
2.578690127077224
2.509286412512219
2.4359726295210167
2.357771260997068
2.2825024437927666
2.2082111436950145
2.126099706744868
2.040078201368524
1.95405669599218
1.871945259042033
1.796676441837732
1.7302052785923754
1.6744868035190617
1.6285434995112416
1.5913978494623655
1.5620723362658846
1.541544477028348
1.525904203323558
1.5131964809384164
1.499511241446725
1.4858260019550342
1.4711632453567938
1.455522971652004
1.4408602150537635
1.426197458455523
1.4115347018572826
1.396871945259042
1.3822091886608017
1.3655913978494625
1.3519061583577712
1.3391984359726294
1.324535679374389
1.3079178885630498
1.2903225806451613
1.2727272727272727
1.2551319648093842
1.2375366568914956
1.219941348973607
1.2023460410557183
1.18475073313783
1.1681329423264908
1.1564027370478984
1.1466275659824048
1.1348973607038124
1.1231671554252198
1.1114369501466277
1.1006842619745845
1.0909090909090908
1.0811339198435972
1.0703812316715542
1.0596285434995112
1.050830889540567
1.0439882697947214
1.040078201368524
1.0391006842619743
1.0361681329423265
1.0312805474095796
1.024437927663734
1.0166177908113392
1.0097751710654936
1.0058651026392962
1.0039100684261977
1.002932551319648
1.0019550342130987
1.0019550342130987
1.0019550342130987
1.002932551319648
1.0048875855327468
1.0048875855327468
1.0058651026392962
1.0058651026392962
1.0058651026392962
1.0058651026392962
1.0039100684261977
1.0019550342130987
0.9980449657869012
0.9921798631476052
0.9882697947214076
0.9921798631476052
1.0097751710654936
1.0518084066471165
1.1290322580645162
1.24633431085044
1.401759530791789
1.5894428152492668
1.7956989247311828
2.007820136852395
2.209188660801564
2.388074291300098
2.539589442815249
2.66177908113392
2.742913000977517
2.795698924731183
2.834799608993157
2.859237536656892
2.870967741935484
2.870967741935484
2.860215053763441
2.8406647116324537
2.8152492668621703
2.78494623655914
2.7497556207233624
2.708699902248289
2.665689149560117
2.6207233626588464
2.5698924731182795
2.512218963831867
2.447702834799609
2.376344086021505
2.297165200391007
2.212121212121212
2.1221896383186705
2.0303030303030303
1.9374389051808407
1.8465298142717497
1.761485826001955
1.6911045943304008
1.6314760508308896
1.5747800586510263
1.5239491691104594
1.4809384164222874
1.444770283479961
1.41544477028348
1.391006842619746
1.370478983382209
1.35386119257087
1.3401759530791788
1.327468230694037
1.3176930596285434
1.3098729227761483
1.300097751710655
1.2903225806451613
1.2805474095796676
1.2697947214076246
1.2590420332355816
1.249266862170088
1.2394916911045943
1.2287390029325511
1.2189638318670577
1.209188660801564
1.1974584555229717
1.1886608015640274
1.1798631476050832
1.1700879765395895
1.160312805474096
1.1495601173020529
1.1407624633431086
1.133919843597263
1.1300097751710656
1.1290322580645162
1.1290322580645162
1.1290322580645162
1.1290322580645162
1.1300097751710656
1.1319648093841643
1.1319648093841643
1.130987292277615
1.1300097751710656
1.1300097751710656
1.1290322580645162
1.1280547409579669
1.1290322580645162
1.1290322580645162
1.1290322580645162
1.1290322580645162
1.1290322580645162
1.130987292277615
1.133919843597263
1.1348973607038124
1.1358748778103618
1.1368523949169111
1.1397849462365592
1.144672531769306
1.1515151515151516
1.1573802541544478
1.1622678396871946
1.1652003910068427
1.1671554252199414
1.1691104594330402
1.1720430107526882
1.173998044965787
1.173998044965787
1.1730205278592376
1.1749755620723363
1.1857282502443791
1.2130987292277615
1.2649071358748778
1.3509286412512218
1.4731182795698925
1.6304985337243405
1.81524926686217
1.9872922776148585
2.1485826001955037
2.3225806451612905
2.4887585532746823
2.635386119257087
2.755620723362659
2.849462365591398
2.916911045943304
2.959921798631476
2.9824046920821115
2.986314760508309
2.975562072336266
2.952101661779081
2.920821114369501
2.8856304985337244
2.8475073313782997
2.806451612903226
2.7624633431085046
2.7155425219941347
2.6637341153470184
2.6080156402737047
2.547409579667644
2.479960899315738
2.406647116324536
2.3274682306940373
2.2531769305962857
2.1818181818181817
2.101661779081134
2.0195503421309877
1.9403714565004888
1.866080156402737
1.7986314760508308
1.739980449657869
1.6911045943304008
1.6500488758553276
1.6177908113391983
1.5923753665689149
1.5757575757575757
1.564027370478983
1.5532746823069403
1.543499511241447
1.533724340175953
1.52297165200391
1.512218963831867
1.500488758553275
1.4868035190615836
1.4721407624633431
1.456500488758553
1.4408602150537635
1.4252199413489737
1.4115347018572826
1.3998044965786902
1.3841642228739004
1.3665689149560116
1.348973607038123
1.3313782991202343
1.3128054740957966
1.295210166177908
1.2776148582600195
1.260019550342131
1.2443792766373412
1.23069403714565
1.2218963831867058
1.2150537634408602
1.2043010752688172
1.1935483870967742
1.1827956989247312
1.1720430107526882
1.1622678396871946
1.152492668621701
1.144672531769306
1.1378299120234605
1.1329423264907137
1.1280547409579669
1.1270772238514175
1.1270772238514175
1.1251221896383188
1.121212121212121
1.115347018572825
1.110459433040078
1.1065493646138806
1.1026392961876832
1.0987292277614855
1.096774193548387
1.0957966764418376
1.0948191593352885
1.093841642228739
1.0957966764418376
1.0987292277614855
1.1006842619745845
1.1036168132942326
1.1065493646138806
1.1094819159335287
1.1124144672531768
1.1124144672531768
1.110459433040078
1.104594330400782
1.0957966764418376
1.0879765395894427
1.0869990224828934
1.0977517106549364
1.1290322580645162
1.187683284457478
1.2834799608993157
1.4173998044965788
1.58455522971652
1.7771260997067448
1.981427174975562
2.1818181818181817
2.3655913978494625
2.5249266862170088
2.653958944281525
2.740957966764418
2.798631476050831
2.843597262952102
2.8719452590420333
2.884652981427175
2.8856304985337244
2.874877810361681
2.855327468230694
2.8289345063538613
2.7996089931573804
2.7653958944281527
2.7253176930596283
2.6832844574780057
2.638318670576735
2.5865102639296187
2.525904203323558
2.458455522971652
2.3841642228739004
2.303030303030303
2.2170087976539588
2.1280547409579667
2.038123167155425
1.948191593352884
1.8602150537634408
1.7761485826001957
1.7057673509286413
1.64613880742913
1.5884652981427174
1.5356793743890518
1.4897360703812317
1.452590420332356
1.4242424242424243
1.401759530791789
1.383186705767351
1.367546432062561
1.3548387096774193
1.3421309872922775
1.332355816226784
1.3235581622678396
1.3118279569892473
1.2981427174975562
1.2825024437927663
1.2658846529814272
1.249266862170088
1.2316715542521994
1.2130987292277615
1.1749755620723363
1.1280547409579669
1.096774193548387
1.072336265884653
1.0576735092864125
1.0488758553274682
1.0381231671554252
1.0273704789833822
1.0166177908113392
1.0058651026392962
0.9951124144672532
0.9843597262952102
0.975562072336266
0.9687194525904204
0.9628543499511242
0.9589442815249268
0.956989247311828
0.956989247311828
0.9560117302052786
0.9530791788856304
0.9511241446725318
0.9501466275659824
0.9481915933528836
0.9472140762463344
0.9491691104594332
0.9521016617790812
0.9550342130987292
0.9589442815249268
0.9638318670576737
0.9696969696969696
0.9765395894428152
0.9824046920821116
0.9872922776148584
0.9912023460410556
0.9951124144672532
1.0
1.007820136852395
1.0156402737047898
1.0254154447702837
1.035190615835777
1.0439882697947214
1.0518084066471165
1.0576735092864125
1.0606060606060606
1.0606060606060606
1.0586510263929618
1.0557184750733135
1.0547409579667644
1.0625610948191593
1.0899315738025417
1.1456500488758554
1.2355816226783969
1.364613880742913
1.530791788856305
1.6959921798631477
1.8631476050830889
2.056695992179863
2.2531769305962857
2.4349951124144678
2.591397849462365
2.718475073313783
2.8152492668621703
2.884652981427175
2.9286412512218964
2.949169110459433
2.951124144672532
2.9374389051808407
2.913000977517106
2.8826979472140764
2.8455522971652005
2.8044965786901277
2.760508308895406
2.713587487781036
2.664711632453568
2.6129032258064515
2.5562072336265884
2.4946236559139785
2.426197458455523
2.3489736070381237
2.274682306940372
2.20039100684262
2.1163245356793743
2.026392961876833
1.93841642228739
1.855327468230694
1.780058651026393
1.7145650048875856
1.66177908113392
1.619745845552297
1.587487781036168
1.5620723362658846
1.543499511241447
1.530791788856305
1.521016617790811
1.5131964809384164
1.5053763440860215
1.4975562072336266
1.4887585532746823
1.478983382209189
1.466275659824047
1.4506353861192571
1.434017595307918
1.4173998044965788
1.3998044965786902
1.3851417399804498
1.3724340175953078
1.3577712609970674
1.3411534701857282
1.324535679374389
1.3079178885630498
1.29227761485826
1.2766373411534702
1.260019550342131
1.2424242424242424
1.2238514173998043
1.2052785923753666
1.1906158357771262
1.1788856304985338
1.1652003910068427
1.1534701857282503
1.1436950146627567
1.1348973607038124
1.1270772238514175
1.1192570869990224
1.1114369501466277
1.1036168132942326
1.096774193548387
1.088954056695992
1.0840664711632453
1.0791788856304985
1.0733137829912025
1.0664711632453567
1.0606060606060606
1.0557184750733135
1.050830889540567
1.0469208211143697
1.0449657869012707
1.0439882697947214
1.0439882697947214
1.0439882697947214
1.043010752688172
1.0439882697947214
1.04594330400782
1.0469208211143697
1.0488758553274682
1.050830889540567
1.0518084066471165
1.0518084066471165
1.050830889540567
1.0488758553274682
1.0439882697947214
1.0371456500488758
1.032258064516129
1.0342130987292275
1.0488758553274682
1.0850439882697946
1.152492668621701
1.2580645161290325
1.4007820136852396
1.576735092864125
1.7741935483870968
1.981427174975562
2.182795698924731
2.3655913978494625
2.5210166177908118
2.6451612903225805
2.729227761485826
2.782013685239492
2.8211143695014664
2.844574780058651
2.852394916911046
2.84652981427175
2.8289345063538613
2.8025415444770285
2.768328445747801
2.7282502443792764
2.684261974584555
2.636363636363636
2.587487781036168
2.536656891495601
2.4789833822091887
2.4164222873900294
2.346041055718475
2.2688172043010755
2.187683284457478
2.1006842619745845
2.007820136852395
1.9120234604105573
1.818181818181818
1.729227761485826
1.6451612903225807
1.5777126099706744
1.521994134897361
1.4682306940371457
1.4213098729227762
1.3812316715542523
1.3479960899315735
1.321603128054741
1.3010752688172045
1.284457478005865
1.270772238514174
1.2590420332355816
1.2473118279569892
1.238514173998045
1.2316715542521994
1.2209188660801564
1.2072336265884651
1.1915933528836755
1.1749755620723363
1.1593352883675463
1.144672531769306
1.1300097751710656
1.115347018572825
1.099706744868035
1.083088954056696
1.0664711632453567
1.0547409579667644
1.04594330400782
1.0342130987292275
1.0195503421309873
1.0048875855327468
0.9921798631476052
0.9804496578690128
0.9687194525904204
0.9579667644183774
0.9481915933528836
0.9393939393939394
0.9305962854349952
0.9266862170087976
0.9247311827956988
0.919843597262952
0.9100684261974584
0.9042033235581622
0.8993157380254154
0.8944281524926686
0.8924731182795699
0.8914956011730205
0.8895405669599218
0.8875855327468231
0.8866080156402737
0.8885630498533724
0.8924731182795699
0.8944281524926686
0.895405669599218
0.8963831867057673
0.8963831867057673
0.8963831867057673
0.8963831867057673
0.8963831867057673
0.8973607038123167
0.8993157380254154
0.9032258064516128
0.9090909090909092
0.9120234604105572
0.9423264907135877
0.9833822091886608
1.0019550342130987
1.010752688172043
1.021505376344086
1.0439882697947214
1.0879765395894427
1.163245356793744
1.2756598240469208
1.4252199413489737
1.5777126099706744
1.7380254154447703
1.9266862170087975
2.1221896383186705
2.3088954056695994
2.4760508308895406
2.616813294232649
2.730205278592375
2.81622678396872
2.873900293255132
2.90811339198436
2.9237536656891496
2.921798631476051
2.8963831867057674
2.8719452590420333
2.843597262952102
2.7947214076246336
2.755620723362659
2.7116324535679373
2.6637341153470184
2.6099706744868034
2.5513196480938416
2.486803519061584
2.4164222873900294
2.3489736070381237
2.2825024437927666
2.207233626588465
2.1270772238514173
2.0449657869012707
1.964809384164223
1.8875855327468232
1.8162267839687196
1.7253176930596286
1.6774193548387095
1.6383186705767352
1.598240469208211
1.581622678396872
1.5698924731182795
1.5620723362658846
1.5562072336265884
1.5503421309872922
1.541544477028348
1.5317693059628543
1.521994134897361
1.5112414467253177
1.501466275659824
1.4926686217008798
1.4838709677419355
1.47702834799609
1.469208211143695
1.457478005865103
1.444770283479961
1.43108504398827
1.4173998044965788
1.4037145650048877
1.391006842619746
1.3792766373411536
1.367546432062561
1.356793743890518
1.346041055718475
1.33822091886608
1.3313782991202343
1.3225806451612905
1.313782991202346
1.3088954056695992
1.3147605083088951
1.3362658846529814
1.380254154447703
1.4496578690127078
1.5454545454545454
1.6637341153470186
1.7986314760508308
1.9403714565004888
2.0625610948191597
2.1681329423264906
2.275659824046921
2.36950146627566
2.442815249266862
2.4946236559139785
2.525904203323558
2.539589442815249
2.536656891495601
2.5180840664711632
2.486803519061584
2.444770283479961
2.398826979472141
2.347996089931574
2.2883675464320627
2.220918866080156
2.1485826001955037
2.070381231671554
1.988269794721408
1.9042033235581624
1.822091886608016
1.7419354838709675
1.6666666666666667
1.598240469208211
1.543499511241447
1.501466275659824
1.4633431085043989
1.4320625610948192
1.4086021505376345
1.392961876832845
1.3841642228739004
1.3812316715542523
1.380254154447703
1.380254154447703
1.380254154447703
1.380254154447703
1.380254154447703
1.380254154447703
1.3792766373411536
1.3763440860215057
1.3714565004887584
1.3636363636363635
1.3548387096774193
1.3440860215053765
1.3304007820136852
1.3147605083088951
1.2981427174975562
1.2825024437927663
1.2668621700879763
1.2561094819159335
1.2473118279569892
1.2355816226783969
1.2228739002932552
1.209188660801564
1.1964809384164223
1.18475073313783
1.173998044965787
1.1652003910068427
1.1583577712609971
1.152492668621701
1.147605083088954
1.141739980449658
1.13880742913001
1.1358748778103618
1.1300097751710656
1.1231671554252198
1.1173020527859236
1.1124144672531768
1.1085043988269794
1.104594330400782
1.1006842619745845
1.0977517106549364
1.0625610948191593
1.0694037145650048
1.0879765395894427
1.1290322580645162
1.2072336265884651
1.327468230694037
1.490713587487781
1.689149560117302
1.9100684261974583
2.136852394916911
2.3519061583577714
2.5434995112414467
2.704789833822092
2.834799608993157
2.9345063538611926
2.9960899315738025
3.029325513196481
3.050830889540567
3.059628543499511
3.056695992179863
3.043010752688172
3.0195503421309877
2.9872922776148583
2.949169110459433
2.905180840664712
2.8563049853372435
2.801564027370479
2.745845552297165
2.689149560117302
2.624633431085044
2.5542521994134897
2.47702834799609
2.3929618768328447
2.302052785923754
2.207233626588465
2.1094819159335287
2.013685239491691
1.919843597262952
1.8318670576735088
1.750733137829912
1.686217008797654
1.632453567937439
1.581622678396872
1.5376344086021505
1.501466275659824
1.4731182795698925
1.4506353861192571
1.4330400782013686
1.4164222873900294
1.401759530791789
1.3870967741935485
1.3714565004887584
1.3587487781036167
1.3470185728250244
1.332355816226784
1.3147605083088951
1.2961876832844574
1.2766373411534702
1.2580645161290325
1.2404692082111437
1.224828934506354
1.2101661779081134
1.195503421309873
1.1808406647116323
1.1671554252199414
1.1593352883675463
1.1544477028347997
1.1485826001955035
1.142717497556207
1.1368523949169111
1.130987292277615
1.1270772238514175
1.1221896383186705
1.1173020527859236
1.10752688172043
1.096774193548387
1.088954056695992
1.086021505376344
1.086021505376344
1.0840664711632453
1.0811339198435972
1.0801564027370478
1.0811339198435972
1.083088954056696
1.086021505376344
1.088954056695992
1.093841642228739
1.1016617790811338
1.1094819159335287
1.118279569892473
1.1270772238514175
1.1329423264907137
1.1358748778103618
1.1378299120234605
1.13880742913001
1.13880742913001
1.13880742913001
1.13880742913001
1.1407624633431086
1.144672531769306
1.1485826001955035
1.1505376344086022
1.1534701857282503
1.1564027370478984
1.1593352883675463
1.1681329423264908
1.1915933528836755
1.2404692082111437
1.3206256109481915
1.435972629521017
1.58455522971652
1.7595307917888563
1.949169110459433
2.139784946236559
2.3196480938416424
2.4613880742913
2.570869990224829
2.6695992179863146
2.748778103616813
2.8044965786901277
2.838709677419355
2.8533724340175954
2.8533724340175954
2.8406647116324537
2.817204301075269
2.787878787878788
2.7536656891495603
2.7155425219941347
2.673509286412512
2.627565982404692
2.5777126099706744
2.5239491691104594
2.4652981427174976
