ppg
1.1378299120234605
1.1886608015640274
1.278592375366569
1.3870967741935485
1.5190615835777126
1.696969696969697
1.9042033235581624
2.120234604105572
2.3274682306940373
2.5102639296187683
2.658846529814272
2.7673509286412514
2.835777126099707
2.8670576735092865
2.865102639296188
2.8406647116324537
2.798631476050831
2.73802541544477
2.6637341153470184
2.579667644183773
2.487781036168133
2.3919843597262958
2.294232649071359
2.174975562072336
2.046920821114369
1.93841642228739
1.839687194525904
1.7458455522971652
1.6666666666666667
1.5962854349951123
1.521016617790811
1.4457478005865103
1.3724340175953078
1.303030303030303
1.2404692082111437
1.1857282502443791
1.1397849462365592
1.1026392961876832
1.0742913000977516
1.0547409579667644
1.0449657869012707
1.043010752688172
1.0449657869012707
1.0518084066471165
1.0635386119257086
1.0791788856304985
1.0977517106549364
1.118279569892473
1.1397849462365592
1.160312805474096
1.1788856304985338
1.1945259042033236
1.2082111436950147
1.2179863147605083
1.224828934506354
1.227761485826002
1.2267839687194526
1.2238514173998043
1.2189638318670577
1.2130987292277615
1.2082111436950147
1.2052785923753666
1.2043010752688172
1.2043010752688172
1.2052785923753666
1.2072336265884651
1.2101661779081134
1.2140762463343109
1.2238514173998043
1.2473118279569892
1.2942326490713587
1.3734115347018572
1.4887585532746823
1.6412512218963833
1.8240469208211143
2.024437927663734
2.2267839687194524
2.3929618768328447
2.527859237536657
2.654936461388074
2.758553274682307
2.8299120234604107
2.868035190615836
2.875855327468231
2.855327468230694
2.812316715542522
2.7517106549364616
2.67644183773216
2.590420332355816
2.4975562072336266
2.4115347018572826
2.3284457478005867
2.2375366568914954
2.1436950146627565
2.048875855327468
1.9550342130987293
1.8631476050830889
1.7741935483870968
1.6871945259042034
1.603128054740958
1.52297165200391
1.447702834799609
1.388074291300098
1.3391984359726294
1.2913000977517106
1.2482893450635386
1.2121212121212122
1.1837732160312806
1.163245356793744
1.1495601173020529
1.141739980449658
1.1397849462365592
1.142717497556207
1.147605083088954
1.155425219941349
1.1652003910068427
1.1759530791788857
1.1867057673509287
1.1974584555229717
1.2072336265884651
1.2150537634408602
1.219941348973607
1.2218963831867058
1.2218963831867058
1.219941348973607
1.2160312805474096
1.2111436950146628
1.2072336265884651
1.2052785923753666
1.2013685239491692
1.1974584555229717
1.1935483870967742
1.1896383186705768
1.1857282502443791
1.1808406647116323
1.1759530791788857
1.1710654936461389
1.1681329423264908
1.173998044965787
1.1974584555229717
1.2355816226783969
1.2981427174975562
1.4007820136852396
1.541544477028348
1.7135874877810362
1.9071358748778104
2.1055718475073317
2.29227761485826
2.4565004887585533
2.589442815249267
2.686217008797654
2.747800586510264
2.7751710654936463
2.776148582600196
2.757575757575758
2.7223851417399803
2.6725317693059627
2.611925708699902
2.541544477028348
2.466275659824047
2.386119257086999
2.304007820136853
2.219941348973607
2.134897360703812
2.0498533724340176
1.9736070381231672
1.902248289345064
1.8240469208211143
1.7419354838709675
1.6598240469208212
1.5786901270772238
1.499511241446725
1.4242424242424243
1.3548387096774193
1.2932551319648091
1.2394916911045943
1.1935483870967742
1.160312805474096
1.1378299120234605
1.1173020527859236
1.1016617790811338
1.0909090909090908
1.086021505376344
1.0869990224828934
1.093841642228739
1.1055718475073313
1.1221896383186705
1.141739980449658
1.163245356793744
1.1827956989247312
1.2013685239491692
1.217008797653959
1.2297165200391007
1.238514173998045
1.2434017595307918
1.2443792766373412
1.241446725317693
1.2355816226783969
1.2287390029325511
1.2218963831867058
1.2140762463343109
1.206256109481916
1.2003910068426198
1.195503421309873
1.187683284457478
1.176930596285435
1.1671554252199414
1.163245356793744
1.173998044965787
1.209188660801564
1.2766373411534702
1.3822091886608017
1.525904203323558
1.7008797653958945
1.895405669599218
2.0684261974584555
2.222873900293255
2.383186705767351
2.5268817204301075
2.6422287390029324
2.7233626588465296
2.771260997067449
2.7869012707722387
2.774193548387097
2.7390029325513194
2.687194525904203
2.621700879765396
2.5542521994134897
2.484848484848485
2.406647116324536
2.32355816226784
2.2375366568914954
2.150537634408602
2.06158357771261
1.9716520039100685
1.8807429130009776
1.790811339198436
1.7008797653958945
1.6129032258064515
1.5278592375366569
1.456500488758553
1.3949169110459434
1.3304007820136852
1.2697947214076246
1.217008797653959
1.1730205278592376
1.1397849462365592
1.1173020527859236
1.104594330400782
1.1016617790811338
1.1055718475073313
1.1163245356793745
1.1300097751710656
1.1466275659824048
1.1652003910068427
1.1837732160312806
1.2023460410557183
1.2189638318670577
1.2326490713587488
1.2443792766373412
1.252199413489736
1.2570869990224829
1.2580645161290325
1.2541544477028348
1.2473118279569892
1.241446725317693
1.2346041055718475
1.224828934506354
1.2130987292277615
1.2023460410557183
1.1915933528836755
1.181818181818182
1.1710654936461389
1.1593352883675463
1.147605083088954
1.1378299120234605
1.133919843597263
1.1407624633431086
1.164222873900293
1.2130987292277615
1.2981427174975562
1.4281524926686218
1.598240469208211
1.7986314760508308
2.013685239491691
2.2267839687194524
2.421309872922776
2.5865102639296187
2.7145650048875853
2.7966764418377323
2.8406647116324537
2.860215053763441
2.8533724340175954
2.823069403714565
2.773216031280548
2.70772238514174
2.63049853372434
2.544477028347996
2.452590420332356
2.355816226783969
2.257086999022483
2.157380254154448
2.069403714565005
1.988269794721408
1.8993157380254155
1.8084066471163245
1.7174975562072337
1.6304985337243405
1.5454545454545454
1.4643206256109482
1.3890518084066472
1.3206256109481915
1.2609970674486803
1.2101661779081134
1.173998044965787
1.1485826001955035
1.1280547409579669
1.1143695014662756
1.10752688172043
1.10752688172043
1.1124144672531768
1.121212121212121
1.133919843597263
1.1485826001955035
1.164222873900293
1.1798631476050832
1.1945259042033236
1.2082111436950147
1.2209188660801564
1.2316715542521994
1.2394916911045943
1.2443792766373412
1.2453567937438903
1.2424242424242424
1.2365591397849462
1.227761485826002
1.2179863147605083
1.2072336265884651
1.195503421309873
1.187683284457478
1.1827956989247312
1.1749755620723363
1.1652003910068427
1.1534701857282503
1.1407624633431086
1.130987292277615
1.1300097751710656
1.1485826001955035
1.1974584555229717
1.284457478005865
1.4134897360703813
1.5806451612903225
1.747800586510264
1.916911045943304
2.1114369501466275
2.304985337243402
2.4809384164222874
2.625610948191593
2.732160312805474
2.801564027370479
2.834799608993157
2.835777126099707
2.8103616813294234
2.763440860215054
2.705767350928641
2.6402737047898337
2.563049853372434
2.4780058651026398
2.388074291300098
2.2961876832844577
2.2023460410557183
2.10752688172043
2.0117302052785924
1.9159335288367547
1.8211143695014664
1.7272727272727273
1.635386119257087
1.5571847507331378
1.487781036168133
1.414467253176931
1.3440860215053765
1.2795698924731185
1.2238514173998043
1.1779081133919844
1.142717497556207
1.118279569892473
1.104594330400782
1.0987292277614855
1.1006842619745845
1.1085043988269794
1.1202346041055715
1.1348973607038124
1.1505376344086022
1.1671554252199414
1.1837732160312806
1.198435972629521
1.2111436950146628
1.2209188660801564
1.227761485826002
1.2316715542521994
1.2326490713587488
1.2297165200391007
1.2267839687194526
1.2218963831867058
1.2140762463343109
1.2043010752688172
1.1935483870967742
1.1827956989247312
1.1730205278592376
1.164222873900293
1.1564027370478984
1.147605083088954
1.1368523949169111
1.126099706744868
1.118279569892473
1.1173020527859236
1.1270772238514175
1.1583577712609971
1.2209188660801564
1.3225806451612905
1.4652981427174976
1.6441837732160314
1.847507331378299
2.059628543499511
2.264907135874878
2.450635386119257
2.6041055718475072
2.708699902248289
2.7751710654936463
2.8181818181818183
2.834799608993157
2.8269794721407626
2.795698924731183
2.7468230694037143
2.6832844574780057
2.6099706744868034
2.529814271749756
2.443792766373412
2.3548387096774195
2.2737047898338223
2.1955034213098727
2.10850439882698
2.0175953079178885
1.9237536656891496
1.8299120234604105
1.7360703812316716
1.6441837732160314
1.5542521994134897
1.469208211143695
1.391006842619746
1.321603128054741
1.260019550342131
1.2140762463343109
1.1808406647116323
1.1515151515151516
1.1280547409579669
1.1124144672531768
1.104594330400782
1.1036168132942326
1.1094819159335287
1.1202346041055715
1.1348973607038124
1.1505376344086022
1.1671554252199414
1.1827956989247312
1.1974584555229717
1.2101661779081134
1.2209188660801564
1.2297165200391007
1.2355816226783969
1.2375366568914956
1.2355816226783969
1.2297165200391007
1.2209188660801564
1.2111436950146628
1.1994134897360704
1.187683284457478
1.1798631476050832
1.1730205278592376
1.164222873900293
1.155425219941349
1.1436950146627567
1.1300097751710656
1.1143695014662756
1.1036168132942326
1.104594330400782
1.1280547409579669
1.18475073313783
1.2825024437927663
1.3978494623655917
1.5356793743890518
1.7194525904203324
1.9286412512218964
2.1436950146627565
2.346041055718475
2.5219941348973607
2.6637341153470184
2.7673509286412514
2.831867057673509
2.860215053763441
2.8582600195503423
2.8289345063538613
2.78494623655914
2.7282502443792764
2.6578690127077222
2.576735092864125
2.486803519061584
2.3929618768328447
2.2952101661779083
2.1955034213098727
2.0948191593352883
1.9931573802541545
1.8914956011730208
1.7898338220918866
1.7018572825024438
1.6226783968719452
1.5356793743890518
1.4486803519061584
1.3655913978494625
1.2873900293255132
1.217008797653959
1.1564027370478984
1.1055718475073313
1.0654936461388074
1.0361681329423265
1.0166177908113392
1.007820136852395
1.0068426197458455
1.0097751710654936
1.0166177908113392
1.0283479960899315
1.043010752688172
1.0596285434995112
1.0772238514173995
1.093841642228739
1.1124144672531768
1.1300097751710656
1.141739980449658
1.1485826001955035
1.1534701857282503
1.1573802541544478
1.155425219941349
1.1495601173020529
1.1407624633431086
1.1300097751710656
1.118279569892473
1.1055718475073313
1.0928641251221896
1.0811339198435972
1.0694037145650048
1.0586510263929618
1.050830889540567
1.043010752688172
1.032258064516129
1.0224828934506354
1.0224828934506354
1.0449657869012707
1.1006842619745845
1.2003910068426198
1.3470185728250244
1.5366568914956011
1.7575757575757576
1.9931573802541545
2.2238514173998043
2.4115347018572826
2.5610948191593352
2.697947214076246
2.806451612903226
2.8807429130009776
2.920821114369501
2.929618768328446
2.9120234604105573
2.8719452590420333
2.81622678396872
2.7468230694037143
2.668621700879765
2.593352883675464
2.5190615835777126
2.4389051808406648
2.356793743890518
2.274682306940372
2.1955034213098727
2.118279569892473
2.0449657869012707
1.9745845552297163
1.90811339198436
1.8465298142717497
1.7917888563049853
1.7438905180840665
1.7067448680351909
1.678396871945259
1.6549364613880744
1.6373411534701858
1.624633431085044
1.616813294232649
1.6129032258064515
1.608993157380254
1.6050830889540566
1.6001955034213098
1.5933528836754642
1.58455522971652
1.5757575757575757
1.5650048875855327
1.5503421309872922
1.533724340175953
1.5131964809384164
1.4916911045943304
1.4682306940371457
1.4437927663734116
1.418377321603128
1.3919843597262953
1.3655913978494625
1.3401759530791788
1.3147605083088951
1.295210166177908
1.2795698924731185
1.2619745845552297
1.2443792766373412
1.227761485826002
1.2121212121212122
1.1945259042033236
1.176930596285435
1.1612903225806452
1.1534701857282503
1.1622678396871946
1.1974584555229717
1.252199413489736
1.3362658846529814
1.4682306940371457
1.6412512218963833
1.8455522971652003
2.0635386119257086
2.27761485826002
2.4711632453567938
2.632453567937439
2.7546432062561097
2.8367546432062563
2.8797653958944283
2.8885630498533725
2.8719452590420333
2.835777126099707
2.782013685239492
2.7126099706744866
2.632453567937439
2.544477028347996
2.4516129032258065
2.355816226783969
2.2580645161290325
2.1593352883675463
2.060606060606061
1.962854349951124
1.8778103616813293
1.7986314760508308
1.7116324535679377
1.6226783968719452
1.533724340175953
1.4467253176930597
1.364613880742913
1.289345063538612
1.2218963831867058
1.163245356793744
1.115347018572825
1.0772238514173995
1.0488758553274682
1.032258064516129
1.0254154447702837
1.0224828934506354
1.024437927663734
1.032258064516129
1.0449657869012707
1.0606060606060606
1.0772238514173995
1.0948191593352885
1.1124144672531768
1.1290322580645162
1.1436950146627567
1.1573802541544478
1.1681329423264908
1.1759530791788857
1.1798631476050832
1.1808406647116323
1.1779081133919844
1.1720430107526882
1.164222873900293
1.155425219941349
1.1456500488758554
1.1368523949169111
1.1280547409579669
1.1192570869990224
1.1124144672531768
1.1055718475073313
1.0957966764418376
1.0869990224828934
1.0879765395894427
1.1094819159335287
1.164222873900293
1.2590420332355816
1.3988269794721409
1.5796676441837731
1.7917888563049853
2.0195503421309877
2.217986314760508
2.389051808406647
2.5591397849462365
2.705767350928641
2.8181818181818183
2.89247311827957
2.9286412512218964
2.9315738025415445
2.906158357771261
2.857282502443793
2.789833822091887
2.7096774193548385
2.621700879765396
2.536656891495601
2.453567937438905
2.360703812316716
2.2629521016617797
2.163245356793744
2.06158357771261
1.9589442815249267
1.857282502443793
1.7575757575757576
1.6608015640273706
1.5669599217986314
1.478005865102639
1.404692082111437
1.3411534701857282
1.2756598240469208
1.2150537634408602
1.1622678396871946
1.1192570869990224
1.0879765395894427
1.067448680351906
1.056695992179863
1.0557184750733135
1.0625610948191593
1.075268817204301
1.0928641251221896
1.1133919843597262
1.1348973607038124
1.1573802541544478
1.1798631476050832
1.2003910068426198
1.217008797653959
1.23069403714565
1.2404692082111437
1.24633431085044
1.2473118279569892
1.2443792766373412
1.2375366568914956
1.23069403714565
1.2228739002932552
1.2101661779081134
1.195503421309873
1.1808406647116323
1.166177908113392
1.152492668621701
1.1397849462365592
1.126099706744868
1.1133919843597262
1.1036168132942326
1.1026392961876832
1.1143695014662756
1.1466275659824048
1.2140762463343109
1.3235581622678396
1.478005865102639
1.672531769305963
1.8944281524926687
2.126099706744868
2.350928641251222
2.5513196480938416
2.717497556207233
2.841642228739003
2.9237536656891496
2.962854349951124
2.9687194525904204
2.9501466275659824
2.909090909090909
2.8484848484848486
2.773216031280548
2.687194525904203
2.5943304007820136
2.496578690127077
2.396871945259042
2.297165200391007
2.1974584555229715
2.10850439882698
2.0254154447702835
1.9345063538611929
1.8377321603128052
1.7380254154447703
1.6412512218963833
1.5483870967741935
1.4604105571847508
1.3782991202346042
1.3049853372434017
1.241446725317693
1.1886608015640274
1.1466275659824048
1.1192570869990224
1.1036168132942326
1.0928641251221896
1.0879765395894427
1.0909090909090908
1.099706744868035
1.1133919843597262
1.1300097751710656
1.147605083088954
1.1652003910068427
1.181818181818182
1.1964809384164223
1.2101661779081134
1.2218963831867058
1.2316715542521994
1.2375366568914956
1.2404692082111437
1.2404692082111437
1.2375366568914956
1.23069403714565
1.2209188660801564
1.2101661779081134
1.1994134897360704
1.187683284457478
1.176930596285435
1.1691104594330402
1.164222873900293
1.1573802541544478
1.147605083088954
1.1368523949169111
1.1280547409579669
1.1300097751710656
1.1515151515151516
1.206256109481916
1.3010752688172045
1.4408602150537635
1.6226783968719452
1.8035190615835777
1.986314760508309
2.196480938416422
2.406647116324536
2.595307917888563
2.7497556207233624
2.8641251221896384
2.9374389051808407
2.9716520039100685
2.9716520039100685
2.9423264907135875
2.889540566959922
2.8181818181818183
2.7419354838709675
2.66177908113392
2.5698924731182795
2.4711632453567938
2.36950146627566
2.2668621700879767
2.163245356793744
2.060606060606061
1.959921798631476
1.8602150537634408
1.7634408602150538
1.6686217008797657
1.5884652981427174
1.517106549364614
1.4418377321603129
1.3695014662756595
1.303030303030303
1.2453567937438903
1.1974584555229717
1.1593352883675463
1.1329423264907137
1.1173020527859236
1.110459433040078
1.1124144672531768
1.121212121212121
1.1348973607038124
1.152492668621701
1.1720430107526882
1.1925708699902249
1.2121212121212122
1.2297165200391007
1.2453567937438903
1.2570869990224829
1.2658846529814272
1.2717497556207231
1.2727272727272727
1.270772238514174
1.267839687194526
1.262952101661779
1.252199413489736
1.238514173998045
1.2238514173998043
1.2082111436950147
1.1935483870967742
1.1798631476050832
1.1671554252199414
1.1534701857282503
1.13880742913001
1.1241446725317692
1.1124144672531768
1.10752688172043
1.115347018572825
1.144672531769306
1.2072336265884651
1.310850439882698
1.458455522971652
1.64613880742913
1.8621700879765395
2.089931573802541
2.3118279569892475
2.512218963831867
2.679374389051808
2.795698924731183
2.8699902248289346
2.920821114369501
2.941348973607038
2.932551319648094
2.897360703812317
2.841642228739003
2.7702834799608995
2.686217008797654
2.5943304007820136
2.4975562072336266
2.398826979472141
2.2991202346041058
2.210166177908113
2.1270772238514173
2.0361681329423265
1.9423264907135875
1.8484848484848484
1.7556207233626588
1.664711632453568
1.5757575757575757
1.4916911045943304
1.4134897360703813
1.3440860215053765
1.2834799608993157
1.2394916911045943
1.206256109481916
1.176930596285435
1.1544477028347997
1.1397849462365592
1.1319648093841643
1.1300097751710656
1.1348973607038124
1.1456500488758554
1.160312805474096
1.1779081133919844
1.1964809384164223
1.2160312805474096
1.2355816226783969
1.252199413489736
1.2668621700879763
1.2776148582600195
1.284457478005865
1.2864125122189638
1.2854349951124144
1.2805474095796676
1.2727272727272727
1.2619745845552297
1.249266862170088
1.2355816226783969
1.224828934506354
1.2160312805474096
1.2052785923753666
1.1925708699902249
1.1788856304985338
1.163245356793744
1.1466275659824048
1.1319648093841643
1.126099706744868
1.1397849462365592
1.1837732160312806
1.267839687194526
1.3714565004887584
1.501466275659824
1.6813294232649072
1.89247311827957
2.115347018572825
2.332355816226784
2.525904203323558
2.6852394916911044
2.803519061583578
2.881720430107527
2.920821114369501
2.924731182795699
2.8993157380254155
2.857282502443793
2.801564027370479
2.729227761485826
2.6451612903225805
2.5532746823069403
2.4565004887585533
2.356793743890518
2.2551319648093844
2.1524926686217007
2.0498533724340176
1.9472140762463344
1.844574780058651
1.7556207233626588
1.6744868035190617
1.587487781036168
1.499511241446725
1.414467253176931
1.335288367546432
1.2639296187683284
1.2023460410557183
1.152492668621701
1.1143695014662756
1.0869990224828934
1.0703812316715542
1.0635386119257086
1.0654936461388074
1.0742913000977516
1.0879765395894427
1.1055718475073313
1.126099706744868
1.1485826001955035
1.1710654936461389
1.1935483870967742
1.2140762463343109
1.2326490713587488
1.2473118279569892
1.2570869990224829
1.2639296187683284
1.2668621700879763
1.2649071358748778
1.2580645161290325
1.2473118279569892
1.2346041055718475
1.219941348973607
1.2052785923753666
1.1906158357771262
1.176930596285435
1.1652003910068427
1.1534701857282503
1.1407624633431086
1.130987292277615
1.1241446725317692
1.118279569892473
1.1221896383186705
1.1466275659824048
1.203323558162268
1.300097751710655
1.4389051808406648
1.616813294232649
1.8142717497556209
2.022482893450636
2.233626588465298
2.406647116324536
2.5454545454545454
2.670576735092864
2.766373411534702
2.8269794721407626
2.8533724340175954
2.8484848484848486
2.817204301075269
2.763440860215054
2.6940371456500487
2.6129032258064515
2.5239491691104594
2.429130009775171
2.3421309872922778
2.2580645161290325
2.166177908113392
2.070381231671554
1.9736070381231672
1.8778103616813293
1.782991202346041
1.6911045943304008
1.603128054740958
1.5190615835777126
1.439882697947214
1.3685239491691104
1.313782991202346
1.270772238514174
1.2297165200391007
1.1945259042033236
1.1671554252199414
1.1485826001955035
1.1378299120234605
1.133919843597263
1.1358748778103618
1.1436950146627567
1.155425219941349
1.1691104594330402
1.18475073313783
1.2003910068426198
1.2160312805474096
1.2316715542521994
1.24633431085044
1.2580645161290325
1.2658846529814272
1.2697947214076246
1.2697947214076246
1.2658846529814272
1.2580645161290325
1.24633431085044
1.2326490713587488
1.2209188660801564
1.209188660801564
1.1945259042033236
1.1788856304985338
1.163245356793744
1.147605083088954
1.1319648093841643
1.115347018572825
1.099706744868035
1.0869990224828934
1.0850439882697946
1.1026392961876832
1.152492668621701
1.2228739002932552
1.3235581622678396
1.4760508308895406
1.6705767350928642
1.8934506353861196
2.1251221896383186
2.347996089931574
2.547409579667644
2.7116324535679373
2.833822091886608
2.913978494623656
2.95405669599218
2.9589442815249267
2.936461388074292
2.89247311827957
2.8289345063538613
2.748778103616813
2.658846529814272
2.5610948191593352
2.4574780058651027
2.350928641251222
2.243401759530792
2.134897360703812
2.027370478983382
1.920821114369501
1.8269794721407624
1.7409579667644184
1.6471163245356797
1.5513196480938416
1.457478005865103
1.367546432062561
1.2834799608993157
1.2072336265884651
1.141739980449658
1.086021505376344
1.043010752688172
1.010752688172043
0.9921798631476052
0.9853372434017597
0.9833822091886608
0.9882697947214076
0.9980449657869012
1.0117302052785924
1.0283479960899315
1.04594330400782
1.0635386119257086
1.0811339198435972
1.0977517106549364
1.1124144672531768
1.1251221896383188
1.1358748778103618
1.144672531769306
1.1495601173020529
1.1505376344086022
1.147605083088954
1.1407624633431086
1.1319648093841643
1.121212121212121
1.110459433040078
1.1006842619745845
1.0909090909090908
1.083088954056696
1.0791788856304985
1.0772238514173995
1.072336265884653
1.0654936461388074
1.0576735092864125
1.053763440860215
1.0596285434995112
1.0850439882697946
1.1436950146627567
1.2434017595307918
1.388074291300098
1.5747800586510263
1.7927663734115349
1.994134897360704
2.1808406647116323
2.380254154447703
2.5650048875855327
2.719452590420332
2.8367546432062563
2.913000977517106
2.9501466275659824
2.9530791788856305
2.9257086999022484
2.874877810361681
2.8054740957966766
2.7311827956989245
2.652003910068426
2.5620723362658846
2.4652981427174976
2.364613880742913
2.2629521016617797
2.1593352883675463
2.056695992179863
1.95405669599218
1.8514173998044965
1.7487781036168133
1.6480938416422288
1.563049853372434
1.4887585532746823
1.4105571847507332
1.3343108504398826
1.2658846529814272
1.2072336265884651
1.1593352883675463
1.1231671554252198
1.0987292277614855
1.0840664711632453
1.0772238514173995
1.078201368523949
1.0850439882697946
1.0957966764418376
1.1085043988269794
1.121212121212121
1.133919843597263
1.1456500488758554
1.1534701857282503
1.1573802541544478
1.1583577712609971
1.155425219941349
1.1495601173020529
1.1397849462365592
1.126099706744868
1.1133919843597262
1.1016617790811338
1.0850439882697946
1.064516129032258
1.043010752688172
1.0224828934506354
1.002932551319648
0.9843597262952102
0.9687194525904204
0.9550342130987292
0.9413489736070382
0.9266862170087976
0.9110459433040078
