ppg
1.721407624633431
1.7057673509286413
1.6911045943304008
1.6774193548387095
1.664711632453568
1.651026392961877
1.6363636363636365
1.6217008797653958
1.606060606060606
1.5894428152492668
1.5757575757575757
1.5620723362658846
1.5454545454545454
1.5288367546432062
1.5112414467253177
1.4926686217008798
1.474095796676442
1.4545454545454546
1.4349951124144673
1.41544477028348
1.3949169110459434
1.3743890518084063
1.35386119257087
1.33822091886608
1.3235581622678396
1.3069403714565004
1.2883675464320623
1.2697947214076246
1.2512218963831867
1.2326490713587488
1.2140762463343109
1.1964809384164223
1.1788856304985338
1.1612903225806452
1.144672531769306
1.1329423264907137
1.1231671554252198
1.1114369501466277
1.0987292277614855
1.0879765395894427
1.0791788856304985
1.0694037145650048
1.0606060606060606
1.0527859237536656
1.0449657869012707
1.0361681329423265
1.0283479960899315
1.0254154447702837
1.0234604105571847
1.018572825024438
1.010752688172043
1.0019550342130987
0.9921798631476052
0.981427174975562
0.9706744868035192
0.9579667644183774
0.9452590420332356
0.9315738025415444
0.916911045943304
0.9042033235581622
0.8993157380254154
0.9042033235581622
0.9188660801564028
0.9521016617790812
1.0117302052785924
1.1016617790811338
1.2218963831867058
1.370478983382209
1.5386119257087
1.718475073313783
1.8993157380254155
2.0733137829912023
2.2140762463343107
2.329423264907136
2.441837732160313
2.5434995112414467
2.63049853372434
2.704789833822092
2.766373411534702
2.8181818181818183
2.86217008797654
2.8993157380254155
2.9286412512218964
2.951124144672532
2.964809384164223
2.9667644183773216
2.9579667644183774
2.943304007820137
2.918866080156403
2.8826979472140764
2.835777126099707
2.777126099706745
2.7096774193548385
2.632453567937439
2.549364613880743
2.463343108504399
2.377321603128055
2.302052785923754
2.2355816226783967
2.1710654936461387
2.1114369501466275
2.058651026392962
2.013685239491691
1.9745845552297163
1.9403714565004888
1.9090909090909087
1.8797653958944285
1.8514173998044965
1.8240469208211143
1.7839687194525904
1.7605083088954057
1.7350928641251222
1.6950146627565983
1.6666666666666667
1.6373411534701858
1.6080156402737047
1.5777126099706744
1.547409579667644
1.517106549364614
1.4858260019550342
1.4545454545454546
1.4291300097751711
1.4076246334310851
1.383186705767351
1.3587487781036167
1.3333333333333333
1.3088954056695992
1.2854349951124144
1.2619745845552297
1.2394916911045943
1.2179863147605083
1.1964809384164223
1.166177908113392
1.1485826001955035
1.1358748778103618
1.118279569892473
1.104594330400782
1.0909090909090908
1.078201368523949
1.0654936461388074
1.0527859237536656
1.040078201368524
1.0283479960899315
1.0175953079178883
1.0087976539589445
1.0048875855327468
1.0039100684261977
1.0009775171065494
0.9980449657869012
0.9951124144672532
0.9921798631476052
0.9882697947214076
0.9843597262952102
0.981427174975562
0.9794721407624634
0.9775171065493646
0.9775171065493646
0.978494623655914
0.9833822091886608
0.9833822091886608
0.981427174975562
0.9804496578690128
0.9843597262952102
0.9990224828934506
1.0303030303030305
1.0850439882697946
1.1671554252199414
1.2795698924731185
1.4222873900293256
1.564027370478983
1.710654936461388
1.8856304985337244
2.072336265884653
2.2561094819159337
2.501466275659824
2.6422287390029324
2.7614858260019552
2.902248289345064
2.9716520039100685
3.027370478983382
3.0733137829912023
3.101661779081134
3.1192570869990224
3.136852394916911
3.1515151515151514
3.161290322580645
3.163245356793744
3.155425219941349
3.1378299120234603
3.10850439882698
3.0684261974584555
3.0175953079178885
2.956989247311828
2.8944281524926687
2.8289345063538613
2.757575757575758
2.6832844574780057
2.610948191593353
2.5425219941348973
2.4809384164222874
2.4252199413489737
2.377321603128055
2.3362658846529816
2.300097751710655
2.2668621700879767
2.236559139784946
2.209188660801564
2.182795698924731
2.15347018572825
2.1221896383186705
2.088954056695992
2.053763440860215
2.016617790811339
1.9775171065493649
1.9364613880742916
1.8934506353861196
1.8494623655913975
1.804496578690127
1.7644183773216031
1.726295210166178
1.6813294232649072
1.6334310850439884
1.5835777126099706
1.5317693059628543
1.478983382209189
1.4252199413489737
1.3714565004887584
1.3176930596285434
1.262952101661779
1.2101661779081134
1.1583577712609971
1.1173020527859236
1.083088954056696
1.0439882697947214
1.0048875855327468
0.967741935483871
0.9335288367546432
0.9022482893450636
0.873900293255132
0.8494623655913979
0.8299120234604106
0.8172043010752689
0.8103616813294232
0.8123167155425219
0.823069403714565
0.8396871945259042
0.8641251221896383
0.8983382209188661
0.9423264907135877
0.9951124144672532
1.0557184750733135
1.1231671554252198
1.1945259042033236
1.267839687194526
1.343108504398827
1.409579667644184
1.469208211143695
1.5317693059628543
1.5923753665689149
1.6480938416422288
1.6979472140762464
1.739980449657869
1.7741935483870968
1.801564027370479
1.822091886608016
1.839687194525904
1.8592375366568916
1.8856304985337244
1.9159335288367547
1.9560117302052784
2.0175953079178885
2.096774193548387
2.189638318670577
2.289345063538612
2.389051808406647
2.4809384164222874
2.558162267839687
2.6177908113391983
2.659824046920821
2.684261974584555
2.6930596285435
2.69208211143695
2.6881720430107525
2.6823069403714563
2.67644183773216
2.6715542521994133
2.667644183773216
2.664711632453568
2.66177908113392
2.6578690127077222
2.6510263929618767
2.619745845552297
2.572825024437928
2.5386119257087
2.5083088954056696
2.4750733137829912
2.436950146627566
2.393939393939394
2.347018572825025
2.2981427174975564
2.249266862170088
2.203323558162268
2.1622678396871944
2.1280547409579667
2.101661779081134
2.083088954056696
2.071358748778104
2.065493646138808
2.064516129032258
2.0664711632453567
2.071358748778104
2.0762463343108504
2.0791788856304985
2.081133919843597
2.0791788856304985
2.074291300097752
2.065493646138808
2.0527859237536656
2.0391006842619745
2.0234604105571847
2.005865102639296
1.986314760508309
1.963831867057673
1.9403714565004888
1.9159335288367547
1.889540566959922
1.86119257086999
1.8318670576735088
1.801564027370479
1.7683284457478006
1.737047898338221
1.7067448680351909
1.6686217008797657
1.624633431085044
1.5757575757575757
1.521994134897361
1.4643206256109482
1.4037145650048877
1.343108504398827
1.2834799608993157
1.2258064516129032
1.1720430107526882
1.1231671554252198
1.0869990224828934
1.0586510263929618
1.0283479960899315
0.9990224828934506
0.9726295210166178
0.9491691104594332
0.9286412512218964
0.9100684261974584
0.8934506353861192
0.8797653958944281
0.8670576735092864
0.8572825024437928
0.8533724340175953
0.8533724340175953
0.8514173998044966
0.8484848484848485
0.8455522971652004
0.844574780058651
0.8435972629521017
0.844574780058651
0.8465298142717498
0.8494623655913979
0.8533724340175953
0.8572825024437928
0.8621700879765396
0.8699902248289345
0.8807429130009775
0.8924731182795699
0.9100684261974584
0.9413489736070382
0.9912023460410556
1.0635386119257086
1.1622678396871946
1.2864125122189638
1.43108504398827
1.590420332355816
1.7556207233626588
1.8983382209188664
2.024437927663734
2.1544477028347995
2.275659824046921
2.383186705767351
2.4760508308895406
2.5542521994134897
2.6207233626588464
2.67644183773216
2.724340175953079
2.764418377321604
2.798631476050831
2.8260019550342133
2.8406647116324537
2.8475073313782997
2.8514173998044967
2.850439882697948
2.841642228739003
2.825024437927664
2.80058651026393
2.7673509286412514
2.7253176930596283
2.674486803519061
2.616813294232649
2.5542521994134897
2.4946236559139785
2.436950146627566
2.375366568914956
2.314760508308896
2.259042033235582
2.209188660801564
2.166177908113392
2.1300097751710654
2.099706744868035
2.0733137829912023
2.0498533724340176
2.0283479960899315
2.006842619745845
1.988269794721408
1.970674486803519
1.951124144672532
1.9305962854349952
1.9090909090909087
1.8856304985337244
1.8621700879765395
1.8377321603128052
1.812316715542522
1.7859237536656891
1.7595307917888563
1.7331378299120237
1.7116324535679377
1.6920821114369502
1.6705767350928642
1.6480938416422288
1.6256109481915937
1.6041055718475072
1.5826001955034212
1.5620723362658846
1.542521994134897
1.5249266862170088
1.5083088954056696
1.4916911045943304
1.4760508308895406
1.4652981427174976
1.456500488758553
1.4457478005865103
1.4349951124144673
1.423264907135875
1.412512218963832
1.401759530791789
1.3919843597262953
1.383186705767351
1.3743890518084063
1.3655913978494625
1.3577712609970674
1.35386119257087
1.3509286412512218
1.3470185728250244
1.3411534701857282
1.335288367546432
1.3304007820136852
1.324535679374389
1.3196480938416422
1.3157380254154447
1.3118279569892473
1.3088954056695992
1.3069403714565004
1.3069403714565004
1.3098729227761483
1.3157380254154447
1.3206256109481915
1.3255131964809383
1.3294232649071358
1.3343108504398826
1.3401759530791788
1.3499511241446724
1.367546432062561
1.3978494623655917
1.4457478005865103
1.5151515151515151
1.5923753665689149
1.6803519061583578
1.7956989247311828
1.9296187683284456
2.072336265884653
2.2160312805474094
2.3519061583577714
2.4750733137829912
2.582600195503421
2.6725317693059627
2.745845552297165
2.8044965786901277
2.8426197458455524
2.868035190615836
2.89247311827957
2.913000977517106
2.929618768328446
2.941348973607038
2.949169110459433
2.951124144672532
2.9472140762463344
2.936461388074292
2.917888563049853
2.8914956011730206
2.8563049853372435
2.81622678396872
2.7702834799608995
2.7145650048875853
2.652003910068426
2.5835777126099706
2.5112414467253177
2.436950146627566
2.363636363636364
2.2932551319648096
2.2277614858260018
2.1681329423264906
2.115347018572825
2.072336265884653
2.0361681329423265
2.0019550342130987
1.9687194525904204
1.9374389051808407
1.906158357771261
1.8748778103616808
1.8435972629521016
1.812316715542522
1.780058651026393
1.7468230694037146
1.7135874877810362
1.6803519061583578
1.6520039100684265
1.6265884652981428
1.598240469208211
1.5698924731182795
1.543499511241447
1.5180840664711632
1.495601173020528
1.47702834799609
1.4604105571847508
1.4457478005865103
1.4330400782013686
1.423264907135875
1.4173998044965788
1.4134897360703813
1.4076246334310851
1.401759530791789
1.3949169110459434
1.4203323558162269
1.4613880742913
1.47702834799609
1.478983382209189
1.4731182795698925
1.4613880742913
1.4467253176930597
1.4291300097751711
1.4134897360703813
1.3998044965786902
1.3812316715542523
1.359726295210166
1.3372434017595307
1.3157380254154447
1.295210166177908
1.2756598240469208
1.2580645161290325
1.2434017595307918
1.2316715542521994
1.224828934506354
1.224828934506354
1.2297165200391007
1.2355816226783969
1.2453567937438903
1.2570869990224829
1.2717497556207231
1.2873900293255132
1.3040078201368523
1.3206256109481915
1.3372434017595307
1.35386119257087
1.370478983382209
1.3900293255131966
1.4115347018572826
1.4389051808406648
1.478005865102639
1.5327468230694037
1.607038123167155
1.7008797653958945
1.8132942326490715
1.9393939393939397
2.072336265884653
2.206256109481916
2.334310850439883
2.450635386119257
2.5405669599217986
2.610948191593353
2.677419354838709
2.736070381231672
2.7869012707722387
2.8289345063538613
2.8641251221896384
2.8944281524926687
2.920821114369501
2.943304007820137
2.961876832844575
2.9765395894428157
2.986314760508309
2.986314760508309
2.978494623655914
2.9657869012707723
2.9472140762463344
2.919843597262952
2.8836754643206257
2.8396871945259043
2.7869012707722387
2.7282502443792764
2.664711632453568
2.5992179863147604
2.5347018572825024
2.47702834799609
2.426197458455523
2.376344086021505
2.329423264907136
2.2873900293255134
2.2502443792766376
2.2170087976539588
2.187683284457478
2.160312805474096
2.136852394916911
2.115347018572825
2.096774193548387
2.0791788856304985
2.064516129032258
2.050830889540567
2.035190615835777
2.0195503421309877
2.004887585532747
1.989247311827957
1.9745845552297163
1.959921798631476
1.945259042033236
1.9315738025415443
1.919843597262952
1.9090909090909087
1.8993157380254155
1.8914956011730208
1.8836754643206255
1.8748778103616808
1.866080156402737
1.858260019550342
1.8504398826979471
1.842619745845552
1.8347996089931573
1.8269794721407624
1.8191593352883677
1.8103616813294232
1.7996089931573802
1.790811339198436
1.7820136852394917
1.7712609970674489
1.758553274682307
1.7448680351906158
1.7302052785923754
1.715542521994135
1.699902248289345
1.6852394916911049
1.6705767350928642
1.656891495601173
1.643206256109482
1.632453567937439
1.624633431085044
1.6158357771260996
1.606060606060606
1.5972629521016617
1.5894428152492668
1.5826001955034212
1.576735092864125
1.5708699902248289
1.565982404692082
1.5610948191593352
1.5562072336265884
1.5513196480938416
1.5493646138807429
1.547409579667644
1.543499511241447
1.5395894428152492
1.5395894428152492
1.547409579667644
1.5679374389051808
1.606060606060606
1.6637341153470186
1.7438905180840665
1.8435972629521016
1.9579667644183771
2.064516129032258
2.166177908113392
2.278592375366569
2.388074291300098
2.487781036168133
2.573802541544477
2.6451612903225805
2.701857282502444
2.745845552297165
2.780058651026393
2.8054740957966766
2.8240469208211145
2.8367546432062563
2.841642228739003
2.841642228739003
2.8406647116324537
2.8367546432062563
2.827956989247312
2.814271749755621
2.793743890518084
2.766373411534702
2.7311827956989245
2.6881720430107525
2.638318670576735
2.581622678396872
2.5249266862170088
2.4682306940371457
2.403714565004888
2.335288367546432
2.267839687194526
2.2023460410557183
2.1417399804496577
2.086021505376344
2.0361681329423265
1.9931573802541545
1.9550342130987293
1.920821114369501
1.8934506353861196
1.869012707722385
1.8416422287390029
1.812316715542522
1.7810361681329423
1.7487781036168133
1.7165200391006843
1.6852394916911049
1.653958944281525
1.6236559139784943
1.595307917888563
1.5679374389051808
1.542521994134897
1.5239491691104594
1.509286412512219
1.4936461388074291
1.47702834799609
1.4623655913978495
1.4486803519061584
1.436950146627566
1.426197458455523
1.4164222873900294
1.4076246334310851
1.3998044965786902
1.392961876832845
1.3890518084066472
1.3870967741935485
1.383186705767351
1.3782991202346042
1.3724340175953078
1.3665689149560116
1.3616813294232648
1.3577712609970674
1.3558162267839686
1.3548387096774193
1.3558162267839686
1.3587487781036167
1.3616813294232648
1.367546432062561
1.375366568914956
1.3822091886608017
1.388074291300098
1.393939393939394
1.3988269794721409
1.4027370478983383
1.4066471163245358
1.409579667644184
1.4105571847507332
1.4105571847507332
1.4086021505376345
1.4086021505376345
1.409579667644184
1.4076246334310851
1.4056695992179864
1.4037145650048877
1.4007820136852396
1.396871945259042
1.392961876832845
1.3900293255131966
1.3890518084066472
1.393939393939394
1.409579667644184
1.4408602150537635
1.4819159335288368
1.5386119257087
1.6217008797653958
1.7282502443792769
1.8543499511241448
1.9931573802541545
2.1358748778103616
2.2766373411534704
2.409579667644184
2.5288367546432062
2.634408602150537
2.7223851417399803
2.78494623655914
2.835777126099707
2.8885630498533725
2.9374389051808407
2.981427174975562
3.0175953079178885
3.046920821114369
3.0684261974584555
3.081133919843597
3.086021505376344
3.0821114369501466
3.069403714565005
3.047898338220919
3.018572825024438
2.983382209188661
2.940371456500489
2.8905180840664717
2.832844574780059
2.76930596285435
2.7008797653958942
2.6285434995112413
2.5562072336265884
2.4838709677419355
2.4144672531769307
2.3499511241446727
2.2961876832844577
2.2502443792766376
2.207233626588465
2.1681329423264906
2.131964809384164
2.0987292277614857
2.0664711632453567
2.035190615835777
2.002932551319648
1.9687194525904204
1.9335288367546437
1.895405669599218
1.855327468230694
1.8201368523949168
1.7878787878787878
1.7517106549364614
1.7135874877810362
1.675464320625611
1.6373411534701858
1.5992179863147604
1.5620723362658846
1.525904203323558
1.490713587487781
1.457478005865103
1.4242424242424243
1.396871945259042
1.3724340175953078
1.3440860215053765
1.3128054740957966
1.281524926686217
1.249266862170088
1.2179863147605083
1.187683284457478
1.1583577712609971
1.1300097751710656
1.1026392961876832
1.0772238514173995
1.0547409579667644
1.0391006842619743
1.0273704789833822
1.0127077223851415
0.9980449657869012
0.9843597262952102
0.9716520039100685
0.959921798631476
0.9491691104594332
0.9403714565004888
0.9345063538611924
0.9296187683284456
0.927663734115347
0.9296187683284456
0.9335288367546432
0.9374389051808406
0.9413489736070382
0.946236559139785
0.9530791788856304
0.9608993157380256
0.9706744868035192
0.9824046920821116
0.9951124144672532
1.007820136852395
1.0205278592375366
1.032258064516129
1.0449657869012707
1.0596285434995112
1.0772238514173995
1.1036168132942326
1.1436950146627567
1.2043010752688172
1.2883675464320623
1.3978494623655917
1.5317693059628543
1.683284457478006
1.8455522971652003
2.0097751710654936
2.1485826001955037
2.2668621700879767
2.386119257086999
2.493646138807429
2.5855327468230693
2.6608015640273703
2.721407624633431
2.76930596285435
2.807429130009776
2.838709677419355
2.8641251221896384
2.884652981427175
2.900293255131965
2.906158357771261
2.9042033235581624
2.900293255131965
2.89247311827957
2.878787878787879
2.8563049853372435
2.825024437927664
2.78494623655914
2.736070381231672
2.679374389051808
2.6158357771261
2.548387096774193
2.484848484848485
2.4242424242424243
2.360703812316716
2.2991202346041058
2.242424242424242
2.1915933528836757
2.146627565982405
2.10752688172043
2.0733137829912023
2.042033235581622
2.013685239491691
1.9853372434017595
1.9608993157380252
1.9374389051808407
1.9100684261974583
1.881720430107527
1.8523949169110456
1.822091886608016
1.7927663734115349
1.7634408602150538
1.7341153470185728
1.7057673509286413
1.678396871945259
1.6520039100684265
1.6265884652981428
1.606060606060606
1.587487781036168
1.5650048875855327
1.5386119257087
1.5102639296187683
1.4809384164222874
1.4506353861192571
1.4213098729227762
1.392961876832845
1.367546432062561
1.3450635386119256
1.3255131964809383
1.3128054740957966
1.3040078201368523
1.2932551319648091
1.281524926686217
1.270772238514174
1.260019550342131
1.2502443792766371
1.2404692082111437
1.23069403714565
1.2209188660801564
1.2121212121212122
1.2023460410557183
1.1935483870967742
1.1886608015640274
1.1857282502443791
1.181818181818182
1.1788856304985338
1.176930596285435
1.1759530791788857
1.176930596285435
1.1788856304985338
1.1798631476050832
1.1808406647116323
1.1827956989247312
1.18475073313783
1.1896383186705768
1.195503421309873
1.2003910068426198
1.2052785923753666
1.2121212121212122
1.2218963831867058
1.2355816226783969
1.2570869990224829
1.2883675464320623
1.335288367546432
1.4027370478983383
1.4946236559139785
1.6099706744868034
1.7272727272727273
1.8504398826979471
2.0009775171065494
2.164222873900293
2.329423264907136
2.486803519061584
2.6285434995112413
2.752688172043011
2.8582600195503423
2.9442815249266863
3.0146627565982405
3.072336265884653
3.1114369501466275
3.1388074291300097
3.16911045943304
3.198435972629521
3.2248289345063537
3.24633431085044
3.2629521016617797
3.271749755620724
3.271749755620724
3.26197458455523
3.242424242424242
3.212121212121212
3.172043010752688
3.1251221896383186
3.0733137829912023
3.013685239491691
2.9501466275659824
2.8826979472140764
2.814271749755621
2.747800586510264
2.6832844574780057
2.6236559139784945
2.567937438905181
2.5161290322580645
2.4672531769305963
2.423264907135875
2.3812316715542523
2.337243401759531
2.291300097751711
2.243401759530792
2.1925708699902247
2.1407624633431084
2.0879765395894427
2.0361681329423265
1.9853372434017595
1.9374389051808407
1.8914956011730208
1.8484848484848484
1.8132942326490715
1.782991202346041
1.750733137829912
1.7194525904203324
1.6881720430107527
1.651026392961877
1.6109481915933528
1.5796676441837731
1.5513196480938416
1.525904203323558
1.5024437927663734
1.479960899315738
1.4633431085043989
1.4486803519061584
1.4330400782013686
1.418377321603128
1.4037145650048877
1.391006842619746
1.380254154447703
1.370478983382209
1.3626588465298142
1.356793743890518
1.3528836754643203
1.3509286412512218
1.3509286412512218
1.35386119257087
1.3577712609970674
1.3616813294232648
1.3665689149560116
1.3724340175953078
1.3782991202346042
1.383186705767351
1.388074291300098
1.3919843597262953
1.3958944281524928
1.3988269794721409
1.4007820136852396
1.4027370478983383
1.404692082111437
1.4056695992179864
1.4056695992179864
1.404692082111437
1.4037145650048877
1.4027370478983383
1.401759530791789
1.4007820136852396
1.3998044965786902
1.4007820136852396
1.4056695992179864
1.418377321603128
1.4389051808406648
1.469208211143695
1.5180840664711632
1.585532746823069
1.6695992179863148
1.7683284457478006
1.8758553274682308
1.9853372434017595
2.090909090909091
2.1867057673509285
2.270772238514174
2.3421309872922778
2.3929618768328447
2.429130009775171
2.462365591397849
2.490713587487781
2.5141739980449658
2.533724340175953
2.549364613880743
2.5620723362658846
2.570869990224829
2.576735092864125
2.578690127077224
2.5777126099706744
2.5718475073313782
2.5610948191593352
2.5454545454545454
2.5249266862170088
2.498533724340176
2.466275659824047
2.4281524926686218
2.383186705767351
2.335288367546432
2.283479960899316
2.23069403714565
2.177908113391984
2.1270772238514173
2.0840664711632453
2.04594330400782
2.007820136852395
1.9736070381231672
1.9423264907135875
1.9149560117302051
1.8914956011730208
1.870967741935484
1.8533724340175952
1.8387096774193548
1.826001955034213
1.8142717497556209
1.801564027370479
1.7888563049853372
1.7761485826001957
1.7605083088954057
1.7438905180840665
1.7253176930596286
1.7057673509286413
1.686217008797654
1.6656891495601174
1.6451612903225807
1.624633431085044
1.6041055718475072
1.5835777126099706
1.565982404692082
1.5503421309872922
1.5327468230694037
1.5141739980449658
1.4965786901270772
1.4809384164222874
1.466275659824047
1.4535679374389052
1.4418377321603129
1.43108504398827
1.4213098729227762
1.4115347018572826
1.404692082111437
1.3978494623655917
1.3890518084066472
1.3792766373411536
1.367546432062561
1.3548387096774193
1.3411534701857282
1.3264907135874875
1.310850439882698
1.295210166177908
1.2776148582600195
1.260019550342131
1.2424242424242424
1.2287390029325511
1.217008797653959
1.2023460410557183
1.1857282502443791
1.1691104594330402
1.152492668621701
1.1358748778103618
1.1202346041055715
1.104594330400782
1.088954056695992
1.0742913000977516
1.0596285434995112
1.0498533724340176
1.043010752688172
1.0332355816226784
1.0234604105571847
1.0175953079178883
1.0205278592375366
1.0361681329423265
1.0684261974584557
1.1221896383186705
1.198435972629521
1.2961876832844574
1.4115347018572826
1.5395894428152492
1.6549364613880744
1.7605083088954057
1.8729227761485825
1.9804496578690127
2.0762463343108504
2.158357771260997
2.2267839687194524
2.2825024437927666
2.3284457478005867
2.366568914956012
2.3978494623655915
2.4242424242424243
2.4408602150537635
2.4516129032258065
2.462365591397849
2.4701857282502444
2.4731182795698925
2.4711632453567938
2.462365591397849
2.44672531769306
2.423264907135875
2.391006842619746
2.350928641251222
2.303030303030303
2.249266862170088
2.196480938416422
2.1436950146627565
2.083088954056696
2.0195503421309877
1.956989247311828
1.8973607038123168
1.842619745845552
1.7927663734115349
1.747800586510264
