ppg
1.1583577712609971
1.152492668621701
1.1466275659824048
1.1397849462365592
1.1329423264907137
1.126099706744868
1.1192570869990224
1.1133919843597262
1.10752688172043
1.1016617790811338
1.0987292277614855
1.0987292277614855
1.096774193548387
1.093841642228739
1.0909090909090908
1.0879765395894427
1.0850439882697946
1.0821114369501466
1.0801564027370478
1.078201368523949
1.0772238514173995
1.075268817204301
1.0742913000977516
1.075268817204301
1.0772238514173995
1.0772238514173995
1.0772238514173995
1.078201368523949
1.0811339198435972
1.0879765395894427
1.1006842619745845
1.1241446725317692
1.1612903225806452
1.2150537634408602
1.2864125122189638
1.3626588465298142
1.4467253176930597
1.5513196480938416
1.6695992179863148
1.7956989247311828
1.9227761485826005
2.046920821114369
2.1652003910068425
2.2737047898338223
2.372434017595308
2.4613880742913
2.539589442815249
2.6080156402737047
2.658846529814272
2.697947214076246
2.7390029325513194
2.779081133919844
2.81622678396872
2.8484848484848486
2.875855327468231
2.895405669599218
2.9071358748778104
2.9100684261974585
2.9071358748778104
2.8944281524926687
2.868035190615836
2.83088954056696
2.782013685239492
2.724340175953079
2.658846529814272
2.589442815249267
2.5161290322580645
2.443792766373412
2.3734115347018574
2.30791788856305
2.2482893450635384
2.1955034213098727
2.1495601173020527
2.1114369501466275
2.0791788856304985
2.048875855327468
2.0195503421309877
1.991202346041056
1.963831867057673
1.9364613880742916
1.9090909090909087
1.881720430107527
1.8543499511241448
1.826001955034213
1.796676441837732
1.76930596285435
1.7419354838709675
1.7096774193548387
1.6735092864125125
1.6363636363636365
1.5992179863147604
1.563049853372434
1.5298142717497556
1.499511241446725
1.474095796676442
1.4535679374389052
1.4389051808406648
1.4301075268817205
1.4252199413489737
1.4222873900293256
1.4203323558162269
1.4193548387096775
1.4173998044965788
1.41544477028348
1.412512218963832
1.4066471163245358
1.3988269794721409
1.3890518084066472
1.3773216031280548
1.3636363636363635
1.3519061583577712
1.3411534701857282
1.3284457478005864
1.3147605083088951
1.3010752688172045
1.289345063538612
1.278592375366569
1.2697947214076246
1.2619745845552297
1.2551319648093842
1.2502443792766371
1.2453567937438903
1.2424242424242424
1.2404692082111437
1.2365591397849462
1.23069403714565
1.2228739002932552
1.2150537634408602
1.2082111436950147
1.2023460410557183
1.1974584555229717
1.195503421309873
1.1945259042033236
1.195503421309873
1.1974584555229717
1.2013685239491692
1.2072336265884651
1.2111436950146628
1.2150537634408602
1.2179863147605083
1.2209188660801564
1.2238514173998043
1.2287390029325511
1.2355816226783969
1.2482893450635386
1.2697947214076246
1.3040078201368523
1.3450635386119256
1.3978494623655917
1.4721407624633431
1.565982404692082
1.6774193548387095
1.801564027370479
1.9345063538611929
2.070381231671554
2.204301075268817
2.332355816226784
2.452590420332356
2.563049853372434
2.662756598240469
2.73802541544477
2.798631476050831
2.86217008797654
2.9237536656891496
2.9804496578690127
3.03128054740958
3.0762463343108504
3.115347018572825
3.147605083088954
3.1730205278592374
3.1915933528836757
3.2023460410557183
3.19941348973607
3.185728250244379
3.1652003910068425
3.1358748778103616
3.0957966764418376
3.046920821114369
2.989247311827957
2.9237536656891496
2.854349951124145
2.782991202346041
2.7126099706744866
2.6451612903225805
2.581622678396872
2.5268817204301075
2.4789833822091887
2.4330400782013686
2.391006842619746
2.3528836754643208
2.315738025415445
2.280547409579668
2.247311827956989
2.21505376344086
2.1818181818181817
2.1485826001955037
2.114369501466276
2.083088954056696
2.0527859237536656
2.0205278592375366
1.986314760508309
1.9521016617790807
1.9178885630498532
1.884652981427175
1.8523949169110456
1.8211143695014664
1.790811339198436
1.761485826001955
1.7331378299120237
1.7067448680351909
1.6852394916911049
1.6656891495601174
1.6451612903225807
1.624633431085044
1.6050830889540566
1.5865102639296187
1.5698924731182795
1.555229716520039
1.542521994134897
1.530791788856305
1.521016617790811
1.5112414467253177
1.5034213098729228
1.495601173020528
1.4858260019550342
1.4760508308895406
1.4643206256109482
1.4516129032258065
1.4379276637341154
1.4242424242424243
1.4105571847507332
1.3978494623655917
1.3861192570869991
1.375366568914956
1.364613880742913
1.356793743890518
1.3499511241446724
1.343108504398827
1.3372434017595307
1.3313782991202343
1.3264907135874875
1.3225806451612905
1.3186705767350928
1.3157380254154447
1.3128054740957966
1.3098729227761483
1.3069403714565004
1.305962854349951
1.305962854349951
1.3040078201368523
1.3010752688172045
1.2971652003910068
1.2932551319648091
1.2883675464320623
1.284457478005865
1.2805474095796676
1.2776148582600195
1.2776148582600195
1.2825024437927663
1.2961876832844574
1.316715542521994
1.3479960899315735
1.396871945259042
1.4643206256109482
1.5493646138807429
1.651026392961877
1.7663734115347018
1.8905180840664717
2.018572825024438
2.146627565982405
2.269794721407625
2.3841642228739004
2.4750733137829912
2.550342130987292
2.6285434995112413
2.702834799608993
2.7702834799608995
2.83088954056696
2.8836754643206257
2.927663734115347
2.962854349951124
2.9872922776148583
3.0019550342130987
3.005865102639296
2.9980449657869013
2.978494623655914
2.9501466275659824
2.9120234604105573
2.8641251221896384
2.806451612903226
2.7390029325513194
2.6637341153470184
2.582600195503421
2.4995112414467253
2.418377321603128
2.3411534701857284
2.270772238514174
2.2140762463343107
2.16911045943304
2.131964809384164
2.103616813294233
2.085043988269794
2.0733137829912023
2.065493646138808
2.059628543499511
2.0518084066471163
2.040078201368524
2.022482893450636
2.0
1.9716520039100685
1.943304007820137
1.9130009775171064
1.87683284457478
1.8377321603128052
1.7458455522971652
1.6285434995112416
1.547409579667644
1.4858260019550342
1.4349951124144673
1.3900293255131966
1.348973607038123
1.3118279569892473
1.2834799608993157
1.2619745845552297
1.2404692082111437
1.2209188660801564
1.2043010752688172
1.1906158357771262
1.1779081133919844
1.164222873900293
1.1515151515151516
1.13880742913001
1.1251221896383188
1.110459433040078
1.0987292277614855
1.0869990224828934
1.0713587487781036
1.0527859237536656
1.0332355816226784
1.0127077223851415
0.9921798631476052
0.9736070381231672
0.9550342130987292
0.9374389051808406
0.9208211143695014
0.9042033235581622
0.8885630498533724
0.8787878787878788
0.8719452590420332
0.8621700879765396
0.8514173998044966
0.8406647116324536
0.8318670576735093
0.8240469208211144
0.8162267839687195
0.8093841642228738
0.8025415444770283
0.7947214076246334
0.7859237536656891
0.7810361681329423
0.7761485826001955
0.7673509286412512
0.7546432062561095
0.7409579667644184
0.7262952101661779
0.7106549364613881
0.6959921798631477
0.6832844574780058
0.6754643206256109
0.6735092864125122
0.6793743890518084
0.696969696969697
0.7243401759530792
0.7644183773216031
0.8220918866080157
0.8973607038123167
0.9902248289345064
1.0977517106549364
1.2160312805474096
1.3411534701857282
1.4682306940371457
1.5923753665689149
1.7096774193548387
1.8191593352883677
1.906158357771261
1.9775171065493649
2.050830889540567
2.121212121212121
2.1867057673509285
2.247311827956989
2.303030303030303
2.3548387096774195
2.4027370478983383
2.4457478005865103
2.482893450635386
2.515151515151515
2.539589442815249
2.5513196480938416
2.5532746823069403
2.549364613880743
2.5376344086021505
2.517106549364614
2.487781036168133
2.4486803519061584
2.40078201368524
2.346041055718475
2.2873900293255134
2.2267839687194524
2.166177908113392
2.1114369501466275
2.0625610948191597
2.013685239491691
1.967741935483871
1.924731182795699
1.8836754643206255
1.8455522971652003
1.8093841642228736
1.7741935483870968
1.739980449657869
1.7057673509286413
1.672531769305963
1.6392961876832846
1.6099706744868034
1.5835777126099706
1.555229716520039
1.5249266862170088
1.4946236559139785
1.4643206256109482
1.4330400782013686
1.401759530791789
1.370478983382209
1.3401759530791788
1.310850439882698
1.2825024437927663
1.2580645161290325
1.2365591397849462
1.2121212121212122
1.1867057673509287
1.160312805474096
1.1348973607038124
1.1094819159335287
1.0850439882697946
1.06158357771261
1.0391006842619743
1.0175953079178883
0.9960899315738024
0.9745845552297164
0.9579667644183774
0.9433040078201368
0.9237536656891496
0.9032258064516128
0.8807429130009775
0.8582600195503421
0.8357771260997068
0.8142717497556208
0.7947214076246334
0.7761485826001955
0.7595307917888563
0.7448680351906158
0.7350928641251222
0.7282502443792767
0.7194525904203324
0.7096774193548387
0.7008797653958945
0.6940371456500489
0.6901270772238515
0.6891495601173021
0.6911045943304008
0.6950146627565983
0.7018572825024438
0.7096774193548387
0.718475073313783
0.7282502443792767
0.7390029325513197
0.7468230694037146
0.7526881720430108
0.7565982404692082
0.7605083088954057
0.7644183773216031
0.7702834799608993
0.7800586510263929
0.7976539589442815
0.8269794721407625
0.8719452590420332
0.9247311827956988
0.9872922776148584
1.0713587487781036
1.1759530791788857
1.295210166177908
1.4252199413489737
1.5610948191593352
1.6989247311827955
1.835777126099707
1.967741935483871
2.0928641251221896
2.2082111436950145
2.313782991202346
2.396871945259042
2.4652981427174976
2.535679374389052
2.603128054740958
2.665689149560117
2.7223851417399803
2.7722385141739982
2.814271749755621
2.8484848484848486
2.873900293255132
2.8905180840664717
2.897360703812317
2.8905180840664717
2.873900293255132
2.850439882697948
2.817204301075269
2.773216031280548
2.718475073313783
2.653958944281525
2.582600195503421
2.506353861192571
2.4271749755620724
2.347018572825025
2.2688172043010755
2.193548387096774
2.129032258064516
2.071358748778104
2.013685239491691
1.9579667644183771
1.905180840664712
1.8543499511241448
1.8054740957966764
1.7565982404692082
1.7086999022482894
1.6598240469208212
1.6109481915933528
1.5620723362658846
1.517106549364614
1.4750733137829912
1.4281524926686218
1.3782991202346042
1.327468230694037
1.2766373411534702
1.227761485826002
1.181818181818182
1.13880742913001
1.099706744868035
1.0635386119257086
1.0312805474095796
1.002932551319648
0.981427174975562
0.9648093841642228
0.9452590420332356
0.9257086999022482
0.9051808406647116
0.8836754643206256
0.863147605083089
0.8426197458455523
0.8211143695014663
0.7996089931573802
0.7771260997067448
0.7546432062561095
0.7390029325513197
0.7253176930596286
0.70772238514174
0.6901270772238515
0.6725317693059628
0.6549364613880743
0.6383186705767351
0.9706744868035192
0.9736070381231672
0.9833822091886608
1.002932551319648
1.0361681329423265
1.0772238514173995
1.1300097751710656
1.2003910068426198
1.2864125122189638
1.3861192570869991
1.4936461388074291
1.606060606060606
1.7194525904203324
1.8299120234604105
1.9345063538611929
2.03128054740958
2.120234604105572
2.20039100684262
2.26197458455523
2.312805474095797
2.3655913978494625
2.4164222873900294
2.463343108504399
2.504398826979472
2.5405669599217986
2.570869990224829
2.595307917888563
2.613880742913001
2.625610948191593
2.6285434995112413
2.6207233626588464
2.6050830889540566
2.581622678396872
2.549364613880743
2.5083088954056696
2.4594330400782014
2.403714565004888
2.3440860215053765
2.2825024437927666
2.219941348973607
2.1593352883675463
2.102639296187683
2.0518084066471163
2.0097751710654936
1.9736070381231672
1.9393939393939397
1.90811339198436
1.8797653958944285
1.8523949169110456
1.826001955034213
1.8005865102639296
1.775171065493646
1.7487781036168133
1.7223851417399805
1.6950146627565983
1.6715542521994136
1.6500488758553276
1.624633431085044
1.5972629521016617
1.5698924731182795
1.541544477028348
1.5131964809384164
1.4858260019550342
1.4594330400782014
1.4330400782013686
1.4086021505376345
1.3861192570869991
1.364613880742913
1.3479960899315735
1.3343108504398826
1.3176930596285434
1.3010752688172045
1.2854349951124144
1.2697947214076246
1.2551319648093842
1.2404692082111437
1.227761485826002
1.217008797653959
1.2072336265884651
1.1974584555229717
1.1915933528836755
1.187683284457478
1.181818181818182
1.1749755620723363
1.1681329423264908
1.160312805474096
1.1534701857282503
1.1466275659824048
1.141739980449658
1.1368523949169111
1.1319648093841643
1.1270772238514175
1.1221896383186705
1.1202346041055715
1.1202346041055715
1.1173020527859236
1.1143695014662756
1.1114369501466277
1.1085043988269794
1.1055718475073313
1.1036168132942326
1.1006842619745845
1.096774193548387
1.093841642228739
1.0909090909090908
1.0918866080156402
1.093841642228739
1.093841642228739
1.0918866080156402
1.088954056695992
1.086021505376344
1.0840664711632453
1.083088954056696
1.086021505376344
1.0957966764418376
1.115347018572825
1.147605083088954
1.195503421309873
1.249266862170088
1.3128054740957966
1.3949169110459434
1.4916911045943304
1.598240469208211
1.7096774193548387
1.822091886608016
1.932551319648094
2.037145650048876
2.133919843597263
2.2218963831867056
2.3010752688172045
2.361681329423265
2.410557184750733
2.4613880742913
2.509286412512219
2.5532746823069403
2.593352883675464
2.6285434995112413
2.658846529814272
2.6832844574780057
2.7008797653958942
2.7116324535679373
2.7145650048875853
2.708699902248289
2.6930596285435
2.6695992179863146
2.6373411534701856
2.5972629521016617
2.549364613880743
2.495601173020528
2.4379276637341154
2.378299120234604
2.318670576735093
2.260997067448681
2.2082111436950145
2.1593352883675463
2.1192570869990224
2.085043988269794
2.0518084066471163
2.021505376344086
1.994134897360704
1.967741935483871
1.9423264907135875
1.916911045943304
1.8914956011730208
1.865102639296188
1.8377321603128052
1.8093841642228736
1.780058651026393
1.7546432062561097
1.7302052785923754
1.7028347996089932
1.6744868035190617
1.6451612903225807
1.616813294232649
1.5894428152492668
1.5620723362658846
1.5366568914956011
1.512218963831867
1.4887585532746823
1.466275659824047
1.4486803519061584
1.434017595307918
1.4173998044965788
1.3998044965786902
1.383186705767351
1.3665689149560116
1.3509286412512218
1.335288367546432
1.3206256109481915
1.3069403714565004
1.2932551319648091
1.281524926686217
1.2727272727272727
1.267839687194526
1.2609970674486803
1.2541544477028348
1.2482893450635386
1.2424242424242424
1.2375366568914956
1.2326490713587488
1.2287390029325511
1.2258064516129032
1.2228739002932552
1.2189638318670577
1.2150537634408602
1.2140762463343109
1.2150537634408602
1.2130987292277615
1.2111436950146628
1.2082111436950147
1.2052785923753666
1.2023460410557183
1.1994134897360704
1.1964809384164223
1.1935483870967742
1.1906158357771262
1.187683284457478
1.187683284457478
1.1886608015640274
1.187683284457478
1.1857282502443791
1.1837732160312806
1.181818181818182
1.1788856304985338
1.176930596285435
1.176930596285435
1.181818181818182
1.1925708699902249
1.2121212121212122
1.2443792766373412
1.2834799608993157
1.332355816226784
1.3988269794721409
1.4819159335288368
1.5786901270772238
1.7223851417399805
1.8944281524926687
2.0449657869012707
2.1808406647116323
2.304985337243402
2.4173998044965788
2.5180840664711632
2.595307917888563
2.6578690127077222
2.720430107526881
2.780058651026393
2.834799608993157
2.8836754643206257
2.9257086999022484
2.961876832844575
2.991202346041056
3.0146627565982405
3.0303030303030303
3.0361681329423265
3.0332355816226784
3.0195503421309877
2.9960899315738025
2.963831867057673
2.9227761485826003
2.8729227761485827
2.8152492668621703
2.7517106549364616
2.6852394916911044
2.618768328445748
2.5542521994134897
2.493646138807429
2.4389051808406648
2.3929618768328447
2.35386119257087
2.315738025415445
2.280547409579668
2.2482893450635384
2.2170087976539588
2.185728250244379
2.155425219941349
2.126099706744868
2.0948191593352883
2.0635386119257086
2.03128054740958
1.9980449657869013
1.9687194525904204
1.9413489736070384
1.9100684261974583
1.8778103616813293
1.844574780058651
1.812316715542522
1.7810361681329423
1.7497556207233629
1.7204301075268815
1.6930596285434996
1.6666666666666667
1.6412512218963833
1.6217008797653958
1.6050830889540566
1.587487781036168
1.56891495601173
1.5513196480938416
1.533724340175953
1.517106549364614
1.499511241446725
1.482893450635386
1.4672531769305963
1.4516129032258065
1.436950146627566
1.4242424242424243
1.41544477028348
1.4086021505376345
1.3998044965786902
1.391006842619746
1.3822091886608017
1.3743890518084063
1.3665689149560116
1.3587487781036167
1.3509286412512218
1.3440860215053765
1.33822091886608
1.332355816226784
1.3294232649071358
1.3284457478005864
1.3255131964809383
1.3206256109481915
1.3157380254154447
1.310850439882698
1.305962854349951
1.3010752688172045
1.2971652003910068
1.2942326490713587
1.29227761485826
1.2903225806451613
1.2883675464320623
1.289345063538612
1.2913000977517106
1.2913000977517106
1.2903225806451613
1.2873900293255132
1.284457478005865
1.2825024437927663
1.2805474095796676
1.2795698924731185
1.2825024437927663
1.2932551319648091
1.313782991202346
1.3421309872922775
1.3822091886608017
1.4408602150537635
1.520039100684262
1.616813294232649
1.7282502443792769
1.8523949169110456
1.9824046920821117
2.114369501466276
2.242424242424242
2.364613880742913
2.4789833822091887
2.5835777126099706
2.664711632453568
2.730205278592375
2.7976539589442817
2.86217008797654
2.920821114369501
2.973607038123167
3.021505376344086
3.0635386119257086
3.099706744868035
3.1300097751710654
3.1524926686217007
3.166177908113392
3.167155425219941
3.157380254154448
3.1417399804496577
3.1163245356793743
3.081133919843597
3.035190615835777
2.978494623655914
2.9149560117302054
2.844574780058651
2.7722385141739982
2.6989247311827955
2.627565982404692
2.560117302052786
2.5034213098729228
2.453567937438905
2.4056695992179864
2.361681329423265
2.321603128054741
2.2854349951124147
2.2521994134897363
2.220918866080156
2.190615835777126
2.160312805474096
2.1300097751710654
2.0987292277614857
2.071358748778104
2.0439882697947214
2.0127077223851417
1.9794721407624636
1.945259042033236
1.911045943304008
1.8748778103616808
1.8387096774193548
1.801564027370479
1.7653958944281525
1.7311827956989247
1.6979472140762464
1.6666666666666667
1.6412512218963833
1.619745845552297
1.5962854349951123
1.5728250244379276
1.5513196480938416
1.5298142717497556
1.509286412512219
1.490713587487781
1.474095796676442
1.4594330400782014
1.4457478005865103
1.434017595307918
1.426197458455523
1.4203323558162269
1.4115347018572826
1.4007820136852396
1.391006842619746
1.3812316715542523
1.3714565004887584
1.3616813294232648
1.3528836754643203
1.3450635386119256
1.3372434017595307
1.3313782991202343
1.3284457478005864
1.3264907135874875
1.3225806451612905
1.3176930596285434
1.3118279569892473
1.3049853372434017
1.2981427174975562
1.29227761485826
1.2873900293255132
1.2825024437927663
1.278592375366569
1.2746823069403714
1.270772238514174
1.270772238514174
1.2727272727272727
1.273704789833822
1.273704789833822
1.2727272727272727
1.2717497556207231
1.2697947214076246
1.2688172043010753
1.2668621700879763
1.2649071358748778
1.262952101661779
1.262952101661779
1.267839687194526
1.278592375366569
1.2961876832844574
1.3255131964809383
1.3695014662756595
1.4320625610948192
1.5141739980449658
1.6129032258064515
1.726295210166178
1.8514173998044965
1.9824046920821117
2.114369501466276
2.242424242424242
2.3489736070381237
2.439882697947214
2.535679374389052
2.627565982404692
2.7116324535679373
2.7869012707722387
2.854349951124145
2.9149560117302054
2.9687194525904204
3.016617790811339
3.058651026392962
3.093841642228739
3.115347018572825
3.1280547409579667
3.1388074291300097
3.1436950146627565
3.139784946236559
3.126099706744868
3.1006842619745845
3.0635386119257086
3.016617790811339
2.960899315738025
2.8963831867057674
2.8269794721407626
2.704789833822092
2.563049853372434
2.462365591397849
2.3792766373411536
2.30791788856305
2.24633431085044
2.193548387096774
2.147605083088954
2.10752688172043
2.071358748778104
2.037145650048876
2.002932551319648
1.9696969696969695
1.9393939393939397
1.9100684261974583
1.8778103616813293
1.8435972629521016
1.8074291300097751
1.7712609970674489
1.7341153470185728
1.696969696969697
1.6588465298142718
1.6217008797653958
1.585532746823069
1.5503421309872922
1.517106549364614
1.4897360703812317
1.4652981427174976
1.4389051808406648
1.4115347018572826
1.3841642228739004
1.3587487781036167
1.3343108504398826
1.310850439882698
1.289345063538612
1.2697947214076246
1.2512218963831867
1.2346041055718475
1.2238514173998043
1.2160312805474096
1.206256109481916
1.195503421309873
1.1837732160312806
1.1720430107526882
1.160312805474096
1.1485826001955035
1.1368523949169111
1.1270772238514175
1.1192570869990224
1.1114369501466277
1.1036168132942326
1.099706744868035
1.0977517106549364
1.093841642228739
1.0879765395894427
1.0821114369501466
1.0772238514173995
1.0713587487781036
1.0664711632453567
1.06158357771261
1.0576735092864125
1.053763440860215
1.050830889540567
1.050830889540567
1.053763440860215
1.0557184750733135
1.0576735092864125
1.0606060606060606
1.0654936461388074
1.072336265884653
1.0801564027370478
1.0899315738025417
1.1026392961876832
1.1173020527859236
1.133919843597263
1.1505376344086022
1.1681329423264908
1.1867057673509287
1.2072336265884651
1.23069403714565
1.260019550342131
1.2981427174975562
1.348973607038123
1.4164222873900294
1.5024437927663734
1.606060606060606
1.726295210166178
1.858260019550342
1.978494623655914
2.090909090909091
2.2170087976539588
2.3440860215053765
2.466275659824047
2.576735092864125
2.675464320625611
2.7614858260019552
2.834799608993157
2.898338220918866
2.952101661779081
2.99902248289345
3.0391006842619745
3.0664711632453567
3.085043988269794
3.1055718475073317
3.124144672531769
3.136852394916911
3.1417399804496577
3.136852394916911
3.121212121212121
3.0928641251221896
3.0518084066471163
2.9980449657869013
2.9335288367546437
2.8670576735092865
2.798631476050831
2.724340175953079
2.6480938416422286
2.573802541544477
2.504398826979472
2.4408602150537635
2.3841642228739004
2.334310850439883
2.291300097751711
2.2521994134897363
2.2160312805474094
2.182795698924731
2.15347018572825
2.126099706744868
2.096774193548387
2.065493646138808
2.0332355816226784
2.0
1.964809384164223
1.9286412512218964
1.8914956011730208
1.8533724340175952
1.81524926686217
1.7761485826001957
1.7419354838709675
1.710654936461388
1.675464320625611
1.6392961876832846
1.6021505376344083
1.565982404692082
1.5298142717497556
1.495601173020528
1.4623655913978495
1.4301075268817205
1.3998044965786902
1.370478983382209
1.3470185728250244
1.3264907135874875
1.3040078201368523
1.2805474095796676
1.2570869990224829
1.2346041055718475
1.2140762463343109
1.1945259042033236
1.176930596285435
1.1612903225806452
1.1466275659824048
1.1319648093841643
1.1192570869990224
1.110459433040078
1.104594330400782
1.0957966764418376
1.086021505376344
1.0772238514173995
1.0703812316715542
1.0625610948191593
1.0557184750733135
1.0478983382209188
1.0410557184750733
1.035190615835777
1.029325513196481
1.0273704789833822
1.0273704789833822
1.0254154447702837
1.0224828934506354
1.018572825024438
1.0146627565982405
1.010752688172043
1.0087976539589445
1.007820136852395
1.007820136852395
1.0097751710654936
1.0127077223851415
1.0166177908113392
1.0224828934506354
1.0283479960899315
1.032258064516129
1.035190615835777
1.040078201368524
