ppg
1.104594330400782
1.096774193548387
1.0909090909090908
1.0899315738025417
1.0918866080156402
1.0918866080156402
1.0909090909090908
1.0909090909090908
1.0928641251221896
1.099706744868035
1.118279569892473
1.1544477028347997
1.2160312805474096
1.3098729227761483
1.436950146627566
1.56891495601173
1.7096774193548387
1.8807429130009776
2.060606060606061
2.231671554252199
2.3812316715542523
2.5004887585532747
2.5855327468230693
2.634408602150537
2.652003910068426
2.641251221896383
2.608993157380254
2.560117302052786
2.506353861192571
2.4486803519061584
2.3822091886608017
2.3118279569892475
2.241446725317693
2.172043010752688
2.104594330400782
2.0410557184750733
1.9794721407624636
1.9188660801564028
1.857282502443793
1.7947214076246334
1.739980449657869
1.6881720430107527
1.6314760508308896
1.5757575757575757
1.525904203323558
1.4858260019550342
1.457478005865103
1.4408602150537635
1.436950146627566
1.4418377321603129
1.4545454545454546
1.4701857282502444
1.4868035190615836
1.5034213098729228
1.5190615835777126
1.5317693059628543
1.5405669599217986
1.544477028347996
1.543499511241447
1.5249266862170088
1.495601173020528
1.4711632453567938
1.447702834799609
1.423264907135875
1.3978494623655917
1.3773216031280548
1.3577712609970674
1.335288367546432
1.310850439882698
1.2864125122189638
1.262952101661779
1.2394916911045943
1.2160312805474096
1.1945259042033236
1.173998044965787
1.1544477028347997
1.1358748778103618
1.1231671554252198
1.1133919843597262
1.1026392961876832
1.0918866080156402
1.0811339198435972
1.072336265884653
1.0654936461388074
1.0606060606060606
1.0576735092864125
1.0557184750733135
1.0557184750733135
1.0576735092864125
1.0654936461388074
1.0801564027370478
1.1065493646138806
1.1534701857282503
1.2297165200391007
1.3391984359726294
1.482893450635386
1.6559139784946235
1.8494623655913975
2.0498533724340176
2.241446725317693
2.410557184750733
2.548387096774193
2.6402737047898337
2.695014662756598
2.7262952101661777
2.7311827956989245
2.7096774193548385
2.667644183773216
2.6099706744868034
2.541544477028348
2.466275659824047
2.388074291300098
2.3088954056695994
2.232649071358749
2.160312805474096
2.0987292277614857
2.042033235581622
1.9824046920821117
1.921798631476051
1.858260019550342
1.7927663734115349
1.7243401759530792
1.6559139784946235
1.5913978494623655
1.5347018572825024
1.487781036168133
1.452590420332356
1.4330400782013686
1.426197458455523
1.4291300097751711
1.4418377321603129
1.4623655913978495
1.4868035190615836
1.512218963831867
1.5356793743890518
1.5562072336265884
1.5718475073313782
1.5806451612903225
1.5835777126099706
1.5806451612903225
1.5757575757575757
1.5679374389051808
1.5542521994134897
1.5366568914956011
1.5161290322580645
1.4946236559139785
1.4721407624633431
1.4496578690127078
1.4271749755620724
1.404692082111437
1.383186705767351
1.3626588465298142
1.3470185728250244
1.3343108504398826
1.3206256109481915
1.3069403714565004
1.2942326490713587
1.2825024437927663
1.2727272727272727
1.262952101661779
1.2541544477028348
1.24633431085044
1.2394916911045943
1.2355816226783969
1.2336265884652982
1.2355816226783969
1.2394916911045943
1.2443792766373412
1.2502443792766371
1.2590420332355816
1.2766373411534702
1.3079178885630498
1.3607038123167154
1.4428152492668622
1.5591397849462365
1.7086999022482894
1.8866080156402736
2.0547409579667644
2.2160312805474094
2.3919843597262958
2.560117302052786
2.704789833822092
2.81622678396872
2.889540566959922
2.9266862170087977
2.932551319648094
2.911045943304008
2.8699902248289346
2.814271749755621
2.748778103616813
2.6832844574780057
2.618768328445748
2.550342130987292
2.4809384164222874
2.4134897360703813
2.3499511241446727
2.2883675464320627
2.2277614858260018
2.167155425219941
2.1055718475073317
2.0410557184750733
1.975562072336266
1.9178885630498532
1.866080156402737
1.8132942326490715
1.7653958944281525
1.7282502443792769
1.7018572825024438
1.6871945259042034
1.6842619745845553
1.6901270772238517
1.7008797653958945
1.7145650048875856
1.7282502443792769
1.739980449657869
1.747800586510264
1.750733137829912
1.750733137829912
1.7448680351906158
1.7331378299120237
1.7174975562072337
1.696969696969697
1.6735092864125125
1.6490713587487782
1.6226783968719452
1.595307917888563
1.5679374389051808
1.544477028347996
1.5239491691104594
1.501466275659824
1.478005865102639
1.455522971652004
1.4330400782013686
1.412512218963832
1.392961876832845
1.375366568914956
1.3587487781036167
1.3440860215053765
1.3304007820136852
1.3176930596285434
1.3079178885630498
1.300097751710655
1.2903225806451613
1.2805474095796676
1.2717497556207231
1.262952101661779
1.2541544477028348
1.2453567937438903
1.2375366568914956
1.2326490713587488
1.2336265884652982
1.2473118279569892
1.273704789833822
1.3196480938416422
1.3988269794721409
1.512218963831867
1.6588465298142718
1.8299120234604105
2.0127077223851417
2.1925708699902247
2.355816226783969
2.49266862170088
2.595307917888563
2.662756598240469
2.695014662756598
2.697947214076246
2.678396871945259
2.6402737047898337
2.5865102639296187
2.5219941348973607
2.449657869012708
2.3734115347018574
2.2961876832844577
2.220918866080156
2.147605083088954
2.078201368523949
2.0127077223851417
1.9560117302052784
1.903225806451613
1.844574780058651
1.782991202346041
1.718475073313783
1.6520039100684265
1.585532746823069
1.5239491691104594
1.4711632453567938
1.4291300097751711
1.3998044965786902
1.3851417399804498
1.3812316715542523
1.3861192570869991
1.3988269794721409
1.4164222873900294
1.436950146627566
1.456500488758553
1.474095796676442
1.4868035190615836
1.495601173020528
1.4975562072336266
1.4946236559139785
1.4858260019550342
1.4721407624633431
1.4594330400782014
1.4457478005865103
1.4271749755620724
1.4056695992179864
1.3822091886608017
1.3587487781036167
1.3362658846529814
1.3147605083088951
1.2942326490713587
1.2746823069403714
1.2561094819159335
1.238514173998045
1.2258064516129032
1.2043010752688172
1.1749755620723363
1.1534701857282503
1.1358748778103618
1.121212121212121
1.1085043988269794
1.0977517106549364
1.0879765395894427
1.0801564027370478
1.075268817204301
1.072336265884653
1.0703812316715542
1.072336265884653
1.0762463343108504
1.0791788856304985
1.0850439882697946
1.099706744868035
1.1300097751710656
1.1837732160312806
1.2688172043010753
1.388074291300098
1.5405669599217986
1.7194525904203324
1.913978494623656
2.085043988269794
2.2346041055718477
2.3851417399804498
2.5141739980449658
2.611925708699902
2.675464320625611
2.7038123167155423
2.701857282502444
2.674486803519061
2.6265884652981426
2.5640273704789838
2.49266862170088
2.41544477028348
2.343108504398827
2.274682306940372
2.2023460410557183
2.1300097751710654
2.060606060606061
1.992179863147605
1.924731182795699
1.857282502443793
1.7878787878787878
1.7174975562072337
1.64613880742913
1.5757575757575757
1.5180840664711632
1.4701857282502444
1.4252199413489737
1.3890518084066472
1.364613880742913
1.3528836754643203
1.3519061583577712
1.359726295210166
1.3734115347018572
1.391006842619746
1.4086021505376345
1.4242424242424243
1.436950146627566
1.447702834799609
1.4545454545454546
1.456500488758553
1.452590420332356
1.4437927663734116
1.43108504398827
1.414467253176931
1.3949169110459434
1.3734115347018572
1.3509286412512218
1.3284457478005864
1.305962854349951
1.289345063538612
1.2746823069403714
1.2570869990224829
1.238514173998045
1.2189638318670577
1.1994134897360704
1.1808406647116323
1.163245356793744
1.1466275659824048
1.1319648093841643
1.118279569892473
1.104594330400782
1.0928641251221896
1.0869990224828934
1.0840664711632453
1.0811339198435972
1.078201368523949
1.0762463343108504
1.0762463343108504
1.0772238514173995
1.0801564027370478
1.0869990224828934
1.1036168132942326
1.1358748778103618
1.1915933528836755
1.2609970674486803
1.3519061583577712
1.4809384164222874
1.640273704789834
1.8191593352883677
2.003910068426197
2.1808406647116323
2.3362658846529816
2.462365591397849
2.555229716520039
2.613880742913001
2.6402737047898337
2.638318670576735
2.618768328445748
2.58455522971652
2.535679374389052
2.4760508308895406
2.409579667644184
2.340175953079179
2.269794721407625
2.201368523949169
2.1358748778103616
2.0733137829912023
2.013685239491691
1.9550342130987293
1.902248289345064
1.8523949169110456
1.7956989247311828
1.7350928641251222
1.672531769305963
1.6129032258064515
1.5591397849462365
1.5151515151515151
1.482893450635386
1.4623655913978495
1.4535679374389052
1.4545454545454546
1.4643206256109482
1.47702834799609
1.4916911045943304
1.5083088954056696
1.5249266862170088
1.5395894428152492
1.5513196480938416
1.5581622678396871
1.5610948191593352
1.560117302052786
1.5542521994134897
1.5454545454545454
1.533724340175953
1.52297165200391
1.5112414467253177
1.495601173020528
1.478005865102639
1.4604105571847508
1.4428152492668622
1.426197458455523
1.409579667644184
1.393939393939394
1.3792766373411536
1.3655913978494625
1.3528836754643203
1.3401759530791788
1.3313782991202343
1.3235581622678396
1.3128054740957966
1.3020527859237536
1.2913000977517106
1.2825024437927663
1.2746823069403714
1.267839687194526
1.262952101661779
1.2590420332355816
1.2561094819159335
1.2531769305962854
1.2531769305962854
1.2561094819159335
1.2639296187683284
1.284457478005865
1.324535679374389
1.3900293255131966
1.4858260019550342
1.611925708699902
1.7605083088954057
1.9227761485826005
2.085043988269794
2.2346041055718477
2.361681329423265
2.450635386119257
2.506353861192571
2.5434995112414467
2.5562072336265884
2.5464320625610948
2.5161290322580645
2.4701857282502444
2.4115347018572826
2.3440860215053765
2.270772238514174
2.1955034213098727
2.121212121212121
2.056695992179863
1.9990224828934504
1.93841642228739
1.87683284457478
1.8162267839687196
1.7556207233626588
1.6930596285434996
1.6275659824046922
1.560117302052786
1.4916911045943304
1.426197458455523
1.3655913978494625
1.3196480938416422
1.2854349951124144
1.2551319648093842
1.2326490713587488
1.2209188660801564
1.2160312805474096
1.217008797653959
1.2209188660801564
1.2258064516129032
1.2297165200391007
1.2316715542521994
1.23069403714565
1.2258064516129032
1.2209188660801564
1.2150537634408602
1.2043010752688172
1.1896383186705768
1.1720430107526882
1.1534701857282503
1.1329423264907137
1.1124144672531768
1.0918866080156402
1.072336265884653
1.053763440860215
1.0371456500488758
1.0273704789833822
1.021505376344086
1.013685239491691
1.0048875855327468
0.997067448680352
0.989247311827957
0.9824046920821116
0.9765395894428152
0.9706744868035192
0.9657869012707724
0.9618768328445748
0.9589442815249268
0.956989247311828
0.959921798631476
0.9657869012707724
0.9716520039100685
0.9765395894428152
0.981427174975562
0.9853372434017597
0.9912023460410556
1.0166177908113392
1.0596285434995112
1.110459433040078
1.181818181818182
1.2805474095796676
1.388074291300098
1.5112414467253177
1.6686217008797657
1.8435972629521016
2.021505376344086
2.188660801564027
2.333333333333333
2.447702834799609
2.5288367546432062
2.576735092864125
2.595307917888563
2.5884652981427174
2.5610948191593352
2.5239491691104594
2.4789833822091887
2.4222873900293256
2.3597262952101663
2.2932551319648096
2.225806451612903
2.160312805474096
2.096774193548387
2.034213098729228
1.9726295210166176
1.9100684261974583
1.8465298142717497
1.7898338220918866
1.7350928641251222
1.6735092864125125
1.608993157380254
1.5464320625610948
1.490713587487781
1.4457478005865103
1.412512218963832
1.3919843597262953
1.3822091886608017
1.3822091886608017
1.3900293255131966
1.4027370478983383
1.4164222873900294
1.4291300097751711
1.4408602150537635
1.4496578690127078
1.4545454545454546
1.455522971652004
1.452590420332356
1.4467253176930597
1.436950146627566
1.4252199413489737
1.4115347018572826
1.3978494623655917
1.3870967741935485
1.3773216031280548
1.364613880742913
1.3499511241446724
1.3343108504398826
1.3196480938416422
1.305962854349951
1.2932551319648091
1.281524926686217
1.270772238514174
1.2609970674486803
1.252199413489736
1.2434017595307918
1.2375366568914956
1.2336265884652982
1.227761485826002
1.219941348973607
1.2121212121212122
1.2072336265884651
1.2043010752688172
1.2023460410557183
1.2023460410557183
1.203323558162268
1.2043010752688172
1.2082111436950147
1.217008797653959
1.2336265884652982
1.262952101661779
1.3118279569892473
1.3890518084066472
1.4975562072336266
1.635386119257087
1.7976539589442817
1.975562072336266
2.1544477028347995
2.3225806451612905
2.4672531769305963
2.5835777126099706
2.659824046920821
2.704789833822092
2.730205278592375
2.735092864125122
2.719452590420332
2.686217008797654
2.641251221896383
2.5865102639296187
2.525904203323558
2.4613880742913
2.396871945259042
2.333333333333333
2.27761485826002
2.2267839687194524
2.1730205278592374
2.117302052785924
2.060606060606061
2.0009775171065494
1.93841642228739
1.8729227761485825
1.8084066471163245
1.747800586510264
1.694037145650049
1.6500488758553276
1.6177908113391983
1.5992179863147604
1.5913978494623655
1.590420332355816
1.5972629521016617
1.6099706744868034
1.6256109481915937
1.6422287390029326
1.6578690127077225
1.672531769305963
1.6842619745845553
1.6920821114369502
1.6950146627565983
1.6959921798631477
1.694037145650049
1.689149560117302
1.6813294232649072
1.6715542521994136
1.66177908113392
1.6520039100684265
1.6422287390029326
1.6344086021505375
1.6265884652981428
1.619745845552297
1.6129032258064515
1.607038123167155
1.603128054740958
1.5992179863147604
1.595307917888563
1.5913978494623655
1.587487781036168
1.58455522971652
1.5826001955034212
1.5806451612903225
1.5786901270772238
1.576735092864125
1.5747800586510263
1.573802541544477
1.5747800586510263
1.5786901270772238
1.5826001955034212
1.587487781036168
1.5923753665689149
1.6021505376344083
1.619745845552297
1.653958944281525
1.7126099706744868
1.8005865102639296
1.920821114369501
2.071358748778104
2.2170087976539588
2.361681329423265
2.527859237536657
2.69208211143695
2.8396871945259043
2.9589442815249267
3.0449657869012707
3.096774193548387
3.117302052785924
3.110459433040078
3.0821114369501466
3.037145650048876
2.979472140762464
2.917888563049853
2.855327468230694
2.7869012707722387
2.7155425219941347
2.6451612903225805
2.5777126099706744
2.5131964809384164
2.449657869012708
2.386119257086999
2.321603128054741
2.2551319648093844
2.185728250244379
2.12316715542522
2.064516129032258
2.0019550342130987
1.9413489736070384
1.8885630498533723
1.8455522971652003
1.8132942326490715
1.7917888563049853
1.7790811339198436
1.7732160312805474
1.7712609970674489
1.7702834799608993
1.7683284457478006
1.7653958944281525
1.7605083088954057
1.7517106549364614
1.7390029325513197
1.721407624633431
1.699902248289345
1.6744868035190617
1.6451612903225807
1.6138807429130009
1.581622678396872
1.5493646138807429
1.5180840664711632
1.4926686217008798
1.4711632453567938
1.447702834799609
1.4242424242424243
1.401759530791789
1.380254154447703
1.3607038123167154
1.343108504398827
1.327468230694037
1.3147605083088951
1.303030303030303
1.2932551319648091
1.284457478005865
1.2795698924731185
1.2776148582600195
1.2756598240469208
1.2746823069403714
1.273704789833822
1.273704789833822
1.273704789833822
1.273704789833822
1.273704789833822
1.273704789833822
1.2776148582600195
1.289345063538612
1.3088954056695992
1.343108504398827
1.4037145650048877
1.4946236559139785
1.6187683284457477
1.7732160312805474
1.951124144672532
2.1388074291300097
2.324535679374389
2.49266862170088
2.634408602150537
2.7419354838709675
2.8152492668621703
2.852394916911046
2.8269794721407626
2.764418377321604
2.7096774193548385
2.653958944281525
2.593352883675464
2.5268817204301075
2.4574780058651027
2.388074291300098
2.3196480938416424
2.2531769305962857
2.188660801564027
2.1309872922776147
2.0772238514174
2.018572825024438
1.9550342130987293
1.8885630498533723
1.8191593352883677
1.7497556207233629
1.6823069403714566
1.6207233626588464
1.5679374389051808
1.525904203323558
1.495601173020528
1.47702834799609
1.469208211143695
1.4701857282502444
1.47702834799609
1.487781036168133
1.500488758553275
1.512218963831867
1.52297165200391
1.530791788856305
1.5347018572825024
1.533724340175953
1.5278592375366569
1.5180840664711632
1.5073313782991202
1.495601173020528
1.478005865102639
1.4594330400782014
1.4408602150537635
1.423264907135875
1.4056695992179864
1.3890518084066472
1.3734115347018572
1.3577712609970674
1.3421309872922775
1.327468230694037
1.313782991202346
1.3040078201368523
1.2961876832844574
1.2873900293255132
1.2776148582600195
1.267839687194526
1.2580645161290325
1.249266862170088
1.2404692082111437
1.2326490713587488
1.2267839687194526
1.2228739002932552
1.2209188660801564
1.2209188660801564
1.2228739002932552
1.2238514173998043
1.2258064516129032
1.2316715542521994
1.2473118279569892
1.278592375366569
1.332355816226784
1.41544477028348
1.5317693059628543
1.6803519061583578
1.8543499511241448
2.042033235581622
2.207233626588465
2.350928641251222
2.496578690127077
2.6236559139784945
2.7223851417399803
2.7869012707722387
2.819159335288368
2.823069403714565
2.801564027370479
2.7614858260019552
2.70772238514174
2.644183773216031
2.582600195503421
2.5210166177908118
2.453567937438905
2.3851417399804498
2.318670576735093
2.2531769305962857
2.188660801564027
2.124144672531769
2.0576735092864125
1.989247311827957
1.9178885630498532
1.8455522971652003
1.775171065493646
1.7165200391006843
1.667644183773216
1.6217008797653958
1.58455522971652
1.5591397849462365
1.5454545454545454
1.543499511241447
1.5513196480938416
1.564027370478983
1.5796676441837731
1.595307917888563
1.6099706744868034
1.6217008797653958
1.6304985337243405
1.635386119257087
1.6363636363636365
1.632453567937439
1.624633431085044
1.6138807429130009
1.6001955034213098
1.5835777126099706
1.565982404692082
1.5464320625610948
1.525904203323558
1.5063538611925709
1.490713587487781
1.478005865102639
1.4633431085043989
1.4496578690127078
1.436950146627566
1.4252199413489737
1.414467253176931
1.404692082111437
1.396871945259042
1.3900293255131966
1.383186705767351
1.3773216031280548
1.3734115347018572
1.3714565004887584
1.3685239491691104
1.3665689149560116
1.3665689149560116
1.367546432062561
1.370478983382209
1.3743890518084063
1.3792766373411536
1.3890518084066472
1.4066471163245358
1.4418377321603129
1.4887585532746823
1.555229716520039
1.6598240469208212
1.8025415444770283
1.9765395894428155
2.172043010752688
2.375366568914956
2.570869990224829
2.7438905180840663
2.8856304985337244
2.991202346041056
3.058651026392962
3.090909090909091
3.0928641251221896
3.071358748778104
3.032258064516129
2.979472140762464
2.916911045943304
2.8475073313782997
2.774193548387097
2.699902248289345
2.6265884652981426
2.5562072336265884
2.489736070381232
2.4242424242424243
2.364613880742913
2.3088954056695994
2.24633431085044
2.1788856304985336
2.10752688172043
2.035190615835777
1.9667644183773216
1.9042033235581624
1.8514173998044965
1.8103616813294232
1.782991202346041
1.76930596285435
1.7663734115347018
1.7683284457478006
1.775171065493646
1.7849462365591398
1.7956989247311828
1.804496578690127
1.8084066471163245
1.8084066471163245
1.8025415444770283
1.7917888563049853
1.7761485826001957
1.7575757575757576
1.737047898338221
1.7174975562072337
1.6979472140762464
1.675464320625611
1.6520039100684265
1.6285434995112416
1.606060606060606
1.5835777126099706
1.5610948191593352
1.5395894428152492
1.521016617790811
1.5034213098729228
1.4868035190615836
1.4711632453567938
1.458455522971652
1.447702834799609
1.4349951124144673
1.4213098729227762
1.4076246334310851
1.393939393939394
1.3792766373411536
1.3665689149560116
1.35386119257087
1.3421309872922775
1.3313782991202343
1.321603128054741
1.3147605083088951
1.3098729227761483
1.3049853372434017
1.303030303030303
1.310850439882698
1.3372434017595307
1.3900293255131966
1.4760508308895406
1.598240469208211
1.7546432062561097
1.9364613880742916
2.1300097751710654
2.321603128054741
2.47702834799609
2.60019550342131
2.7096774193548385
2.791788856304985
2.8396871945259043
2.855327468230694
2.841642228739003
2.8044965786901277
2.7497556207233624
2.6823069403714563
2.6070381231671558
2.5288367546432062
2.4574780058651027
2.3900293255131966
2.3196480938416424
2.2502443792766376
2.1837732160312804
2.118279569892473
2.0518084066471163
1.9824046920821117
1.8621700879765395
1.7145650048875856
1.5992179863147604
1.5024437927663734
1.4203323558162269
1.3577712609970674
1.310850439882698
1.2727272727272727
1.24633431085044
1.2326490713587488
1.2297165200391007
1.2365591397849462
1.249266862170088
1.2649071358748778
1.2805474095796676
1.2932551319648091
1.3020527859237536
1.3079178885630498
1.3088954056695992
1.303030303030303
1.29227761485826
1.2766373411534702
1.2561094819159335
1.2326490713587488
1.206256109481916
1.1798631476050832
1.152492668621701
1.1251221896383188
1.0987292277614855
1.0733137829912025
1.053763440860215
1.0371456500488758
1.0175953079178883
0.9990224828934506
0.981427174975562
0.9648093841642228
0.9511241446725318
0.9393939393939394
0.927663734115347
0.916911045943304
0.9081133919843596
0.8993157380254154
0.895405669599218
0.8934506353861192
0.8905180840664711
0.8885630498533724
0.8875855327468231
0.8866080156402737
0.8866080156402737
0.8866080156402737
0.8895405669599218
0.8993157380254154
0.9227761485826002
0.9687194525904204
1.0449657869012707
1.1378299120234605
1.2541544477028348
1.4173998044965788
1.6158357771260996
1.833822091886608
2.0547409579667644
2.260997067448681
2.4389051808406648
2.578690127077224
2.675464320625611
2.7282502443792764
2.742913000977517
2.729227761485826
2.6940371456500487
2.6402737047898337
2.570869990224829
2.4916911045943304
2.407624633431085
2.321603128054741
2.2375366568914954
2.155425219941349
2.078201368523949
2.003910068426197
1.9305962854349952
1.858260019550342
1.7927663734115349
1.729227761485826
1.6578690127077225
1.5826001955034212
1.5073313782991202
1.436950146627566
1.3743890518084063
1.3255131964809383
1.2913000977517106
1.270772238514174
1.2649071358748778
1.270772238514174
1.2834799608993157
1.2991202346041055
1.3196480938416422
1.3391984359726294
1.3577712609970674
1.3724340175953078
1.3812316715542523
1.3841642228739004
1.380254154447703
1.3685239491691104
1.3519061583577712
1.3304007820136852
1.3049853372434017
1.281524926686217
1.260019550342131
1.2346041055718475
1.2082111436950147
1.181818181818182
1.1573802541544478
1.133919843597263
1.110459433040078
1.088954056695992
1.0684261974584557
1.0498533724340176
1.0332355816226784
1.0224828934506354
1.0146627565982405
1.0058651026392962
0.9980449657869012
0.989247311827957
0.981427174975562
0.9736070381231672
0.9667644183773216
0.9618768328445748
0.9579667644183774
0.9560117302052786
0.9550342130987292
0.956989247311828
0.9618768328445748
0.9696969696969696
0.9843597262952102
1.0146627565982405
1.0694037145650048
1.1573802541544478
1.2864125122189638
1.456500488758553
1.66177908113392
1.89247311827957
2.1309872922776147
2.3597262952101663
2.5405669599217986
2.6803519061583576
2.8025415444770285
2.8914956011730206
2.943304007820137
2.9589442815249267
2.9423264907135875
2.9012707722385143
2.841642228739003
2.768328445747801
2.6881720430107525
2.6050830889540566
2.527859237536657
2.455522971652004
2.3812316715542523
2.3088954056695994
2.2385141739980448
2.1710654936461387
2.103616813294233
2.034213098729228
1.9608993157380252
1.8856304985337244
1.8093841642228736
1.7360703812316716
1.6715542521994136
