ppg
1.3479960899315735
1.414467253176931
1.5180840664711632
1.6598240469208212
1.8328445747800584
2.024437927663734
2.219941348973607
2.404692082111437
2.549364613880743
2.6608015640273703
2.7614858260019552
2.8426197458455524
2.902248289345064
2.941348973607038
2.963831867057673
2.972629521016618
2.9687194525904204
2.956011730205278
2.9345063538611926
2.9071358748778104
2.87683284457478
2.844574780058651
2.8103616813294234
2.773216031280548
2.7341153470185726
2.69208211143695
2.644183773216031
2.591397849462365
2.529814271749756
2.4574780058651027
2.375366568914956
2.286412512218964
2.1925708699902247
2.1065493646138806
2.026392961876833
1.9403714565004888
1.8563049853372435
1.780058651026393
1.7135874877810362
1.656891495601173
1.6099706744868034
1.5708699902248289
1.5395894428152492
1.5131964809384164
1.490713587487781
1.4731182795698925
1.457478005865103
1.439882697947214
1.4213098729227762
1.401759530791789
1.3812316715542523
1.3587487781036167
1.3362658846529814
1.3147605083088951
1.2932551319648091
1.2717497556207231
1.2512218963831867
1.2336265884652982
1.2218963831867058
1.2121212121212122
1.1974584555229717
1.181818181818182
1.164222873900293
1.147605083088954
1.1319648093841643
1.1163245356793745
1.1006842619745845
1.0869990224828934
1.0762463343108504
1.0664711632453567
1.0606060606060606
1.056695992179863
1.050830889540567
1.0439882697947214
1.040078201368524
1.0371456500488758
1.0342130987292275
1.029325513196481
1.0224828934506354
1.0127077223851415
1.002932551319648
0.9990224828934506
1.0097751710654936
1.0381231671554252
1.0909090909090908
1.1808406647116323
1.3098729227761483
1.4760508308895406
1.667644183773216
1.869012707722385
2.065493646138808
2.247311827956989
2.403714565004888
2.529814271749756
2.625610948191593
2.687194525904203
2.724340175953079
2.755620723362659
2.7781036168132944
2.789833822091887
2.792766373411535
2.787878787878788
2.777126099706745
2.760508308895406
2.739980449657869
2.716520039100684
2.6911045943304006
2.66177908113392
2.6295210166177907
2.5943304007820136
2.5513196480938416
2.501466275659824
2.443792766373412
2.376344086021505
2.2991202346041058
2.2130987292277613
2.120234604105572
2.024437927663734
1.927663734115347
1.8328445747800584
1.7526881720430108
1.683284457478006
1.6138807429130009
1.5513196480938416
1.498533724340176
1.4545454545454546
1.4193548387096775
1.3900293255131966
1.364613880742913
1.3440860215053765
1.3255131964809383
1.3079178885630498
1.2913000977517106
1.2795698924731185
1.2697947214076246
1.2570869990224829
1.2443792766373412
1.23069403714565
1.2179863147605083
1.203323558162268
1.187683284457478
1.1700879765395895
1.1534701857282503
1.1378299120234605
1.1231671554252198
1.1143695014662756
1.1094819159335287
1.1016617790811338
1.093841642228739
1.0850439882697946
1.078201368523949
1.0733137829912025
1.0703812316715542
1.0703812316715542
1.072336265884653
1.0742913000977516
1.0772238514173995
1.0811339198435972
1.0879765395894427
1.0977517106549364
1.1065493646138806
1.115347018572825
1.121212121212121
1.1251221896383188
1.1270772238514175
1.1300097751710656
1.1368523949169111
1.155425219941349
1.195503421309873
1.267839687194526
1.356793743890518
1.469208211143695
1.624633431085044
1.8103616813294232
2.0117302052785924
2.2130987292277613
2.39980449657869
2.563049853372434
2.697947214076246
2.803519061583578
2.8826979472140764
2.936461388074292
2.964809384164223
2.9775171065493646
2.983382209188661
2.9824046920821115
2.975562072336266
2.964809384164223
2.951124144672532
2.9335288367546437
2.913000977517106
2.887585532746823
2.859237536656892
2.8269794721407626
2.787878787878788
2.745845552297165
2.699902248289345
2.643206256109482
2.5747800586510263
2.496578690127077
2.410557184750733
2.317693059628544
2.222873900293255
2.1280547409579667
2.037145650048876
1.9530791788856303
1.878787878787879
1.822091886608016
1.7761485826001957
1.7350928641251222
1.699902248289345
1.6705767350928642
1.6451612903225807
1.6236559139784943
1.6050830889540566
1.5865102639296187
1.5679374389051808
1.5493646138807429
1.5298142717497556
1.5112414467253177
1.495601173020528
1.4819159335288368
1.4652981427174976
1.447702834799609
1.4301075268817205
1.4115347018572826
1.393939393939394
1.375366568914956
1.356793743890518
1.3372434017595307
1.316715542521994
1.2961876832844574
1.2805474095796676
1.2688172043010753
1.2551319648093842
1.241446725317693
1.2287390029325511
1.217008797653959
1.2043010752688172
1.1925708699902249
1.1808406647116323
1.1720430107526882
1.164222873900293
1.1573802541544478
1.1505376344086022
1.147605083088954
1.1456500488758554
1.1397849462365592
1.130987292277615
1.1202346041055715
1.1094819159335287
1.1065493646138806
1.1192570869990224
1.1564027370478984
1.2267839687194526
1.335288367546432
1.4809384164222874
1.629521016617791
1.7839687194525904
1.963831867057673
2.146627565982405
2.315738025415445
2.4613880742913
2.578690127077224
2.6695992179863146
2.735092864125122
2.779081133919844
2.8054740957966766
2.817204301075269
2.817204301075269
2.806451612903226
2.787878787878788
2.766373411534702
2.740957966764418
2.713587487781036
2.684261974584555
2.6529814271749754
2.619745845552297
2.582600195503421
2.5405669599217986
2.4916911045943304
2.434017595307918
2.3743890518084068
2.3098729227761488
2.231671554252199
2.1436950146627565
2.048875855327468
1.951124144672532
1.8533724340175952
1.7595307917888563
1.6744868035190617
1.5992179863147604
1.5356793743890518
1.4838709677419355
1.4428152492668622
1.4134897360703813
1.392961876832845
1.3734115347018572
1.3548387096774193
1.3372434017595307
1.3206256109481915
1.3049853372434017
1.2883675464320623
1.2697947214076246
1.2502443792766371
1.2316715542521994
1.2130987292277615
1.1994134897360704
1.1886608015640274
1.173998044965787
1.1583577712609971
1.142717497556207
1.1280547409579669
1.1124144672531768
1.0957966764418376
1.0801564027370478
1.0654936461388074
1.0527859237536656
1.040078201368524
1.0273704789833822
1.0195503421309873
1.0146627565982405
1.007820136852395
1.0
0.9921798631476052
0.9843597262952102
0.9775171065493646
0.9706744868035192
0.9648093841642228
0.9589442815249268
0.9521016617790812
0.9442815249266864
0.9403714565004888
0.9433040078201368
0.9511241446725318
0.9745845552297164
1.0254154447702837
1.1124144672531768
1.2394916911045943
1.455522971652004
1.6705767350928642
1.8299120234604105
2.006842619745845
2.1788856304985336
2.332355816226784
2.44672531769306
2.530791788856305
2.6021505376344085
2.6559139784946235
2.69208211143695
2.713587487781036
2.724340175953079
2.7253176930596283
2.7233626588465296
2.717497556207233
2.7038123167155423
2.684261974584555
2.6608015640273703
2.634408602150537
2.6041055718475072
2.570869990224829
2.532746823069404
2.489736070381232
2.439882697947214
2.3812316715542523
2.3118279569892475
2.233626588465298
2.147605083088954
2.056695992179863
1.9657869012707725
1.8875855327468232
1.818181818181818
1.7468230694037146
1.678396871945259
1.616813294232649
1.564027370478983
1.520039100684262
1.4848484848484849
1.456500488758553
1.4330400782013686
1.412512218963832
1.393939393939394
1.3812316715542523
1.3695014662756595
1.35386119257087
1.335288367546432
1.316715542521994
1.2991202346041055
1.281524926686217
1.2639296187683284
1.24633431085044
1.2287390029325511
1.2121212121212122
1.1964809384164223
1.1798631476050832
1.1681329423264908
1.1583577712609971
1.1436950146627567
1.1280547409579669
1.1124144672531768
1.0977517106549364
1.083088954056696
1.0694037145650048
1.056695992179863
1.04594330400782
1.0371456500488758
1.0303030303030305
1.0283479960899315
1.0283479960899315
1.0263929618768328
1.024437927663734
1.0234604105571847
1.0224828934506354
1.0205278592375366
1.0175953079178883
1.0127077223851415
1.0058651026392962
1.0009775171065494
1.0058651026392962
1.0234604105571847
1.0606060606060606
1.1290322580645162
1.2346041055718475
1.3773216031280548
1.5503421309872922
1.7429130009775171
1.9403714565004888
2.1280547409579667
2.2952101661779083
2.4359726295210167
2.548387096774193
2.633431085043988
2.686217008797654
2.717497556207233
2.7390029325513194
2.7497556207233624
2.7517106549364616
2.745845552297165
2.7341153470185726
2.718475073313783
2.699902248289345
2.679374389051808
2.656891495601173
2.63049853372434
2.60019550342131
2.565982404692082
2.5249266862170088
2.4760508308895406
2.419354838709677
2.35386119257087
2.280547409579668
2.19941348973607
2.112414467253177
2.0205278592375366
1.9286412512218964
1.842619745845552
1.7644183773216031
1.7028347996089932
1.6549364613880744
1.6099706744868034
1.573802541544477
1.5454545454545454
1.52297165200391
1.504398826979472
1.4887585532746823
1.4750733137829912
1.4623655913978495
1.447702834799609
1.434017595307918
1.4271749755620724
1.4213098729227762
1.412512218963832
1.401759530791789
1.3919843597262953
1.3822091886608017
1.3724340175953078
1.3616813294232648
1.3509286412512218
1.3411534701857282
1.3333333333333333
1.3264907135874875
1.3206256109481915
1.316715542521994
1.3147605083088951
1.3098729227761483
1.303030303030303
1.2961876832844574
1.2913000977517106
1.2883675464320623
1.2864125122189638
1.2854349951124144
1.2854349951124144
1.2873900293255132
1.2903225806451613
1.295210166177908
1.300097751710655
1.3040078201368523
1.3088954056695992
1.3128054740957966
1.3157380254154447
1.316715542521994
1.313782991202346
1.3079178885630498
1.3040078201368523
1.3088954056695992
1.3313782991202343
1.3812316715542523
1.447702834799609
1.5376344086021505
1.6686217008797657
1.8318670576735088
2.0127077223851417
2.198435972629521
2.376344086021505
2.5347018572825024
2.6666666666666665
2.771260997067449
2.849462365591398
2.902248289345064
2.9286412512218964
2.935483870967742
2.9335288367546437
2.9227761485826003
2.905180840664712
2.8807429130009776
2.8533724340175954
2.822091886608016
2.7869012707722387
2.747800586510264
2.705767350928641
2.659824046920821
2.6080156402737047
2.555229716520039
2.4975562072336266
2.429130009775171
2.350928641251222
2.264907135874878
2.1739980449657867
2.0821114369501466
1.992179863147605
1.90811339198436
1.8328445747800584
1.7673509286412512
1.7126099706744868
1.6715542521994136
1.640273704789834
1.611925708699902
1.587487781036168
1.565982404692082
1.5454545454545454
1.525904203323558
1.5053763440860215
1.4858260019550342
1.4672531769305963
1.4467253176930597
1.4252199413489737
1.4037145650048877
1.3870967741935485
1.3724340175953078
1.3548387096774193
1.3362658846529814
1.3176930596285434
1.2991202346041055
1.281524926686217
1.262952101661779
1.2443792766373412
1.2267839687194526
1.2111436950146628
1.1964809384164223
1.1867057673509287
1.1808406647116323
1.173998044965787
1.166177908113392
1.1573802541544478
1.1485826001955035
1.1397849462365592
1.130987292277615
1.1231671554252198
1.1163245356793745
1.1124144672531768
1.110459433040078
1.1094819159335287
1.110459433040078
1.1124144672531768
1.1114369501466277
1.10752688172043
1.1006842619745845
1.0957966764418376
1.0987292277614855
1.1192570869990224
1.1681329423264908
1.2531769305962854
1.375366568914956
1.530791788856305
1.6852394916911049
1.8866080156402736
2.0840664711632453
2.2218963831867056
2.360703812316716
2.4819159335288368
2.5806451612903225
2.6559139784946235
2.7096774193548385
2.744868035190616
2.7653958944281527
2.774193548387097
2.774193548387097
2.764418377321604
2.748778103616813
2.740957966764418
2.7331378299120237
2.7155425219941347
2.6911045943304006
2.6608015640273703
2.6265884652981426
2.5865102639296187
2.539589442815249
2.4858260019550342
2.4242424242424243
2.363636363636364
2.3010752688172045
2.2267839687194524
2.1436950146627565
2.0547409579667644
1.963831867057673
1.8758553274682308
1.7917888563049853
1.7145650048875856
1.64613880742913
1.587487781036168
1.5395894428152492
1.5053763440860215
1.479960899315738
1.455522971652004
1.4330400782013686
1.4134897360703813
1.3958944281524928
1.380254154447703
1.364613880742913
1.3499511241446724
1.3333333333333333
1.3157380254154447
1.2981427174975562
1.2805474095796676
1.267839687194526
1.2551319648093842
1.238514173998045
1.2209188660801564
1.2023460410557183
1.1837732160312806
1.166177908113392
1.1485826001955035
1.1319648093841643
1.1173020527859236
1.1026392961876832
1.088954056695992
1.0801564027370478
1.075268817204301
1.0694037145650048
1.0635386119257086
1.0576735092864125
1.0518084066471165
1.0469208211143697
1.0449657869012707
1.0439882697947214
1.043010752688172
1.043010752688172
1.0420332355816226
1.0391006842619743
1.0381231671554252
1.0371456500488758
1.0342130987292275
1.0361681329423265
1.0527859237536656
1.0948191593352885
1.1720430107526882
1.2864125122189638
1.4379276637341154
1.6177908113391983
1.8142717497556209
2.013685239491691
2.179863147605083
2.317693059628544
2.449657869012708
2.563049853372434
2.6529814271749754
2.718475073313783
2.764418377321604
2.792766373411535
2.8084066471163247
2.8152492668621703
2.8132942326490715
2.8044965786901277
2.789833822091887
2.771260997067449
2.7497556207233624
2.7262952101661777
2.699902248289345
2.670576735092864
2.6373411534701856
2.5972629521016617
2.550342130987292
2.493646138807429
2.4271749755620724
2.3519061583577714
2.2688172043010755
2.190615835777126
2.117302052785924
2.037145650048876
1.9579667644183771
1.884652981427175
1.8201368523949168
1.7644183773216031
1.7194525904203324
1.6852394916911049
1.6588465298142718
1.6383186705767352
1.6226783968719452
1.6099706744868034
1.6001955034213098
1.5943304007820136
1.587487781036168
1.5786901270772238
1.5679374389051808
1.5581622678396871
1.5493646138807429
1.5376344086021505
1.5249266862170088
1.5112414467253177
1.4975562072336266
1.4848484848484849
1.4760508308895406
1.4682306940371457
1.458455522971652
1.447702834799609
1.436950146627566
1.4252199413489737
1.4134897360703813
1.4027370478983383
1.3919843597262953
1.3822091886608017
1.3743890518084063
1.367546432062561
1.3626588465298142
1.3616813294232648
1.3626588465298142
1.3626588465298142
1.3626588465298142
1.3626588465298142
1.3626588465298142
1.3626588465298142
1.3616813294232648
1.359726295210166
1.356793743890518
1.3509286412512218
1.3421309872922775
1.335288367546432
1.3333333333333333
1.33822091886608
1.3607038123167154
1.409579667644184
1.4936461388074291
1.6158357771260996
1.7732160312805474
1.9550342130987293
2.146627565982405
2.333333333333333
2.5034213098729228
2.6480938416422286
2.7517106549364616
2.8240469208211145
2.8826979472140764
2.9227761485826003
2.945259042033236
2.9530791788856305
2.949169110459433
2.9374389051808407
2.918866080156403
2.895405669599218
2.868035190615836
2.8377321603128056
2.8054740957966766
2.771260997067449
2.732160312805474
2.689149560117302
2.641251221896383
2.5865102639296187
2.52297165200391
2.450635386119257
2.3704789833822093
2.2825024437927666
2.189638318670577
2.0948191593352883
2.0009775171065494
1.920821114369501
1.8514173998044965
1.782991202346041
1.7194525904203324
1.6656891495601174
1.6207233626588464
1.5835777126099706
1.5532746823069403
1.5278592375366569
1.5063538611925709
1.4868035190615836
1.466275659824047
1.4486803519061584
1.4330400782013686
1.41544477028348
1.3978494623655917
1.380254154447703
1.3616813294232648
1.3440860215053765
1.327468230694037
1.3098729227761483
1.29227761485826
1.273704789833822
1.2551319648093842
1.2375366568914956
1.2258064516129032
1.2160312805474096
1.203323558162268
1.1896383186705768
1.1749755620723363
1.160312805474096
1.1456500488758554
1.1319648093841643
1.1202346041055715
1.1094819159335287
1.1006842619745845
1.093841642228739
1.0909090909090908
1.0918866080156402
1.0918866080156402
1.0918866080156402
1.0918866080156402
1.0909090909090908
1.0869990224828934
1.0811339198435972
1.0742913000977516
1.072336265884653
1.083088954056696
1.1163245356793745
1.181818181818182
1.2658846529814272
1.3743890518084063
1.525904203323558
1.70772238514174
1.903225806451613
2.096774193548387
2.274682306940372
2.450635386119257
2.587487781036168
2.6695992179863146
2.7341153470185726
2.779081133919844
2.803519061583578
2.8152492668621703
2.8211143695014664
2.820136852394917
2.812316715542522
2.798631476050831
2.7810361681329425
2.7517106549364616
2.7233626588465296
2.7067448680351904
2.6852394916911044
2.653958944281525
2.618768328445748
2.5777126099706744
2.527859237536657
2.4682306940371457
2.398826979472141
2.320625610948192
2.2346041055718477
2.142717497556207
2.04594330400782
1.9501466275659824
1.858260019550342
1.7732160312805474
1.6979472140762464
1.6383186705767352
1.5913978494623655
1.5483870967741935
1.512218963831867
1.4838709677419355
1.4613880742913
1.4418377321603129
1.4242424242424243
1.4066471163245358
1.3900293255131966
1.3734115347018572
1.3577712609970674
1.346041055718475
1.335288367546432
1.3186705767350928
1.3010752688172045
1.2825024437927663
1.2639296187683284
1.24633431085044
1.227761485826002
1.2101661779081134
1.1935483870967742
1.1779081133919844
1.1622678396871946
1.147605083088954
1.1368523949169111
1.1280547409579669
1.1163245356793745
1.104594330400782
1.093841642228739
1.0850439882697946
1.0762463343108504
1.0684261974584557
1.06158357771261
1.0557184750733135
1.0518084066471165
1.0498533724340176
1.0518084066471165
1.056695992179863
1.0586510263929618
1.0596285434995112
1.0596285434995112
1.0576735092864125
1.0527859237536656
1.0469208211143697
1.0449657869012707
1.056695992179863
1.0928641251221896
1.163245356793744
1.2727272727272727
1.396871945259042
1.5386119257087
1.721407624633431
1.924731182795699
2.129032258064516
2.3196480938416424
2.487781036168133
2.6265884652981426
2.736070381231672
2.8181818181818183
2.874877810361681
2.911045943304008
2.924731182795699
2.924731182795699
2.920821114369501
2.911045943304008
2.889540566959922
2.868035190615836
2.850439882697948
2.827956989247312
2.801564027370479
2.76930596285435
2.7331378299120237
2.6911045943304006
2.627565982404692
2.567937438905181
2.5180840664711632
2.4516129032258065
2.347018572825025
2.2453567937438903
2.167155425219941
2.0762463343108504
1.9618768328445748
1.86119257086999
1.7927663734115349
1.7145650048875856
1.6490713587487782
1.6129032258064515
1.5835777126099706
1.5503421309872922
1.52297165200391
1.5053763440860215
1.4897360703812317
1.4701857282502444
1.4467253176930597
1.4301075268817205
1.412512218963832
1.3900293255131966
1.3695014662756595
1.3548387096774193
1.343108504398827
1.3294232649071358
1.3186705767350928
1.305962854349951
1.289345063538612
1.2727272727272727
1.2570869990224829
1.241446725317693
1.2267839687194526
1.2121212121212122
1.198435972629521
1.1906158357771262
1.1857282502443791
1.1788856304985338
1.1710654936461389
1.163245356793744
1.1573802541544478
1.1534701857282503
1.1485826001955035
1.1456500488758554
1.144672531769306
1.144672531769306
1.1456500488758554
1.147605083088954
1.152492668621701
1.160312805474096
1.1691104594330402
1.176930596285435
1.1827956989247312
1.18475073313783
1.1837732160312806
1.18475073313783
1.1925708699902249
1.217008797653959
1.2688172043010753
1.356793743890518
1.4604105571847508
1.5865102639296187
1.7556207233626588
1.9530791788856303
2.1622678396871944
2.3655913978494625
2.549364613880743
2.705767350928641
2.832844574780059
2.9315738025415445
3.002932551319648
3.0498533724340176
3.0772238514174
3.086021505376344
3.0821114369501466
3.074291300097752
3.06158357771261
3.043010752688172
3.021505376344086
2.9960899315738025
2.9667644183773216
2.932551319648094
2.89345063538612
2.8484848484848486
2.7976539589442817
2.7438905180840663
2.686217008797654
2.616813294232649
2.5376344086021505
2.4516129032258065
2.357771260997068
2.26197458455523
2.167155425219941
2.0772238514174
1.994134897360704
1.9227761485826005
1.8631476050830889
1.8142717497556209
1.780058651026393
1.7546432062561097
1.7311827956989247
1.7086999022482894
1.6871945259042034
1.667644183773216
1.6490713587487782
1.6304985337243405
1.611925708699902
1.5933528836754642
1.5747800586510263
1.5562072336265884
1.5395894428152492
1.5239491691104594
1.5034213098729228
1.4809384164222874
1.457478005865103
1.434017595307918
1.4105571847507332
1.3890518084066472
1.367546432062561
1.3470185728250244
1.3264907135874875
1.3069403714565004
1.289345063538612
1.2766373411534702
1.267839687194526
1.2561094819159335
1.2434017595307918
1.2316715542521994
1.2189638318670577
1.2072336265884651
1.198435972629521
1.1925708699902249
1.187683284457478
1.18475073313783
1.1827956989247312
1.1837732160312806
1.1867057673509287
1.1867057673509287
1.18475073313783
1.181818181818182
1.176930596285435
1.1700879765395895
1.164222873900293
1.166177908113392
1.1857282502443791
1.2316715542521994
1.313782991202346
1.412512218963832
1.533724340175953
1.6979472140762464
1.889540566959922
2.0948191593352883
2.294232649071359
2.4760508308895406
2.63049853372434
2.7536656891495603
2.84652981427175
2.9120234604105573
2.9550342130987293
2.979472140762464
2.9853372434017595
2.9804496578690127
2.9716520039100685
2.932551319648094
2.875855327468231
2.834799608993157
2.80058651026393
2.7673509286412514
2.735092864125122
2.699902248289345
2.6608015640273703
2.6158357771261
2.5698924731182795
2.5190615835777126
2.4565004887585533
2.3841642228739004
2.302052785923754
2.2130987292277613
2.117302052785924
2.0195503421309877
1.9237536656891496
1.8328445747800584
1.7517106549364614
1.6813294232649072
1.6207233626588464
1.5757575757575757
1.542521994134897
1.5131964809384164
1.4868035190615836
1.4652981427174976
1.4457478005865103
1.4281524926686218
1.4115347018572826
1.393939393939394
1.3763440860215057
1.3577712609970674
1.33822091886608
1.3225806451612905
1.3088954056695992
1.29227761485826
1.273704789833822
1.2551319648093842
1.2365591397849462
1.2189638318670577
1.2003910068426198
1.1827956989247312
1.1652003910068427
1.1495601173020529
1.133919843597263
1.1192570869990224
1.1085043988269794
1.1006842619745845
1.088954056695992
1.0772238514173995
1.067448680351906
1.0586510263929618
1.0518084066471165
1.0469208211143697
1.0439882697947214
1.043010752688172
1.0420332355816226
1.0420332355816226
1.0449657869012707
1.0488758553274682
1.0498533724340176
1.0469208211143697
1.0410557184750733
1.0332355816226784
1.0273704789833822
1.0303030303030305
1.050830889540567
1.1006842619745845
1.1857282502443791
1.3088954056695992
1.469208211143695
1.629521016617791
1.790811339198436
1.9745845552297163
2.157380254154448
2.324535679374389
2.4672531769305963
2.582600195503421
2.6695992179863146
2.7311827956989245
2.7722385141739982
2.7966764418377323
2.806451612903226
2.8025415444770285
2.789833822091887
2.774193548387097
2.7546432062561097
2.7311827956989245
2.705767350928641
2.678396871945259
2.649071358748778
2.6158357771261
2.5777126099706744
2.532746823069404
2.479960899315738
2.418377321603128
2.356793743890518
1.7468230694037146
1.9227761485826005
2.115347018572825
2.3059628543499517
2.4809384164222874
2.633431085043988
2.7565982404692084
2.850439882697948
2.916911045943304
2.960899315738025
2.986314760508309
2.994134897360704
2.988269794721408
2.9775171065493646
2.960899315738025
2.9393939393939394
2.9149560117302054
2.8885630498533725
2.859237536656892
2.8269794721407626
2.790811339198436
2.748778103616813
2.699902248289345
2.644183773216031
2.5865102639296187
2.52297165200391
2.4486803519061584
2.3655913978494625
2.2737047898338223
2.177908113391984
2.0821114369501466
1.989247311827957
