ppg
2.638318670576735
2.6989247311827955
2.757575757575758
2.811339198435973
2.860215053763441
2.9012707722385143
2.9335288367546437
2.956989247311828
2.9696969696969697
2.9716520039100685
2.959921798631476
2.9345063538611926
2.900293255131965
2.8563049853372435
2.798631476050831
2.7311827956989245
2.656891495601173
2.5806451612903225
2.50733137829912
2.4389051808406648
2.376344086021505
2.320625610948192
2.267839687194526
2.2170087976539588
2.172043010752688
2.1300097751710654
2.083088954056696
2.0332355816226784
1.9824046920821117
1.9335288367546437
1.884652981427175
1.836754643206256
1.790811339198436
1.7458455522971652
1.7018572825024438
1.6588465298142718
1.616813294232649
1.5835777126099706
1.555229716520039
1.52297165200391
1.4897360703812317
1.456500488758553
1.4242424242424243
1.392961876832845
1.3636363636363635
1.3372434017595307
1.3118279569892473
1.2873900293255132
1.2658846529814272
1.2512218963831867
1.2394916911045943
1.2238514173998043
1.206256109481916
1.187683284457478
1.1691104594330402
1.1485826001955035
1.1290322580645162
1.1114369501466277
1.0977517106549364
1.093841642228739
1.1036168132942326
1.1319648093841643
1.173998044965787
1.2580645161290325
1.3519061583577712
1.4291300097751711
1.5288367546432062
1.6686217008797657
1.7976539589442817
1.889540566959922
1.989247311827957
2.088954056695992
2.1867057673509285
2.2795698924731185
2.355816226783969
2.423264907135875
2.495601173020528
2.567937438905181
2.636363636363636
2.697947214076246
2.752688172043011
2.801564027370479
2.8426197458455524
2.8797653958944283
2.90811339198436
2.921798631476051
2.9266862170087977
2.9100684261974585
2.886608015640274
2.86217008797654
2.8211143695014664
2.744868035190616
2.6666666666666665
2.6070381231671558
2.520039100684262
2.4252199413489737
2.363636363636364
2.318670576735093
2.2639296187683287
2.204301075268817
2.1622678396871944
2.129032258064516
2.075268817204301
2.010752688172043
1.95405669599218
1.902248289345064
1.865102639296188
1.8240469208211143
1.7702834799608993
1.7223851417399805
1.6774193548387095
1.640273704789834
1.608993157380254
1.5747800586510263
1.5405669599217986
1.5063538611925709
1.4721407624633431
1.4467253176930597
1.418377321603128
1.3822091886608017
1.3509286412512218
1.3225806451612905
1.2961876832844574
1.2766373411534702
1.2609970674486803
1.241446725317693
1.2209188660801564
1.2013685239491692
1.181818181818182
1.164222873900293
1.1456500488758554
1.1270772238514175
1.1094819159335287
1.0918866080156402
1.0762463343108504
1.0654936461388074
1.064516129032258
1.0772238514173995
1.1055718475073313
1.1544477028347997
1.224828934506354
1.313782991202346
1.4193548387096775
1.5347018572825024
1.6549364613880744
1.775171065493646
1.8885630498533723
1.9990224828934504
2.0928641251221896
2.177908113391984
2.270772238514174
2.364613880742913
2.4565004887585533
2.5434995112414467
2.625610948191593
2.699902248289345
2.7673509286412514
2.8269794721407626
2.878787878787879
2.920821114369501
2.9550342130987293
2.9745845552297165
2.9824046920821115
2.9853372434017595
2.978494623655914
2.9589442815249267
2.9266862170087977
2.878787878787879
2.81622678396872
2.7438905180840663
2.664711632453568
2.5855327468230693
2.5102639296187683
2.4457478005865103
2.389051808406647
2.333333333333333
2.2795698924731185
2.2277614858260018
2.174975562072336
2.1221896383186705
2.0684261974584555
2.01564027370479
1.962854349951124
1.911045943304008
1.86119257086999
1.8191593352883677
1.7820136852394917
1.7419354838709675
1.7008797653958945
1.6608015640273706
1.6226783968719452
1.585532746823069
1.5513196480938416
1.5180840664711632
1.4868035190615836
1.457478005865103
1.4301075268817205
1.4056695992179864
1.3870967741935485
1.3724340175953078
1.3558162267839686
1.3391984359726294
1.3235581622678396
1.3079178885630498
1.29227761485826
1.2776148582600195
1.262952101661779
1.2482893450635386
1.2346041055718475
1.2209188660801564
1.2101661779081134
1.2013685239491692
1.1896383186705768
1.1798631476050832
1.1749755620723363
1.1798631476050832
1.2003910068426198
1.2394916911045943
1.2991202346041055
1.3763440860215057
1.469208211143695
1.5718475073313782
1.6803519061583578
1.7761485826001957
1.8641251221896384
1.959921798631476
2.056695992179863
2.1515151515151514
2.241446725317693
2.3255131964809386
2.401759530791789
2.4711632453567938
2.532746823069404
2.5865102639296187
2.633431085043988
2.6666666666666665
2.6901270772238512
2.7126099706744866
2.7311827956989245
2.7438905180840663
2.750733137829912
2.750733137829912
2.740957966764418
2.721407624633431
2.6901270772238512
2.64613880742913
2.5884652981427174
2.5210166177908118
2.455522971652004
2.391006842619746
2.3225806451612905
2.257086999022483
2.196480938416422
2.1417399804496577
2.089931573802541
2.040078201368524
1.992179863147605
1.9442815249266865
1.8963831867057677
1.8484848484848484
1.8074291300097751
1.76930596285435
1.726295210166178
1.6823069403714566
1.6373411534701858
1.5933528836754642
1.5493646138807429
1.5073313782991202
1.466275659824047
1.426197458455523
1.3870967741935485
1.3509286412512218
1.316715542521994
1.289345063538612
1.267839687194526
1.2434017595307918
1.2179863147605083
1.1915933528836755
1.166177908113392
1.1407624633431086
1.118279569892473
1.0977517106549364
1.078201368523949
1.0596285434995112
1.0420332355816226
1.029325513196481
1.0205278592375366
1.0087976539589445
0.9960899315738024
0.981427174975562
0.9667644183773216
0.9521016617790812
0.9393939393939394
0.9315738025415444
0.9296187683284456
0.93841642228739
0.9618768328445748
1.0048875855327468
1.0596285434995112
1.1290322580645162
1.2189638318670577
1.324535679374389
1.4408602150537635
1.563049853372434
1.6852394916911049
1.8035190615835777
1.9188660801564028
2.0303030303030303
2.136852394916911
2.2375366568914954
2.321603128054741
2.3929618768328447
2.469208211143695
2.5434995112414467
2.611925708699902
2.675464320625611
2.7331378299120237
2.782991202346041
2.8260019550342133
2.860215053763441
2.884652981427175
2.8993157380254155
2.903225806451613
2.895405669599218
2.875855327468231
2.8455522971652005
2.8025415444770285
2.744868035190616
2.675464320625611
2.598240469208211
2.5190615835777126
2.441837732160313
2.36950146627566
2.304007820136853
2.2453567937438903
2.1974584555229715
2.15347018572825
2.1055718475073317
2.0557184750733137
2.004887585532747
1.9530791788856303
1.900293255131965
1.8484848484848484
1.7976539589442817
1.747800586510264
1.699902248289345
1.6529814271749756
1.607038123167155
1.5698924731182795
1.5366568914956011
1.499511241446725
1.4613880742913
1.4242424242424243
1.3890518084066472
1.3558162267839686
1.324535679374389
1.2932551319648091
1.2639296187683284
1.2375366568914956
1.2111436950146628
1.1915933528836755
1.176930596285435
1.160312805474096
1.141739980449658
1.1221896383186705
1.1026392961876832
1.083088954056696
1.0625610948191593
1.0420332355816226
1.021505376344086
1.002932551319648
0.989247311827957
0.9833822091886608
0.989247311827957
1.0097751710654936
1.0478983382209188
1.10752688172043
1.1867057673509287
1.2825024437927663
1.3900293255131966
1.5034213098729228
1.6187683284457477
1.7311827956989247
1.8416422287390029
1.9472140762463344
2.035190615835777
2.114369501466276
2.19941348973607
2.2825024437927666
2.3626588465298144
2.439882697947214
2.5112414467253177
2.576735092864125
2.635386119257087
2.6881720430107525
2.7341153470185726
2.7702834799608995
2.798631476050831
2.8132942326490715
2.81622678396872
2.8132942326490715
2.7996089931573804
2.776148582600196
2.739980449657869
2.6881720430107525
2.624633431085044
2.555229716520039
2.4838709677419355
2.4144672531769307
2.3499511241446727
2.2961876832844577
2.249266862170088
2.2023460410557183
2.1544477028347995
2.1055718475073317
2.0557184750733137
2.005865102639296
1.9550342130987293
1.9042033235581624
1.8543499511241448
1.8074291300097751
1.7634408602150538
1.726295210166178
1.6930596285434996
1.6559139784946235
1.6177908113391983
1.5796676441837731
1.542521994134897
1.5053763440860215
1.469208211143695
1.434017595307918
1.3988269794721409
1.3655913978494625
1.3333333333333333
1.3020527859237536
1.278592375366569
1.260019550342131
1.238514173998045
1.217008797653959
1.1964809384164223
1.176930596285435
1.1593352883675463
1.142717497556207
1.126099706744868
1.1094819159335287
1.0928641251221896
1.0742913000977516
1.06158357771261
1.0527859237536656
1.0439882697947214
1.0420332355816226
1.050830889540567
1.0772238514173995
1.1251221896383188
1.1935483870967742
1.2825024437927663
1.3870967741935485
1.5024437927663734
1.6226783968719452
1.7429130009775171
1.8455522971652003
1.93841642228739
2.040078201368524
2.1436950146627565
2.24633431085044
2.346041055718475
2.439882697947214
2.527859237536657
2.610948191593353
2.687194525904203
2.757575757575758
2.8211143695014664
2.8670576735092865
2.902248289345064
2.9374389051808407
2.967741935483871
2.991202346041056
3.005865102639296
3.010752688172043
3.002932551319648
2.9824046920821115
2.9472140762463344
2.895405669599218
2.83088954056696
2.7565982404692084
2.6852394916911044
2.616813294232649
2.544477028347996
2.4750733137829912
2.4115347018572826
2.35386119257087
2.3010752688172045
2.249266862170088
2.1974584555229715
2.145650048875855
2.093841642228739
2.0439882697947214
2.0009775171065494
1.9618768328445748
1.919843597262952
1.87683284457478
1.833822091886608
1.790811339198436
1.7487781036168133
1.70772238514174
1.6686217008797657
1.629521016617791
1.5923753665689149
1.5571847507331378
1.5239491691104594
1.4965786901270772
1.474095796676442
1.447702834799609
1.4203323558162269
1.3949169110459434
1.3695014662756595
1.3450635386119256
1.321603128054741
1.2991202346041055
1.278592375366569
1.2590420332355816
1.2394916911045943
1.2258064516129032
1.2130987292277615
1.1945259042033236
1.173998044965787
1.1534701857282503
1.1358748778103618
1.126099706744868
1.1290322580645162
1.1495601173020529
1.1915933528836755
1.2570869990224829
1.343108504398827
1.444770283479961
1.542521994134897
1.6383186705767352
1.7448680351906158
1.855327468230694
1.9657869012707725
2.074291300097752
2.1808406647116323
2.2825024437927666
2.380254154447703
2.474095796676442
2.5640273704789838
2.649071358748778
2.717497556207233
2.773216031280548
2.831867057673509
2.887585532746823
2.935483870967742
2.975562072336266
3.007820136852395
3.03128054740958
3.0439882697947214
3.0449657869012707
3.034213098729228
3.0097751710654936
2.970674486803519
2.9237536656891496
2.8690127077223853
2.8044965786901277
2.7341153470185726
2.662756598240469
2.595307917888563
2.5347018572825024
2.479960899315738
2.4301075268817205
2.3822091886608017
2.334310850439883
2.2854349951124147
2.2404692082111435
2.196480938416422
2.146627565982405
2.093841642228739
2.0391006842619745
1.9843597262952104
1.9296187683284456
1.8758553274682308
1.822091886608016
1.7683284457478006
1.715542521994135
1.664711632453568
1.6148582600195502
1.5747800586510263
1.541544477028348
1.5053763440860215
1.469208211143695
1.4330400782013686
1.3998044965786902
1.3685239491691104
1.3401759530791788
1.3157380254154447
1.29227761485826
1.2697947214076246
1.2482893450635386
1.2336265884652982
1.2218963831867058
1.2072336265884651
1.1906158357771262
1.1730205278592376
1.1564027370478984
1.141739980449658
1.130987292277615
1.1280547409579669
1.1358748778103618
1.1593352883675463
1.2043010752688172
1.2688172043010753
1.3401759530791788
1.4203323558162269
1.520039100684262
1.6314760508308896
1.7468230694037146
1.86119257086999
1.9736070381231672
2.0821114369501466
2.1867057673509285
2.286412512218964
2.3812316715542523
2.4711632453567938
2.5434995112414467
2.606060606060606
2.6725317693059627
2.736070381231672
2.793743890518084
2.8455522971652005
2.8905180840664717
2.927663734115347
2.956989247311828
2.9765395894428157
2.98435972629521
2.9824046920821115
2.967741935483871
2.9423264907135875
2.906158357771261
2.857282502443793
2.7976539589442817
2.729227761485826
2.653958944281525
2.578690127077224
2.506353861192571
2.439882697947214
2.3792766373411536
2.32355816226784
2.270772238514174
2.2248289345063537
2.182795698924731
2.1358748778103616
2.086021505376344
2.035190615835777
1.9833822091886608
1.9305962854349952
1.878787878787879
1.8269794721407624
1.775171065493646
1.726295210166178
1.6695992179863148
1.6158357771260996
1.5747800586510263
1.5347018572825024
1.495601173020528
1.458455522971652
1.4203323558162269
1.383186705767351
1.3470185728250244
1.3128054740957966
1.2795698924731185
1.249266862170088
1.2209188660801564
1.1964809384164223
1.1798631476050832
1.1671554252199414
1.1515151515151516
1.1348973607038124
1.118279569892473
1.1026392961876832
1.088954056695992
1.0762463343108504
1.064516129032258
1.053763440860215
1.0439882697947214
1.0342130987292275
1.0283479960899315
1.0273704789833822
1.0283479960899315
1.0381231671554252
1.0654936461388074
1.115347018572825
1.1886608015640274
1.284457478005865
1.3998044965786902
1.5288367546432062
1.6627565982404693
1.796676441837732
1.927663734115347
2.038123167155425
2.1358748778103616
2.2404692082111435
2.345063538611926
2.4457478005865103
2.5425219941348973
2.633431085043988
2.718475073313783
2.7966764418377323
2.868035190615836
2.9335288367546437
2.991202346041056
3.03128054740958
3.058651026392962
3.085043988269794
3.1065493646138806
3.121212121212121
3.1251221896383186
3.118279569892473
3.0977517106549364
3.0635386119257086
3.01564027370479
2.95405669599218
2.881720430107527
2.8025415444770285
2.7282502443792764
2.659824046920821
2.589442815249267
2.52297165200391
2.462365591397849
2.404692082111437
2.347996089931574
2.29227761485826
2.236559139784946
2.179863147605083
2.1221896383186705
2.0664711632453567
2.0175953079178885
1.9745845552297163
1.9286412512218964
1.881720430107527
1.8347996089931573
1.7878787878787878
1.7419354838709675
1.696969696969697
1.653958944281525
1.6129032258064515
1.573802541544477
1.5366568914956011
1.501466275659824
1.4731182795698925
1.4486803519061584
1.4213098729227762
1.392961876832845
1.364613880742913
1.33822091886608
1.3118279569892473
1.2873900293255132
1.2649071358748778
1.2424242424242424
1.2218963831867058
1.2013685239491692
1.187683284457478
1.1759530791788857
1.1612903225806452
1.1466275659824048
1.1358748778103618
1.1329423264907137
1.141739980449658
1.1681329423264908
1.2150537634408602
1.2825024437927663
1.3695014662756595
1.4711632453567938
1.5826001955034212
1.6842619745845553
1.7781036168132942
1.8807429130009776
1.9853372434017595
2.088954056695992
2.188660801564027
2.2844574780058653
2.3743890518084068
2.4604105571847508
2.5405669599217986
2.6158357771261
2.684261974584555
2.7370478983382207
2.777126099706745
2.8181818181818183
2.8563049853372435
2.887585532746823
2.9120234604105573
2.927663734115347
2.9315738025415445
2.924731182795699
2.905180840664712
2.8729227761485827
2.8269794721407626
2.768328445747801
2.7067448680351904
2.644183773216031
2.575757575757576
2.50733137829912
2.443792766373412
2.3851417399804498
2.332355816226784
2.2825024437927666
2.2346041055718477
2.185728250244379
2.136852394916911
2.0869990224828934
2.042033235581622
2.0009775171065494
1.9579667644183771
1.9149560117302051
1.871945259042033
1.828934506353861
1.7878787878787878
1.747800586510264
1.7096774193548387
1.6735092864125125
1.6392961876832846
1.606060606060606
1.5747800586510263
1.5493646138807429
1.5288367546432062
1.5063538611925709
1.482893450635386
1.4604105571847508
1.4389051808406648
1.4173998044965788
1.3978494623655917
1.3782991202346042
1.3587487781036167
1.3401759530791788
1.3235581622678396
1.3118279569892473
1.3010752688172045
1.2864125122189638
1.270772238514174
1.2551319648093842
1.238514173998045
1.2218963831867058
1.209188660801564
1.2052785923753666
1.2140762463343109
1.2394916911045943
1.284457478005865
1.348973607038123
1.4193548387096775
1.4975562072336266
1.5913978494623655
1.6930596285434996
1.796676441837732
1.8983382209188664
1.9980449657869013
2.09188660801564
2.1808406647116323
2.2639296187683287
2.3421309872922778
2.4134897360703813
2.4701857282502444
2.517106549364614
2.565982404692082
2.611925708699902
2.654936461388074
2.6930596285435
2.7253176930596283
2.750733137829912
2.771260997067449
2.78494623655914
2.790811339198436
2.7859237536656893
2.771260997067449
2.7468230694037143
2.7116324535679373
2.664711632453568
2.6070381231671558
2.5425219941348973
2.4731182795698925
2.403714565004888
2.337243401759531
2.275659824046921
2.219941348973607
2.166177908113392
2.115347018572825
2.071358748778104
2.029325513196481
1.9833822091886608
1.9345063538611929
1.8856304985337244
1.836754643206256
1.7888563049853372
1.7409579667644184
1.6950146627565983
1.651026392961877
1.6080156402737047
1.565982404692082
1.5317693059628543
1.501466275659824
1.4682306940371457
1.434017595307918
1.3998044965786902
1.3665689149560116
1.3343108504398826
1.3040078201368523
1.273704789833822
1.24633431085044
1.219941348973607
1.1945259042033236
1.1710654936461389
1.155425219941349
1.1436950146627567
1.1290322580645162
1.1133919843597262
1.0977517106549364
1.0772238514173995
1.0557184750733135
1.0381231671554252
1.0224828934506354
1.007820136852395
0.9941348973607038
0.9804496578690128
0.9716520039100685
0.967741935483871
0.9657869012707724
0.9736070381231672
0.9960899315738024
1.0371456500488758
1.0977517106549364
1.1779081133919844
1.2746823069403714
1.383186705767351
1.4975562072336266
1.611925708699902
1.7243401759530792
1.8201368523949168
1.905180840664712
1.997067448680352
2.089931573802541
2.179863147605083
2.2668621700879767
2.3489736070381237
2.4242424242424243
2.49266862170088
2.5532746823069403
2.6080156402737047
2.6559139784946235
2.6901270772238512
2.7145650048875853
2.73802541544477
2.755620723362659
2.7673509286412514
2.7702834799608995
2.764418377321604
2.745845552297165
2.7145650048875853
2.670576735092864
2.613880742913001
2.548387096774193
2.47702834799609
2.4115347018572826
2.350928641251222
2.290322580645161
2.232649071358749
2.179863147605083
2.1309872922776147
2.083088954056696
2.0361681329423265
1.9902248289345064
1.943304007820137
1.895405669599218
1.847507331378299
1.8064516129032255
1.76930596285435
1.7282502443792769
1.686217008797654
1.6441837732160314
1.603128054740958
1.563049853372434
1.5249266862170088
1.4887585532746823
1.4545454545454546
1.4213098729227762
1.3890518084066472
1.3577712609970674
1.3343108504398826
1.3147605083088951
1.2913000977517106
1.2688172043010753
1.2473118279569892
1.2267839687194526
1.206256109481916
1.1867057673509287
1.1691104594330402
1.152492668621701
1.1368523949169111
1.121212121212121
1.1094819159335287
1.1006842619745845
1.0879765395894427
1.0742913000977516
1.0625610948191593
1.0576735092864125
1.0635386119257086
1.0840664711632453
1.121212121212121
1.1779081133919844
1.252199413489736
1.3421309872922775
1.4418377321603129
1.5347018572825024
1.6226783968719452
1.7204301075268815
1.8211143695014664
1.921798631476051
2.0205278592375366
2.114369501466276
2.2023460410557183
2.283479960899316
2.358748778103617
2.4281524926686218
2.490713587487781
2.5376344086021505
2.5747800586510263
2.6129032258064515
2.6480938416422286
2.678396871945259
2.702834799608993
2.719452590420332
2.7262952101661777
2.7223851417399803
2.705767350928641
2.67644183773216
2.635386119257087
2.581622678396872
2.525904203323558
2.469208211143695
2.4056695992179864
2.3421309872922778
2.2825024437927666
2.2277614858260018
2.177908113391984
2.1309872922776147
2.086021505376344
2.0410557184750733
1.997067448680352
1.95405669599218
1.9149560117302051
1.878787878787879
1.8406647116324533
1.801564027370479
1.761485826001955
1.7233626588465298
1.686217008797654
1.6500488758553276
1.6158357771260996
1.5835777126099706
1.552297165200391
1.521994134897361
1.4926686217008798
1.4701857282502444
1.4516129032258065
1.43108504398827
1.4105571847507332
1.391006842619746
1.3734115347018572
1.356793743890518
1.3411534701857282
1.3255131964809383
1.310850439882698
1.2961876832844574
1.2795698924731185
1.267839687194526
1.2580645161290325
1.2453567937438903
1.2316715542521994
1.217008797653959
1.2013685239491692
1.1857282502443791
1.1730205278592376
1.164222873900293
1.163245356793744
1.173998044965787
1.2013685239491692
1.2473118279569892
1.3010752688172045
1.3636363636363635
1.4437927663734116
1.533724340175953
1.6275659824046922
1.7223851417399805
1.8142717497556209
1.902248289345064
1.9853372434017595
2.064516129032258
2.1407624633431084
2.2130987292277613
2.271749755620724
2.3225806451612905
2.378299120234604
2.432062561094819
2.4819159335288368
2.5268817204301075
2.565982404692082
2.5972629521016617
2.622678396871945
2.641251221896383
2.6529814271749754
2.6559139784946235
2.6480938416422286
2.631476050830889
2.606060606060606
2.56891495601173
2.520039100684262
2.4604105571847508
2.393939393939394
2.3255131964809386
2.259042033235582
2.1974584555229715
2.1417399804496577
2.090909090909091
2.043010752688172
2.0009775171065494
1.963831867057673
1.9227761485826005
1.8797653958944285
1.835777126099707
1.7917888563049853
1.747800586510264
1.7038123167155426
1.6598240469208212
1.6158357771260996
1.573802541544477
1.533724340175953
1.500488758553275
1.4711632453567938
1.4389051808406648
1.4066471163245358
1.3763440860215057
1.3470185728250244
1.3186705767350928
1.2913000977517106
1.2639296187683284
1.238514173998045
1.2130987292277615
1.1906158357771262
1.1710654936461389
1.1573802541544478
1.1466275659824048
1.1319648093841643
1.1163245356793745
1.1026392961876832
1.0899315738025417
1.0772238514173995
1.0635386119257086
1.0498533724340176
1.0361681329423265
1.0224828934506354
1.0087976539589445
1.0
0.9951124144672532
0.989247311827957
0.989247311827957
1.0
1.0273704789833822
1.072336265884653
1.1368523949169111
1.219941348973607
1.3176930596285434
1.4252199413489737
1.5376344086021505
1.6823069403714566
1.827956989247312
1.943304007820137
2.056695992179863
2.167155425219941
2.274682306940372
2.377321603128055
2.4760508308895406
2.5698924731182795
2.656891495601173
2.736070381231672
2.809384164222874
2.875855327468231
2.924731182795699
2.961876832844575
2.99902248289345
3.03128054740958
3.0547409579667644
3.0684261974584555
3.072336265884653
3.065493646138808
3.04594330400782
3.0117302052785924
2.962854349951124
2.8993157380254155
2.8269794721407626
2.7565982404692084
2.689149560117302
2.618768328445748
2.5513196480938416
2.489736070381232
2.432062561094819
2.378299120234604
2.3255131964809386
2.271749755620724
2.218963831867057
2.1652003910068425
2.1114369501466275
2.0635386119257086
2.018572825024438
1.9696969696969695
1.9188660801564028
1.869012707722385
1.822091886608016
1.7771260997067448
1.7350928641251222
1.694037145650049
1.653958944281525
1.6158357771260996
1.5796676441837731
1.5454545454545454
1.5180840664711632
1.4946236559139785
1.4672531769305963
1.439882697947214
1.412512218963832
1.3870967741935485
1.3616813294232648
1.3372434017595307
1.313782991202346
1.2913000977517106
1.2697947214076246
1.249266862170088
1.2355816226783969
1.2238514173998043
1.2082111436950147
1.1906158357771262
1.173998044965787
1.1612903225806452
1.155425219941349
1.160312805474096
1.1808406647116323
1.2218963831867058
1.2834799608993157
1.364613880742913
1.4613880742913
1.5562072336265884
1.651026392961877
1.7595307917888563
1.870967741935484
