ppg
1.4349951124144673
1.3870967741935485
1.3411534701857282
1.3040078201368523
1.273704789833822
1.2443792766373412
1.2160312805474096
1.1896383186705768
1.166177908113392
1.144672531769306
1.1280547409579669
1.1143695014662756
1.1026392961876832
1.093841642228739
1.088954056695992
1.0899315738025417
1.0948191593352885
1.1006842619745845
1.1094819159335287
1.118279569892473
1.1280547409579669
1.13880742913001
1.1495601173020529
1.160312805474096
1.1730205278592376
1.1857282502443791
1.198435972629521
1.2111436950146628
1.2218963831867058
1.2326490713587488
1.2424242424242424
1.2512218963831867
1.2580645161290325
1.262952101661779
1.262952101661779
1.2561094819159335
1.2453567937438903
1.2355816226783969
1.2336265884652982
1.2512218963831867
1.289345063538612
1.3587487781036167
1.4809384164222874
1.653958944281525
1.8670576735092863
2.099706744868035
2.3255131964809386
2.5190615835777126
2.662756598240469
2.747800586510264
2.7751710654936463
2.7517106549364616
2.6989247311827955
2.624633431085044
2.5268817204301075
2.4173998044965788
2.304985337243402
2.1915933528836757
2.080156402737048
1.9745845552297163
1.881720430107527
1.8005865102639296
1.7302052785923754
1.6715542521994136
1.6236559139784943
1.5884652981427174
1.564027370478983
1.541544477028348
1.521016617790811
1.5034213098729228
1.487781036168133
1.4760508308895406
1.469208211143695
1.4682306940371457
1.474095796676442
1.4897360703812317
1.5151515151515151
1.543499511241447
1.5757575757575757
1.616813294232649
1.66177908113392
1.7067448680351909
1.7497556207233629
1.7849462365591398
1.8103616813294232
1.825024437927664
1.827956989247312
1.8211143695014664
1.8035190615835777
1.7761485826001957
1.7458455522971652
1.7126099706744868
1.672531769305963
1.6275659824046922
1.5826001955034212
1.5376344086021505
1.4946236559139785
1.4545454545454546
1.4164222873900294
1.380254154447703
1.346041055718475
1.3147605083088951
1.2913000977517106
1.2717497556207231
1.2502443792766371
1.2287390029325511
1.2101661779081134
1.1945259042033236
1.181818181818182
1.1730205278592376
1.1671554252199414
1.163245356793744
1.1612903225806452
1.1612903225806452
1.163245356793744
1.166177908113392
1.1710654936461389
1.1779081133919844
1.1867057673509287
1.1974584555229717
1.2082111436950147
1.219941348973607
1.2326490713587488
1.2453567937438903
1.2570869990224829
1.267839687194526
1.2776148582600195
1.2873900293255132
1.2971652003910068
1.3069403714565004
1.313782991202346
1.3157380254154447
1.3118279569892473
1.303030303030303
1.2913000977517106
1.284457478005865
1.295210166177908
1.3372434017595307
1.423264907135875
1.5591397849462365
1.7086999022482894
1.873900293255132
2.0791788856304985
2.29227761485826
2.484848484848485
2.634408602150537
2.729227761485826
2.76930596285435
2.7595307917888565
2.708699902248289
2.6295210166177907
2.5317693059628543
2.4349951124144678
2.3391984359726297
2.2355816226783967
2.1300097751710654
2.027370478983382
1.9315738025415443
1.844574780058651
1.7673509286412512
1.7008797653958945
1.64613880742913
1.6021505376344083
1.5669599217986314
1.5405669599217986
1.521994134897361
1.5073313782991202
1.4946236559139785
1.4838709677419355
1.4760508308895406
1.474095796676442
1.479960899315738
1.495601173020528
1.521994134897361
1.5571847507331378
1.6011730205278591
1.6500488758553276
1.694037145650049
1.7341153470185728
1.7781036168132942
1.8191593352883677
1.8514173998044965
1.873900293255132
1.8856304985337244
1.884652981427175
1.8729227761485825
1.8514173998044965
1.8211143695014664
1.782991202346041
1.7409579667644184
1.7018572825024438
1.664711632453568
1.6236559139784943
1.5806451612903225
1.5395894428152492
1.499511241446725
1.4604105571847508
1.4222873900293256
1.3861192570869991
1.35386119257087
1.3255131964809383
1.300097751710655
1.2825024437927663
1.2697947214076246
1.2580645161290325
1.2482893450635386
1.2404692082111437
1.2336265884652982
1.2287390029325511
1.2258064516129032
1.224828934506354
1.224828934506354
1.2267839687194526
1.2316715542521994
1.2394916911045943
1.249266862170088
1.2590420332355816
1.2688172043010753
1.281524926686217
1.295210166177908
1.3088954056695992
1.3225806451612905
1.335288367546432
1.3470185728250244
1.3558162267839686
1.3616813294232648
1.364613880742913
1.3665689149560116
1.364613880742913
1.3577712609970674
1.3479960899315735
1.3372434017595307
1.335288367546432
1.3528836754643203
1.4037145650048877
1.4965786901270772
1.6373411534701858
1.8211143695014664
2.0332355816226784
2.2238514173998043
2.389051808406647
2.548387096774193
2.673509286412512
2.748778103616813
2.771260997067449
2.7468230694037143
2.6852394916911044
2.5962854349951123
2.490713587487781
2.376344086021505
2.259042033235582
2.142717497556207
2.0410557184750733
1.951124144672532
1.8602150537634408
1.7741935483870968
1.6979472140762464
1.6334310850439884
1.5786901270772238
1.5347018572825024
1.500488758553275
1.4731182795698925
1.4516129032258065
1.435972629521017
1.4252199413489737
1.4193548387096775
1.4173998044965788
1.4242424242424243
1.439882697947214
1.4652981427174976
1.498533724340176
1.5405669599217986
1.590420332355816
1.643206256109482
1.6959921798631477
1.7458455522971652
1.7878787878787878
1.8162267839687196
1.8328445747800584
1.8416422287390029
1.839687194525904
1.826001955034213
1.801564027370479
1.7673509286412512
1.7282502443792769
1.6842619745845553
1.6373411534701858
1.5894428152492668
1.542521994134897
1.5024437927663734
1.466275659824047
1.426197458455523
1.3851417399804498
1.3450635386119256
1.3079178885630498
1.273704789833822
1.2434017595307918
1.2179863147605083
1.1964809384164223
1.1788856304985338
1.166177908113392
1.155425219941349
1.1505376344086022
1.1485826001955035
1.1456500488758554
1.142717497556207
1.141739980449658
1.142717497556207
1.144672531769306
1.1485826001955035
1.155425219941349
1.1622678396871946
1.1710654936461389
1.181818181818182
1.1925708699902249
1.2043010752688172
1.2140762463343109
1.2238514173998043
1.2355816226783969
1.2482893450635386
1.2590420332355816
1.2697947214076246
1.2795698924731185
1.2883675464320623
1.29227761485826
1.2903225806451613
1.281524926686217
1.2717497556207231
1.2619745845552297
1.2551319648093842
1.2639296187683284
1.303030303030303
1.3851417399804498
1.5180840664711632
1.699902248289345
1.916911045943304
2.147605083088954
2.3685239491691106
2.5562072336265884
2.684261974584555
2.758553274682307
2.792766373411535
2.7839687194525906
2.736070381231672
2.656891495601173
2.557184750733138
2.444770283479961
2.326490713587488
2.210166177908113
2.0977517106549364
1.992179863147605
1.895405669599218
1.8172043010752688
1.7526881720430108
1.6930596285434996
1.6422287390029326
1.6021505376344083
1.5718475073313782
1.547409579667644
1.5278592375366569
1.5102639296187683
1.495601173020528
1.4848484848484849
1.478005865102639
1.47702834799609
1.4838709677419355
1.499511241446725
1.5249266862170088
1.5591397849462365
1.5992179863147604
1.6451612903225807
1.694037145650049
1.7409579667644184
1.7849462365591398
1.8201368523949168
1.8455522971652003
1.8592375366568916
1.8621700879765395
1.8563049853372435
1.8406647116324533
1.8162267839687196
1.782991202346041
1.7438905180840665
1.7008797653958945
1.6549364613880744
1.607038123167155
1.560117302052786
1.5151515151515151
1.4731182795698925
1.4379276637341154
1.4086021505376345
1.3782991202346042
1.348973607038123
1.3196480938416422
1.29227761485826
1.2688172043010753
1.2473118279569892
1.2267839687194526
1.2082111436950147
1.1915933528836755
1.1779081133919844
1.1671554252199414
1.1622678396871946
1.1622678396871946
1.1622678396871946
1.1622678396871946
1.1652003910068427
1.1700879765395895
1.1759530791788857
1.1827956989247312
1.1935483870967742
1.206256109481916
1.2209188660801564
1.2375366568914956
1.252199413489736
1.2658846529814272
1.2795698924731185
1.2913000977517106
1.3020527859237536
1.3118279569892473
1.3206256109481915
1.327468230694037
1.3304007820136852
1.327468230694037
1.3186705767350928
1.3079178885630498
1.3049853372434017
1.3128054740957966
1.343108504398827
1.414467253176931
1.5356793743890518
1.7057673509286413
1.9149560117302051
2.144672531769306
2.3704789833822093
2.56891495601173
2.720430107526881
2.8132942326490715
2.8475073313782997
2.8367546432062563
2.790811339198436
2.7126099706744866
2.611925708699902
2.4975562072336266
2.378299120234604
2.2580645161290325
2.1417399804496577
2.0303030303030303
1.927663734115347
1.8347996089931573
1.75366568914956
1.6852394916911049
1.6344086021505375
1.5972629521016617
1.5679374389051808
1.544477028347996
1.5239491691104594
1.5063538611925709
1.4926686217008798
1.4819159335288368
1.478005865102639
1.4819159335288368
1.4975562072336266
1.5239491691104594
1.5532746823069403
1.590420332355816
1.6392961876832846
1.694037145650049
1.750733137829912
1.8064516129032255
1.857282502443793
1.900293255131965
1.932551319648094
1.9501466275659824
1.9550342130987293
1.9472140762463344
1.9315738025415443
1.90811339198436
1.8758553274682308
1.833822091886608
1.7859237536656891
1.7350928641251222
1.6823069403714566
1.6285434995112416
1.5747800586510263
1.521994134897361
1.4731182795698925
1.4281524926686218
1.3870967741935485
1.356793743890518
1.3313782991202343
1.3049853372434017
1.2805474095796676
1.2580645161290325
1.238514173998045
1.2228739002932552
1.209188660801564
1.198435972629521
1.1896383186705768
1.1837732160312806
1.1808406647116323
1.181818181818182
1.1867057673509287
1.1915933528836755
1.1974584555229717
1.203323558162268
1.2111436950146628
1.2218963831867058
1.2336265884652982
1.2453567937438903
1.2561094819159335
1.2668621700879763
1.2766373411534702
1.2864125122189638
1.2961876832844574
1.3040078201368523
1.3098729227761483
1.3128054740957966
1.310850439882698
1.3040078201368523
1.2903225806451613
1.2756598240469208
1.2668621700879763
1.2727272727272727
1.3069403714565004
1.383186705767351
1.482893450635386
1.6138807429130009
1.7996089931573802
2.018572825024438
2.243401759530792
2.447702834799609
2.610948191593353
2.720430107526881
2.7722385141739982
2.771260997067449
2.7262952101661777
2.649071358748778
2.550342130987292
2.4516129032258065
2.35386119257087
2.247311827956989
2.1378299120234603
2.03128054740958
1.9315738025415443
1.8406647116324533
1.761485826001955
1.694037145650049
1.6383186705767352
1.5933528836754642
1.5581622678396871
1.533724340175953
1.5161290322580645
1.498533724340176
1.482893450635386
1.4701857282502444
1.4623655913978495
1.4594330400782014
1.4652981427174976
1.4809384164222874
1.5063538611925709
1.5405669599217986
1.5826001955034212
1.6304985337243405
1.6744868035190617
1.7135874877810362
1.75366568914956
1.790811339198436
1.8211143695014664
1.8406647116324533
1.847507331378299
1.842619745845552
1.818181818181818
1.780058651026393
1.739980449657869
1.6959921798631477
1.656891495601173
1.6177908113391983
1.573802541544477
1.5278592375366569
1.4819159335288368
1.4389051808406648
1.3978494623655917
1.3587487781036167
1.3206256109481915
1.284457478005865
1.252199413489736
1.2228739002932552
1.1964809384164223
1.176930596285435
1.1612903225806452
1.144672531769306
1.130987292277615
1.1192570869990224
1.1094819159335287
1.1016617790811338
1.096774193548387
1.093841642228739
1.0948191593352885
1.099706744868035
1.10752688172043
1.1163245356793745
1.1270772238514175
1.1397849462365592
1.152492668621701
1.1652003910068427
1.1779081133919844
1.1906158357771262
1.203323558162268
1.2160312805474096
1.2287390029325511
1.2394916911045943
1.2502443792766371
1.260019550342131
1.2688172043010753
1.2746823069403714
1.2746823069403714
1.267839687194526
1.2570869990224829
1.2482893450635386
1.2531769305962854
1.2864125122189638
1.3616813294232648
1.4868035190615836
1.6608015640273706
1.873900293255132
2.074291300097752
2.260019550342131
2.4516129032258065
2.6158357771261
2.7311827956989245
2.790811339198436
2.795698924731183
2.755620723362659
2.681329423264907
2.58455522971652
2.4750733137829912
2.3597262952101663
2.242424242424242
2.1388074291300097
2.046920821114369
1.9530791788856303
1.8631476050830889
1.7810361681329423
1.7096774193548387
1.6500488758553276
1.603128054740958
1.5669599217986314
1.5386119257087
1.517106549364614
1.501466275659824
1.4897360703812317
1.4809384164222874
1.4731182795698925
1.4701857282502444
1.4750733137829912
1.490713587487781
1.517106549364614
1.5532746823069403
1.598240469208211
1.6480938416422288
1.699902248289345
1.750733137829912
1.7986314760508308
1.8347996089931573
1.8602150537634408
1.878787878787879
1.8885630498533723
1.8866080156402736
1.873900293255132
1.8514173998044965
1.822091886608016
1.7859237536656891
1.7458455522971652
1.7028347996089932
1.6578690127077225
1.616813294232649
1.5777126099706744
1.5356793743890518
1.4926686217008798
1.4506353861192571
1.4105571847507332
1.3724340175953078
1.3372434017595307
1.3069403714565004
1.2805474095796676
1.2570869990224829
1.238514173998045
1.2238514173998043
1.2140762463343109
1.209188660801564
1.203323558162268
1.198435972629521
1.1964809384164223
1.195503421309873
1.195503421309873
1.1974584555229717
1.2023460410557183
1.209188660801564
1.2189638318670577
1.2287390029325511
1.238514173998045
1.2482893450635386
1.2580645161290325
1.267839687194526
1.2776148582600195
1.2873900293255132
1.2981427174975562
1.3088954056695992
1.3176930596285434
1.324535679374389
1.327468230694037
1.324535679374389
1.3196480938416422
1.3128054740957966
1.3040078201368523
1.303030303030303
1.3235581622678396
1.3792766373411536
1.4809384164222874
1.6314760508308896
1.826001955034213
2.04594330400782
2.2688172043010755
2.4701857282502444
2.6285434995112413
2.727272727272727
2.773216031280548
2.7781036168132944
2.742913000977517
2.674486803519061
2.582600195503421
2.47702834799609
2.3626588465298144
2.2453567937438903
2.1300097751710654
2.018572825024438
1.913978494623656
1.828934506353861
1.7575757575757576
1.689149560117302
1.6275659824046922
1.5757575757575757
1.533724340175953
1.499511241446725
1.4721407624633431
1.4496578690127078
1.434017595307918
1.423264907135875
1.418377321603128
1.4193548387096775
1.426197458455523
1.4379276637341154
1.4604105571847508
1.4936461388074291
1.5356793743890518
1.58455522971652
1.6363636363636365
1.6871945259042034
1.7331378299120237
1.7712609970674489
1.7986314760508308
1.8132942326490715
1.8172043010752688
1.8113391984359728
1.7956989247311828
1.7702834799608993
1.737047898338221
1.6979472140762464
1.6529814271749756
1.6050830889540566
1.5562072336265884
1.5073313782991202
1.4594330400782014
1.4134897360703813
1.3714565004887584
1.33822091886608
1.3088954056695992
1.278592375366569
1.249266862170088
1.2228739002932552
1.2003910068426198
1.1788856304985338
1.1593352883675463
1.1436950146627567
1.130987292277615
1.121212121212121
1.1143695014662756
1.1114369501466277
1.1114369501466277
1.1114369501466277
1.1124144672531768
1.115347018572825
1.1192570869990224
1.1241446725317692
1.130987292277615
1.141739980449658
1.1534701857282503
1.1652003910068427
1.1779081133919844
1.1906158357771262
1.203323558162268
1.2150537634408602
1.2238514173998043
1.2326490713587488
1.241446725317693
1.249266862170088
1.2551319648093842
1.2580645161290325
1.2551319648093842
1.24633431085044
1.2346041055718475
1.2258064516129032
1.224828934506354
1.2424242424242424
1.29227761485826
1.3861192570869991
1.5298142717497556
1.7194525904203324
1.9413489736070384
2.1730205278592374
2.389051808406647
2.5669599217986314
2.69208211143695
2.7595307917888565
2.771260997067449
2.7438905180840663
2.687194525904203
2.6070381231671558
2.512218963831867
2.4056695992179864
2.2952101661779083
2.185728250244379
2.080156402737048
1.981427174975562
1.8914956011730208
1.8113391984359728
1.7429130009775171
1.6920821114369502
1.6549364613880744
1.6226783968719452
1.5962854349951123
1.576735092864125
1.5620723362658846
1.5493646138807429
1.5376344086021505
1.5278592375366569
1.521994134897361
1.52297165200391
1.5327468230694037
1.552297165200391
1.5747800586510263
1.6021505376344083
1.640273704789834
1.6842619745845553
1.7302052785923754
1.7732160312805474
1.8103616813294232
1.8377321603128052
1.855327468230694
1.8602150537634408
1.8563049853372435
1.842619745845552
1.8240469208211143
1.7996089931573802
1.7673509286412512
1.7272727272727273
1.6842619745845553
1.6392961876832846
1.5943304007820136
1.5503421309872922
1.5083088954056696
1.4682306940371457
1.4291300097751711
1.393939393939394
1.3616813294232648
1.3362658846529814
1.3147605083088951
1.2932551319648091
1.2717497556207231
1.252199413489736
1.2355816226783969
1.2209188660801564
1.2082111436950147
1.1974584555229717
1.1886608015640274
1.1827956989247312
1.1798631476050832
1.1798631476050832
1.1837732160312806
1.1886608015640274
1.1945259042033236
1.2013685239491692
1.2101661779081134
1.2209188660801564
1.2336265884652982
1.24633431085044
1.2590420332355816
1.2717497556207231
1.2834799608993157
1.2942326490713587
1.3040078201368523
1.313782991202346
1.3235581622678396
1.3313782991202343
1.335288367546432
1.3333333333333333
1.3235581622678396
1.3088954056695992
1.2971652003910068
1.2981427174975562
1.327468230694037
1.3988269794721409
1.4946236559139785
1.6217008797653958
1.804496578690127
2.024437927663734
2.2551319648093844
2.469208211143695
2.644183773216031
2.7653958944281527
2.8269794721407626
2.833822091886608
2.7947214076246336
2.720430107526881
2.634408602150537
2.541544477028348
2.432062561094819
2.3167155425219943
2.2023460410557183
2.0928641251221896
1.9902248289345064
1.8973607038123168
1.8132942326490715
1.7409579667644184
1.6803519061583578
1.6314760508308896
1.5943304007820136
1.5679374389051808
1.5483870967741935
1.530791788856305
1.517106549364614
1.5063538611925709
1.499511241446725
1.498533724340176
1.5083088954056696
1.5278592375366569
1.5562072336265884
1.5943304007820136
1.6412512218963833
1.6871945259042034
1.7311827956989247
1.7810361681329423
1.827956989247312
1.869012707722385
1.9012707722385145
1.920821114369501
1.9266862170087975
1.920821114369501
1.9012707722385145
1.871945259042033
1.833822091886608
1.7888563049853372
1.7468230694037146
1.704789833822092
1.6549364613880744
1.6021505376344083
1.5503421309872922
1.500488758553275
1.452590420332356
1.4086021505376345
1.3695014662756595
1.332355816226784
1.300097751710655
1.270772238514174
1.2482893450635386
1.2316715542521994
1.2140762463343109
1.195503421309873
1.1779081133919844
1.164222873900293
1.1534701857282503
1.1466275659824048
1.1436950146627567
1.1436950146627567
1.1456500488758554
1.1505376344086022
1.155425219941349
1.1622678396871946
1.1700879765395895
1.1779081133919844
1.1886608015640274
1.2003910068426198
1.2130987292277615
1.2258064516129032
1.238514173998045
1.2512218963831867
1.262952101661779
1.273704789833822
1.284457478005865
1.2932551319648091
1.2991202346041055
1.3010752688172045
1.295210166177908
1.2825024437927663
1.2688172043010753
1.2619745845552297
1.2727272727272727
1.313782991202346
1.3988269794721409
1.5327468230694037
1.7145650048875856
1.9296187683284456
2.126099706744868
2.3010752688172045
2.4760508308895406
2.619745845552297
2.713587487781036
2.7546432062561097
2.745845552297165
2.6959921798631474
2.6158357771261
2.517106549364614
2.406647116324536
2.29227761485826
2.1915933528836757
2.0987292277614857
2.003910068426197
1.9130009775171064
1.8299120234604105
1.7575757575757576
1.696969696969697
1.6471163245356797
1.6080156402737047
1.5786901270772238
1.555229716520039
1.5356793743890518
1.5180840664711632
1.504398826979472
1.4936461388074291
1.4848484848484849
1.4819159335288368
1.4868035190615836
1.500488758553275
1.521994134897361
1.5532746823069403
1.5933528836754642
1.6373411534701858
1.683284457478006
1.7272727272727273
1.761485826001955
1.7869012707722385
1.8084066471163245
1.8201368523949168
1.8211143695014664
1.8113391984359728
1.7917888563049853
1.7634408602150538
1.7272727272727273
1.686217008797654
1.643206256109482
1.598240469208211
1.552297165200391
1.512218963831867
1.478005865102639
1.4418377321603129
1.404692082111437
1.3685239491691104
1.3343108504398826
1.3040078201368523
1.2766373411534702
1.252199413489736
1.23069403714565
1.2111436950146628
1.1945259042033236
1.1827956989247312
1.173998044965787
1.1652003910068427
1.1564027370478984
1.1485826001955035
1.1436950146627567
1.141739980449658
1.142717497556207
1.1466275659824048
1.1485826001955035
1.1495601173020529
1.1544477028347997
1.1622678396871946
1.1720430107526882
1.1837732160312806
1.1964809384164223
1.2101661779081134
1.2238514173998043
1.2375366568914956
1.249266862170088
1.260019550342131
1.267839687194526
1.273704789833822
1.2756598240469208
1.2717497556207231
1.2658846529814272
1.2580645161290325
1.2482893450635386
1.2424242424242424
1.2512218963831867
1.289345063538612
1.3695014662756595
1.500488758553275
1.6793743890518085
1.89247311827957
2.121212121212121
2.3421309872922778
2.529814271749756
2.659824046920821
2.736070381231672
2.7722385141739982
2.7653958944281527
2.720430107526881
2.64613880742913
2.5513196480938416
2.444770283479961
2.3313782991202348
2.217986314760508
2.1065493646138806
2.0009775171065494
1.9130009775171064
1.8387096774193548
1.7663734115347018
1.7018572825024438
1.6480938416422288
1.603128054740958
1.56891495601173
1.543499511241447
1.5239491691104594
1.5083088954056696
1.495601173020528
1.4858260019550342
1.4809384164222874
1.4809384164222874
1.487781036168133
1.5034213098729228
1.5268817204301075
1.5591397849462365
1.5992179863147604
1.64613880742913
1.6950146627565983
1.7419354838709675
1.7849462365591398
1.8211143695014664
1.8484848484848484
1.8641251221896384
1.8699902248289344
1.866080156402737
1.8523949169110456
1.828934506353861
1.796676441837732
1.758553274682307
1.715542521994135
1.6705767350928642
1.624633431085044
1.5796676441837731
1.5366568914956011
1.499511241446725
1.466275659824047
1.43108504398827
1.3958944281524928
1.3636363636363635
1.332355816226784
1.3040078201368523
1.2795698924731185
1.260019550342131
1.2434017595307918
1.2297165200391007
1.2189638318670577
1.2101661779081134
1.206256109481916
1.2052785923753666
1.2052785923753666
1.2052785923753666
1.206256109481916
1.2101661779081134
1.2160312805474096
1.224828934506354
1.2346041055718475
1.2443792766373412
1.2541544477028348
1.2639296187683284
1.273704789833822
1.2864125122189638
1.2991202346041055
1.3118279569892473
1.324535679374389
1.3343108504398826
1.343108504398827
1.348973607038123
1.3499511241446724
1.3470185728250244
1.3391984359726294
1.3264907135874875
1.316715542521994
1.3147605083088951
1.3284457478005864
1.3734115347018572
1.4604105571847508
1.5943304007820136
1.775171065493646
1.9872922776148585
2.2082111436950145
2.412512218963832
2.581622678396872
2.699902248289345
2.760508308895406
2.7722385141739982
2.744868035190616
2.6832844574780057
2.595307917888563
2.490713587487781
2.377321603128055
2.260019550342131
2.142717497556207
2.029325513196481
1.9227761485826005
1.8240469208211143
1.7380254154447703
1.664711632453568
1.608993157380254
1.565982404692082
1.5278592375366569
1.495601173020528
1.4701857282502444
1.4506353861192571
1.434017595307918
1.4213098729227762
1.4134897360703813
1.4115347018572826
1.418377321603128
1.435972629521017
1.458455522971652
1.487781036168133
1.5278592375366569
1.5747800586510263
1.6256109481915937
1.675464320625611
1.721407624633431
1.761485826001955
1.7927663734115349
1.8113391984359728
1.8162267839687196
1.8093841642228736
1.790811339198436
