ppg
1.072336265884653
1.0703812316715542
1.067448680351906
1.0635386119257086
1.0596285434995112
1.0557184750733135
1.0518084066471165
1.0478983382209188
1.0439882697947214
1.040078201368524
1.0361681329423265
1.032258064516129
1.0303030303030305
1.0342130987292275
1.0439882697947214
1.0625610948191593
1.0928641251221896
1.1397849462365592
1.206256109481916
1.2932551319648091
1.3998044965786902
1.52297165200391
1.6578690127077225
1.7986314760508308
1.9374389051808407
2.0527859237536656
2.150537634408602
2.249266862170088
2.3391984359726297
2.4164222873900294
2.479960899315738
2.530791788856305
2.5698924731182795
2.598240469208211
2.6158357771261
2.622678396871945
2.619745845552297
2.606060606060606
2.5835777126099706
2.552297165200391
2.5112414467253177
2.4604105571847508
2.401759530791789
2.337243401759531
2.269794721407625
2.203323558162268
2.1407624633431084
2.085043988269794
2.0361681329423265
1.9960899315738023
1.963831867057673
1.9374389051808407
1.9130009775171064
1.889540566959922
1.866080156402737
1.842619745845552
1.8172043010752688
1.7898338220918866
1.7595307917888563
1.7282502443792769
1.6959921798631477
1.664711632453568
1.6334310850439884
1.606060606060606
1.5806451612903225
1.552297165200391
1.52297165200391
1.4946236559139785
1.4682306940371457
1.4428152492668622
1.4193548387096775
1.3978494623655917
1.3782991202346042
1.3616813294232648
1.346041055718475
1.3333333333333333
1.321603128054741
1.3079178885630498
1.2932551319648091
1.2776148582600195
1.262952101661779
1.2482893450635386
1.2355816226783969
1.2238514173998043
1.2130987292277615
1.2023460410557183
1.1915933528836755
1.181818181818182
1.1749755620723363
1.1700879765395895
1.163245356793744
1.1544477028347997
1.144672531769306
1.1358748778103618
1.1270772238514175
1.1192570869990224
1.1114369501466277
1.1036168132942326
1.0957966764418376
1.0879765395894427
1.0840664711632453
1.0811339198435972
1.0762463343108504
1.0703812316715542
1.0654936461388074
1.06158357771261
1.0596285434995112
1.0576735092864125
1.056695992179863
1.056695992179863
1.056695992179863
1.0557184750733135
1.0547409579667644
1.056695992179863
1.0586510263929618
1.0596285434995112
1.0596285434995112
1.0596285434995112
1.0596285434995112
1.0606060606060606
1.06158357771261
1.0625610948191593
1.0635386119257086
1.0664711632453567
1.0733137829912025
1.086021505376344
1.1065493646138806
1.141739980449658
1.1945259042033236
1.267839687194526
1.3636363636363635
1.479960899315738
1.6129032258064515
1.7565982404692082
1.9042033235581624
2.0498533724340176
2.187683284457478
2.314760508308896
2.4134897360703813
2.490713587487781
2.5650048875855327
2.63049853372434
2.687194525904203
2.7331378299120237
2.768328445747801
2.7947214076246336
2.812316715542522
2.8211143695014664
2.819159335288368
2.806451612903226
2.7839687194525906
2.7517106549364616
2.708699902248289
2.6559139784946235
2.595307917888563
2.529814271749756
2.462365591397849
2.393939393939394
2.329423264907136
2.270772238514174
2.217986314760508
2.172043010752688
2.1309872922776147
2.117302052785924
2.118279569892473
2.103616813294233
2.080156402737048
2.0518084066471163
2.0205278592375366
1.9872922776148585
1.9530791788856303
1.916911045943304
1.8797653958944285
1.8416422287390029
1.804496578690127
1.7712609970674489
1.7409579667644184
1.70772238514174
1.6744868035190617
1.6412512218963833
1.6099706744868034
1.581622678396872
1.5542521994134897
1.5288367546432062
1.5034213098729228
1.479960899315738
1.456500488758553
1.4349951124144673
1.4193548387096775
1.4056695992179864
1.391006842619746
1.375366568914956
1.359726295210166
1.3440860215053765
1.3294232649071358
1.3157380254154447
1.3020527859237536
1.2883675464320623
1.2746823069403714
1.2619745845552297
1.252199413489736
1.2443792766373412
1.2346041055718475
1.224828934506354
1.2140762463343109
1.203323558162268
1.1925708699902249
1.181818181818182
1.1720430107526882
1.163245356793744
1.1564027370478984
1.1505376344086022
1.1485826001955035
1.147605083088954
1.144672531769306
1.1407624633431086
1.1358748778103618
1.130987292277615
1.126099706744868
1.121212121212121
1.1173020527859236
1.115347018572825
1.1143695014662756
1.1133919843597262
1.1133919843597262
1.115347018572825
1.118279569892473
1.1202346041055715
1.121212121212121
1.121212121212121
1.1221896383186705
1.1241446725317692
1.1270772238514175
1.130987292277615
1.1348973607038124
1.13880742913001
1.1436950146627567
1.1515151515151516
1.1652003910068427
1.1867057673509287
1.2218963831867058
1.2746823069403714
1.348973607038123
1.4467253176930597
1.5669599217986314
1.7057673509286413
1.8592375366568916
2.018572825024438
2.176930596285435
2.3274682306940373
2.447702834799609
2.5454545454545454
2.6422287390029324
2.730205278592375
2.8054740957966766
2.8670576735092865
2.9149560117302054
2.952101661779081
2.978494623655914
2.995112414467253
3.0009775171065494
2.995112414467253
2.9775171065493646
2.949169110459433
2.9120234604105573
2.8641251221896384
2.807429130009776
2.742913000977517
2.6725317693059627
2.60019550342131
2.527859237536657
2.4594330400782014
2.3978494623655915
2.343108504398827
2.2961876832844577
2.257086999022483
2.2238514173998043
2.193548387096774
2.163245356793744
2.131964809384164
2.0987292277614857
2.0625610948191597
2.0234604105571847
1.9833822091886608
1.9413489736070384
1.8973607038123168
1.8533724340175952
1.81524926686217
1.7790811339198436
1.739980449657869
1.699902248289345
1.6608015640273706
1.6236559139784943
1.587487781036168
1.552297165200391
1.520039100684262
1.4897360703812317
1.4613880742913
1.434017595307918
1.4066471163245358
1.3841642228739004
1.3655913978494625
1.3450635386119256
1.324535679374389
1.305962854349951
1.2873900293255132
1.2688172043010753
1.2512218963831867
1.2346041055718475
1.2179863147605083
1.2023460410557183
1.1867057673509287
1.176930596285435
1.1691104594330402
1.1583577712609971
1.1466275659824048
1.133919843597263
1.121212121212121
1.1094819159335287
1.0977517106549364
1.0869990224828934
1.0762463343108504
1.0664711632453567
1.0576735092864125
1.0498533724340176
1.0449657869012707
1.0410557184750733
1.0342130987292275
1.0263929618768328
1.0195503421309873
1.0127077223851415
1.007820136852395
1.002932551319648
1.0
0.9990224828934506
0.9980449657869012
0.9960899315738024
0.997067448680352
0.9980449657869012
0.9980449657869012
0.997067448680352
0.9951124144672532
0.9941348973607038
0.9941348973607038
0.9941348973607038
0.9941348973607038
0.9941348973607038
0.9941348973607038
0.997067448680352
1.0058651026392962
1.0224828934506354
1.0498533724340176
1.093841642228739
1.1583577712609971
1.24633431085044
1.3577712609970674
1.4926686217008798
1.6441837732160314
1.8064516129032255
1.9716520039100685
2.1309872922776147
2.280547409579668
2.39980449657869
2.495601173020528
2.590420332355816
2.67644183773216
2.7497556207233624
2.809384164222874
2.857282502443793
2.8944281524926687
2.920821114369501
2.936461388074292
2.940371456500489
2.932551319648094
2.913000977517106
2.8826979472140764
2.8426197458455524
2.791788856304985
2.732160312805474
2.6637341153470184
2.589442815249267
2.5141739980449658
2.4408602150537635
2.3714565004887587
2.30791788856305
2.251221896383187
2.2023460410557183
2.1622678396871944
2.129032258064516
2.0977517106549364
2.067448680351906
2.0361681329423265
2.004887585532747
1.9726295210166176
1.9374389051808407
1.9012707722385145
1.8641251221896384
1.826001955034213
1.7888563049853372
1.7517106549364614
1.7194525904203324
1.6901270772238517
1.6578690127077225
1.624633431085044
1.5933528836754642
1.5620723362658846
1.5317693059628543
1.5024437927663734
1.474095796676442
1.4486803519061584
1.4242424242424243
1.401759530791789
1.3851417399804498
1.3714565004887584
1.3558162267839686
1.3391984359726294
1.3225806451612905
1.3069403714565004
1.2913000977517106
1.2766373411534702
1.2619745845552297
1.2473118279569892
1.2336265884652982
1.2189638318670577
1.209188660801564
1.2013685239491692
1.1915933528836755
1.181818181818182
1.1730205278592376
1.164222873900293
1.155425219941349
1.1456500488758554
1.1358748778103618
1.126099706744868
1.1163245356793745
1.10752688172043
1.099706744868035
1.0957966764418376
1.093841642228739
1.0899315738025417
1.0850439882697946
1.0801564027370478
1.0762463343108504
1.0733137829912025
1.0713587487781036
1.0694037145650048
1.067448680351906
1.064516129032258
1.0625610948191593
1.0625610948191593
1.064516129032258
1.0635386119257086
1.06158357771261
1.0596285434995112
1.0576735092864125
1.0557184750733135
1.053763440860215
1.053763440860215
1.0547409579667644
1.056695992179863
1.0596285434995112
1.0684261974584557
1.083088954056696
1.1065493646138806
1.144672531769306
1.2013685239491692
1.281524926686217
1.3861192570869991
1.5131964809384164
1.6598240469208212
1.8191593352883677
1.9853372434017595
2.150537634408602
2.3069403714565007
2.43108504398827
2.5317693059628543
2.631476050830889
2.7223851417399803
2.801564027370479
2.8670576735092865
2.921798631476051
2.9657869012707723
2.9980449657869013
3.0195503421309877
3.029325513196481
3.027370478983382
3.0127077223851417
2.986314760508309
2.949169110459433
2.903225806451613
2.84652981427175
2.7810361681329425
2.7096774193548385
2.636363636363636
2.5640273704789838
2.495601173020528
2.432062561094819
2.376344086021505
2.3284457478005867
2.2883675464320627
2.254154447702835
2.2218963831867056
2.1915933528836757
2.161290322580645
2.1309872922776147
2.099706744868035
2.0664711632453567
2.03128054740958
1.9960899315738023
1.959921798631476
1.921798631476051
1.8826979472140764
1.8484848484848484
1.8162267839687196
1.7820136852394917
1.747800586510264
1.7145650048875856
1.683284457478006
1.6529814271749756
1.624633431085044
1.5972629521016617
1.5708699902248289
1.547409579667644
1.5249266862170088
1.5073313782991202
1.4926686217008798
1.47702834799609
1.4613880742913
1.4467253176930597
1.4330400782013686
1.4193548387096775
1.4056695992179864
1.392961876832845
1.380254154447703
1.3665689149560116
1.3528836754643203
1.33822091886608
1.3264907135874875
1.316715542521994
1.305962854349951
1.2942326490713587
1.281524926686217
1.267839687194526
1.2531769305962854
1.238514173998045
1.224828934506354
1.2121212121212122
1.2003910068426198
1.1896383186705768
1.1827956989247312
1.1798631476050832
1.1759530791788857
1.1710654936461389
1.166177908113392
1.1612903225806452
1.1573802541544478
1.152492668621701
1.1485826001955035
1.1436950146627567
1.1397849462365592
1.1358748778103618
1.130987292277615
1.1290322580645162
1.1290322580645162
1.1270772238514175
1.1231671554252198
1.1192570869990224
1.1163245356793745
1.1143695014662756
1.1133919843597262
1.1133919843597262
1.1133919843597262
1.1143695014662756
1.1163245356793745
1.121212121212121
1.1290322580645162
1.141739980449658
1.164222873900293
1.2013685239491692
1.2590420332355816
1.3391984359726294
1.4418377321603129
1.564027370478983
1.7018572825024438
1.8484848484848484
1.9960899315738023
2.139784946236559
2.257086999022483
2.3548387096774195
2.453567937438905
2.5425219941348973
2.618768328445748
2.6803519061583576
2.730205278592375
2.768328445747801
2.795698924731183
2.8132942326490715
2.8211143695014664
2.8181818181818183
2.803519061583578
2.779081133919844
2.7438905180840663
2.697947214076246
2.641251221896383
2.5747800586510263
2.501466275659824
2.4271749755620724
2.355816226783969
2.2873900293255134
2.2248289345063537
2.16911045943304
2.120234604105572
2.081133919843597
2.046920821114369
2.013685239491691
1.9824046920821117
1.951124144672532
1.9188660801564028
1.8866080156402736
1.8533724340175952
1.8191593352883677
1.782991202346041
1.7468230694037146
1.710654936461388
1.678396871945259
1.6490713587487782
1.616813294232649
1.5835777126099706
1.5503421309872922
1.5190615835777126
1.4897360703812317
1.4623655913978495
1.4349951124144673
1.4086021505376345
1.3841642228739004
1.359726295210166
1.3362658846529814
1.3176930596285434
1.3020527859237536
1.284457478005865
1.2668621700879763
1.249266862170088
1.2336265884652982
1.2179863147605083
1.2023460410557183
1.187683284457478
1.173998044965787
1.160312805474096
1.147605083088954
1.1407624633431086
1.1348973607038124
1.1270772238514175
1.1173020527859236
1.10752688172043
1.096774193548387
1.086021505376344
1.075268817204301
1.064516129032258
1.0557184750733135
1.0488758553274682
1.043010752688172
1.0410557184750733
1.0410557184750733
1.0391006842619743
1.0361681329423265
1.032258064516129
1.0283479960899315
1.024437927663734
1.021505376344086
1.0195503421309873
1.0175953079178883
1.0166177908113392
1.0156402737047898
1.0156402737047898
1.0175953079178883
1.0166177908113392
1.0117302052785924
1.0087976539589445
1.0068426197458455
1.0058651026392962
1.0058651026392962
1.0058651026392962
1.0068426197458455
1.0087976539589445
1.0127077223851415
1.0205278592375366
1.035190615835777
1.0576735092864125
1.0928641251221896
1.1466275659824048
1.2218963831867058
1.3196480938416422
1.439882697947214
1.5777126099706744
1.729227761485826
1.8866080156402736
2.0439882697947214
2.193548387096774
2.3313782991202348
2.4379276637341154
2.5219941348973607
2.6021505376344085
2.673509286412512
2.7331378299120237
2.782013685239492
2.822091886608016
2.852394916911046
2.8729227761485827
2.8826979472140764
2.8797653958944283
2.8641251221896384
2.8377321603128056
2.801564027370479
2.7546432062561097
2.697947214076246
2.633431085043988
2.563049853372434
2.489736070381232
2.4173998044965788
2.3489736070381237
2.286412512218964
2.23069403714565
2.1818181818181817
2.1388074291300097
2.104594330400782
2.074291300097752
2.0439882697947214
2.013685239491691
1.9833822091886608
1.9521016617790807
1.9188660801564028
1.884652981427175
1.8504398826979471
1.81524926686217
1.780058651026393
1.7458455522971652
1.7165200391006843
1.689149560117302
1.6598240469208212
1.6304985337243405
1.6021505376344083
1.5747800586510263
1.5483870967741935
1.52297165200391
1.498533724340176
1.4750733137829912
1.4535679374389052
1.434017595307918
1.41544477028348
1.4007820136852396
1.064516129032258
1.0635386119257086
1.06158357771261
1.0606060606060606
1.0586510263929618
1.056695992179863
1.0557184750733135
1.0547409579667644
1.053763440860215
1.0518084066471165
1.050830889540567
1.0488758553274682
1.0488758553274682
1.050830889540567
1.0518084066471165
1.0518084066471165
1.0518084066471165
1.0518084066471165
1.0527859237536656
1.0547409579667644
1.0596285434995112
1.0703812316715542
1.0879765395894427
1.1163245356793745
1.1593352883675463
1.2072336265884651
1.2649071358748778
1.343108504398827
1.435972629521017
1.5395894428152492
1.6490713587487782
1.758553274682307
1.8631476050830889
1.9589442815249267
2.0439882697947214
2.117302052785924
2.177908113391984
2.219941348973607
2.249266862170088
2.27761485826002
2.3010752688172045
2.3196480938416424
2.3313782991202348
2.337243401759531
2.337243401759531
2.3284457478005867
2.3098729227761488
2.2825024437927666
2.24633431085044
2.206256109481916
2.161290322580645
2.10850439882698
2.0518084066471163
1.9951124144672527
1.9393939393939397
1.8885630498533723
1.8435972629521016
1.804496578690127
1.7712609970674489
1.7438905180840665
1.7194525904203324
1.6979472140762464
1.678396871945259
1.6608015640273706
1.640273704789834
1.6177908113391983
1.5933528836754642
1.5669599217986314
1.5405669599217986
1.5131964809384164
1.4868035190615836
1.4604105571847508
1.4349951124144673
1.409579667644184
1.388074291300098
1.3685239491691104
1.3470185728250244
1.3255131964809383
1.3040078201368523
1.2825024437927663
1.262952101661779
1.2443792766373412
1.227761485826002
1.2121212121212122
1.1964809384164223
1.181818181818182
1.1681329423264908
1.1573802541544478
1.1485826001955035
1.1378299120234605
1.1270772238514175
1.118279569892473
1.1094819159335287
1.1006842619745845
1.0928641251221896
1.0840664711632453
1.0762463343108504
1.0694037145650048
1.06158357771261
1.0557184750733135
1.0518084066471165
1.0469208211143697
1.040078201368524
1.0332355816226784
1.0263929618768328
1.0195503421309873
1.013685239491691
1.0087976539589445
1.0039100684261977
0.9990224828934506
0.9941348973607038
0.989247311827957
0.9863147605083088
0.9853372434017597
0.981427174975562
0.9775171065493646
0.9736070381231672
0.9706744868035192
0.967741935483871
0.9657869012707724
0.9648093841642228
0.9638318670576737
0.9638318670576737
0.9638318670576737
0.9648093841642228
0.967741935483871
0.9696969696969696
0.9716520039100685
0.9736070381231672
0.975562072336266
0.9775171065493646
0.9824046920821116
0.9912023460410556
1.0058651026392962
1.0303030303030305
1.0694037145650048
1.1251221896383188
1.1867057673509287
1.2570869990224829
1.348973607038123
1.456500488758553
1.5728250244379276
1.6920821114369502
1.8084066471163245
1.9178885630498532
2.01564027370479
2.101661779081134
2.174975562072336
2.2355816226783967
2.27761485826002
2.30791788856305
2.337243401759531
2.361681329423265
2.3812316715542523
2.393939393939394
2.39980449657869
2.3978494623655915
2.388074291300098
2.36950146627566
2.3421309872922778
2.3059628543499517
2.260997067448681
2.21505376344086
2.166177908113392
2.112414467253177
2.058651026392962
2.006842619745845
1.9589442815249267
1.9149560117302051
1.87683284457478
1.8435972629521016
1.81524926686217
1.7898338220918866
1.7663734115347018
1.7448680351906158
1.7243401759530792
1.7028347996089932
1.6793743890518085
1.6549364613880744
1.6285434995112416
1.6021505376344083
1.5747800586510263
1.547409579667644
1.521016617790811
1.495601173020528
1.4711632453567938
1.447702834799609
1.4291300097751711
1.4115347018572826
1.392961876832845
1.3734115347018572
1.35386119257087
1.335288367546432
1.3186705767350928
1.303030303030303
1.2883675464320623
1.273704789833822
1.2609970674486803
1.2834799608993157
1.3264907135874875
1.343108504398827
1.343108504398827
1.335288367546432
1.3225806451612905
1.3079178885630498
1.2913000977517106
1.2756598240469208
1.2609970674486803
1.2482893450635386
1.2365591397849462
1.2258064516129032
1.217008797653959
1.2111436950146628
1.2072336265884651
1.2003910068426198
1.1925708699902249
1.1837732160312806
1.1749755620723363
1.1652003910068427
1.155425219941349
1.147605083088954
1.1407624633431086
1.1358748778103618
1.130987292277615
1.1290322580645162
1.1280547409579669
1.126099706744868
1.1221896383186705
1.118279569892473
1.1143695014662756
1.1094819159335287
1.104594330400782
1.1006842619745845
1.0957966764418376
1.0918866080156402
1.0899315738025417
1.088954056695992
1.0899315738025417
1.0928641251221896
1.0948191593352885
1.0957966764418376
1.0957966764418376
1.096774193548387
1.0987292277614855
1.104594330400782
1.1163245356793745
1.1378299120234605
1.1720430107526882
1.224828934506354
1.2854349951124144
1.3607038123167154
1.4643206256109482
1.5913978494623655
1.7360703812316716
1.8914956011730208
2.048875855327468
2.20039100684262
2.3421309872922778
2.469208211143695
2.581622678396872
2.678396871945259
2.748778103616813
2.7996089931573804
2.8475073313782997
2.8885630498533725
2.9227761485826003
2.949169110459433
2.964809384164223
2.970674486803519
2.9657869012707723
2.9472140762463344
2.9159335288367547
2.870967741935484
2.814271749755621
2.7536656891495603
2.6901270772238512
2.6177908113391983
2.541544477028348
2.466275659824047
2.3949169110459434
2.3304007820136854
2.2737047898338223
2.2248289345063537
2.182795698924731
2.145650048875855
2.1114369501466275
2.081133919843597
2.0518084066471163
2.0195503421309877
1.9843597262952104
1.948191593352884
1.9100684261974583
1.871945259042033
1.833822091886608
1.796676441837732
1.7605083088954057
1.7243401759530792
1.689149560117302
1.653958944281525
1.624633431085044
1.5972629521016617
1.56891495601173
1.5405669599217986
1.5131964809384164
1.4887585532746823
1.466275659824047
1.4457478005865103
1.426197458455523
1.4076246334310851
1.3890518084066472
1.3714565004887584
1.3577712609970674
1.346041055718475
1.332355816226784
1.3186705767350928
1.305962854349951
1.29227761485826
1.278592375366569
1.2649071358748778
1.2502443792766371
1.2355816226783969
1.219941348973607
1.2043010752688172
1.1886608015640274
1.176930596285435
1.1671554252199414
1.1544477028347997
1.141739980449658
1.1280547409579669
1.1143695014662756
1.1006842619745845
1.0869990224828934
1.072336265884653
1.0586510263929618
1.04594330400782
1.0332355816226784
1.024437927663734
1.018572825024438
1.010752688172043
1.0039100684261977
0.9990224828934506
0.9941348973607038
0.9902248289345064
0.9882697947214076
0.9872922776148584
0.9872922776148584
0.9872922776148584
0.9872922776148584
0.9872922776148584
0.989247311827957
0.9921798631476052
0.9931573802541545
0.9912023460410556
0.9902248289345064
0.989247311827957
0.9902248289345064
0.9951124144672532
1.0058651026392962
1.029325513196481
1.0694037145650048
1.130987292277615
1.2023460410557183
1.2883675464320623
1.4037145650048877
1.541544477028348
1.6950146627565983
1.8563049853372435
2.0175953079178885
2.1710654936461387
2.3118279569892475
2.4379276637341154
2.547409579667644
2.6392961876832843
2.716520039100684
2.76930596285435
2.806451612903226
2.841642228739003
2.8699902248289346
2.889540566959922
2.8993157380254155
2.900293255131965
2.889540566959922
2.8670576735092865
2.831867057673509
2.782991202346041
2.7233626588465296
2.66177908113392
2.5962854349951123
2.52297165200391
2.44672531769306
2.3714565004887587
2.302052785923754
2.2385141739980448
2.1818181818181817
2.132942326490713
2.090909090909091
2.0518084066471163
2.016617790811339
1.9833822091886608
1.9550342130987293
1.927663734115347
1.8973607038123168
1.865102639296188
1.8318670576735088
1.796676441837732
1.7595307917888563
1.721407624633431
1.683284457478006
1.6471163245356797
1.611925708699902
1.5786901270772238
1.5513196480938416
1.525904203323558
1.498533724340176
1.4701857282502444
1.4418377321603129
1.414467253176931
1.388074291300098
1.364613880742913
1.343108504398827
1.321603128054741
1.3020527859237536
1.284457478005865
1.267839687194526
1.2551319648093842
1.2453567937438903
1.2336265884652982
1.219941348973607
1.206256109481916
1.1935483870967742
1.1798631476050832
1.1671554252199414
1.155425219941349
1.1436950146627567
1.1319648093841643
1.1221896383186705
1.1163245356793745
1.1114369501466277
1.1036168132942326
1.093841642228739
1.0850439882697946
1.0762463343108504
1.0684261974584557
1.0606060606060606
1.053763440860215
1.04594330400782
1.0371456500488758
1.029325513196481
1.021505376344086
1.0156402737047898
1.0127077223851415
1.007820136852395
1.002932551319648
0.9990224828934506
1.0
1.0039100684261977
1.0039100684261977
1.002932551319648
1.0009775171065494
0.9990224828934506
0.997067448680352
0.9990224828934506
1.002932551319648
1.0058651026392962
1.0087976539589445
1.0127077223851415
1.0175953079178883
1.0234604105571847
1.0303030303030305
1.040078201368524
1.0576735092864125
1.0869990224828934
1.1329423264907137
1.1994134897360704
1.273704789833822
1.3616813294232648
1.478983382209189
1.6207233626588464
1.7790811339198436
1.945259042033236
2.112414467253177
2.2737047898338223
2.423264907135875
2.558162267839687
2.67644183773216
2.777126099706745
2.850439882697948
2.9042033235581624
2.9550342130987293
3.0
3.0361681329423265
3.0625610948191597
3.0791788856304985
3.085043988269794
3.0791788856304985
3.06158357771261
3.03128054740958
2.9902248289345064
2.9423264907135875
2.887585532746823
