ppg
2.4711632453567938
2.5268817204301075
2.581622678396872
2.635386119257087
2.686217008797654
2.735092864125122
2.7810361681329425
2.8240469208211145
2.8563049853372435
2.881720430107527
2.90811339198436
2.9315738025415445
2.952101661779081
2.9687194525904204
2.9824046920821115
2.9931573802541545
3.0009775171065494
3.007820136852395
3.013685239491691
3.0195503421309877
3.0205278592375366
3.0195503421309877
3.0195503421309877
3.0195503421309877
3.01564027370479
3.0087976539589443
2.997067448680352
2.979472140762464
2.9550342130987293
2.9227761485826003
2.881720430107527
2.831867057673509
2.7751710654936463
2.719452590420332
2.66177908113392
2.595307917888563
2.52297165200391
2.4457478005865103
2.3655913978494625
2.2844574780058653
2.201368523949169
2.118279569892473
2.0361681329423265
1.9560117302052784
1.8778103616813293
1.8132942326490715
1.7565982404692082
1.694037145650049
1.6304985337243405
1.5679374389051808
1.5073313782991202
1.4506353861192571
1.3998044965786902
1.3548387096774193
1.3157380254154447
1.2834799608993157
1.2580645161290325
1.238514173998045
1.2316715542521994
1.2336265884652982
1.2404692082111437
1.2551319648093842
1.278592375366569
1.310850439882698
1.3519061583577712
1.4007820136852396
1.456500488758553
1.5180840664711632
1.5835777126099706
1.651026392961877
1.7135874877810362
1.7732160312805474
1.8387096774193548
1.9071358748778104
1.9765395894428155
2.046920821114369
2.117302052785924
2.1867057673509285
2.254154447702835
2.320625610948192
2.3841642228739004
2.442815249266862
2.498533724340176
2.5434995112414467
2.5806451612903225
2.619745845552297
2.6578690127077222
2.6930596285435
2.7223851417399803
2.747800586510264
2.7702834799608995
2.787878787878788
2.8025415444770285
2.817204301075269
2.83088954056696
2.8396871945259043
2.8455522971652005
2.8533724340175954
2.86217008797654
2.8690127077223853
2.8729227761485827
2.8719452590420333
2.866080156402737
2.8533724340175954
2.835777126099707
2.8103616813294234
2.7781036168132944
2.7438905180840663
2.704789833822092
2.656891495601173
2.601173020527859
2.539589442815249
2.4711632453567938
2.398826979472141
2.321603128054741
2.241446725317693
2.160312805474096
2.0772238514174
1.994134897360704
1.9130009775171064
1.844574780058651
1.782991202346041
1.7145650048875856
1.6441837732160314
1.573802541544477
1.5053763440860215
1.439882697947214
1.3782991202346042
1.3206256109481915
1.2668621700879763
1.2179863147605083
1.1749755620723363
1.1456500488758554
1.126099706744868
1.1065493646138806
1.0909090909090908
1.0821114369501466
1.0821114369501466
1.0918866080156402
1.1114369501466277
1.141739980449658
1.1808406647116323
1.227761485826002
1.281524926686217
1.3421309872922775
1.401759530791789
1.4613880742913
1.5278592375366569
1.5972629521016617
1.6695992179863148
1.7419354838709675
1.8142717497556209
1.8866080156402736
1.9589442815249267
2.0303030303030303
2.1006842619745845
2.16911045943304
2.2267839687194524
2.278592375366569
2.333333333333333
2.3870967741935485
2.436950146627566
2.4819159335288368
2.5219941348973607
2.557184750733138
2.587487781036168
2.613880742913001
2.636363636363636
2.6559139784946235
2.674486803519061
2.6881720430107525
2.7008797653958942
2.7155425219941347
2.7311827956989245
2.745845552297165
2.7595307917888565
2.771260997067449
2.779081133919844
2.782991202346041
2.782013685239492
2.776148582600196
2.7546432062561097
2.724340175953079
2.695014662756598
2.6608015640273703
2.6207233626588464
2.573802541544477
2.5190615835777126
2.4594330400782014
2.3958944281524928
2.3284457478005867
2.257086999022483
2.1837732160312804
2.10752688172043
2.03128054740958
1.9667644183773216
1.9100684261974583
1.847507331378299
1.7839687194525904
1.7233626588465298
1.6666666666666667
1.6158357771260996
1.5708699902248289
1.530791788856305
1.4975562072336266
1.4721407624633431
1.452590420332356
1.4437927663734116
1.4418377321603129
1.4437927663734116
1.4506353861192571
1.4623655913978495
1.478005865102639
1.499511241446725
1.5278592375366569
1.563049853372434
1.6050830889540566
1.6549364613880744
1.7126099706744868
1.775171065493646
1.833822091886608
1.8914956011730208
1.9560117302052784
2.024437927663734
2.093841642228739
2.163245356793744
2.231671554252199
2.2981427174975564
2.361681329423265
2.4222873900293256
2.479960899315738
2.535679374389052
2.581622678396872
2.622678396871945
2.667644183773216
2.7126099706744866
2.755620723362659
2.795698924731183
2.831867057673509
2.8641251221896384
2.8914956011730206
2.913978494623656
2.932551319648094
2.9472140762463344
2.9589442815249267
2.964809384164223
2.967741935483871
2.973607038123167
2.9804496578690127
2.988269794721408
2.995112414467253
3.0009775171065494
3.004887585532747
3.005865102639296
3.003910068426197
2.997067448680352
2.9853372434017595
2.9687194525904204
2.9472140762463344
2.920821114369501
2.887585532746823
2.84652981427175
2.7976539589442817
2.7419354838709675
2.678396871945259
2.6080156402737047
2.532746823069404
2.453567937438905
2.3714565004887587
2.2873900293255134
2.2130987292277613
2.144672531769306
2.069403714565005
1.992179863147605
1.9159335288367547
1.839687194525904
1.7653958944281525
1.694037145650049
1.624633431085044
1.560117302052786
1.500488758553275
1.444770283479961
1.401759530791789
1.3685239491691104
1.3333333333333333
1.300097751710655
1.270772238514174
1.249266862170088
1.2365591397849462
1.2316715542521994
1.2375366568914956
1.2541544477028348
1.281524926686217
1.3206256109481915
1.3685239491691104
1.418377321603128
1.4721407624633431
1.533724340175953
1.6001955034213098
1.6695992179863148
1.7409579667644184
1.8132942326490715
1.8856304985337244
1.9589442815249267
2.03128054740958
2.102639296187683
2.1730205278592374
2.232649071358749
2.286412512218964
2.345063538611926
2.404692082111437
2.463343108504399
2.5190615835777126
2.572825024437928
2.621700879765396
2.665689149560117
2.7038123167155423
2.736070381231672
2.7624633431085046
2.779081133919844
2.789833822091887
2.801564027370479
2.812316715542522
2.823069403714565
2.833822091886608
2.844574780058651
2.855327468230694
2.865102639296188
2.873900293255132
2.8797653958944283
2.8826979472140764
2.8807429130009776
2.8729227761485827
2.860215053763441
2.841642228739003
2.817204301075269
2.78494623655914
2.744868035190616
2.696969696969697
2.641251221896383
2.579667644183773
2.5131964809384164
2.442815249266862
2.367546432062561
2.300097751710655
2.236559139784946
2.164222873900293
2.0869990224828934
2.007820136852395
1.927663734115347
1.8484848484848484
1.7712609970674489
1.6959921798631477
1.6226783968719452
1.552297165200391
1.4858260019550342
1.423264907135875
1.3743890518084063
1.3333333333333333
1.289345063538612
1.24633431085044
1.206256109481916
1.1720430107526882
1.144672531769306
1.126099706744868
1.1163245356793745
1.1143695014662756
1.121212121212121
1.1378299120234605
1.163245356793744
1.195503421309873
1.2355816226783969
1.2834799608993157
1.3391984359726294
1.4007820136852396
1.4672531769305963
1.5356793743890518
1.6050830889540566
1.6764418377321604
1.747800586510264
1.8201368523949168
1.89247311827957
1.9560117302052784
2.01564027370479
2.0791788856304985
2.1436950146627565
2.2082111436950145
2.269794721407625
2.3284457478005867
2.3822091886608017
2.43108504398827
2.4750733137829912
2.5141739980449658
2.548387096774193
2.572825024437928
2.591397849462365
2.6099706744868034
2.627565982404692
2.643206256109482
2.656891495601173
2.6695992179863146
2.6823069403714563
2.6940371456500487
2.704789833822092
2.713587487781036
2.721407624633431
2.7262952101661777
2.7262952101661777
2.721407624633431
2.713587487781036
2.699902248289345
2.679374389051808
2.6510263929618767
2.6148582600195502
2.570869990224829
2.5190615835777126
2.4604105571847508
2.3949169110459434
2.324535679374389
2.259042033235582
2.196480938416422
2.12316715542522
2.04594330400782
1.9667644183773216
1.8866080156402736
1.8084066471163245
1.732160312805474
1.6578690127077225
1.585532746823069
1.5161290322580645
1.4506353861192571
1.391006842619746
1.3450635386119256
1.3079178885630498
1.267839687194526
1.23069403714565
1.1974584555229717
1.144672531769306
1.0850439882697946
1.0527859237536656
1.0371456500488758
1.035190615835777
1.043010752688172
1.0606060606060606
1.086021505376344
1.118279569892473
1.1573802541544478
1.2043010752688172
1.2580645161290325
1.3186705767350928
1.3851417399804498
1.456500488758553
1.5317693059628543
1.6109481915933528
1.6911045943304008
1.772238514173998
1.8533724340175952
1.924731182795699
1.991202346041056
2.0625610948191597
2.1358748778103616
2.209188660801564
2.280547409579668
2.3489736070381237
2.4134897360703813
2.474095796676442
2.530791788856305
2.5835777126099706
2.63049853372434
2.665689149560117
2.6930596285435
2.720430107526881
2.744868035190616
2.7673509286412514
2.7869012707722387
2.8044965786901277
2.8211143695014664
2.8367546432062563
2.8514173998044967
2.865102639296188
2.878787878787879
2.8914956011730206
2.898338220918866
2.9012707722385143
2.9042033235581624
2.905180840664712
2.903225806451613
2.8963831867057674
2.8836754643206257
2.8641251221896384
2.8377321603128056
2.8044965786901277
2.763440860215054
2.7145650048875853
2.665689149560117
2.6158357771261
2.558162267839687
2.493646138807429
2.4242424242424243
2.350928641251222
2.274682306940372
2.1974584555229715
2.1192570869990224
2.0410557184750733
1.963831867057673
1.889540566959922
1.818181818181818
1.758553274682307
1.7067448680351909
1.651026392961877
1.5933528836754642
1.5366568914956011
1.482893450635386
1.434017595307918
1.3900293255131966
1.3528836754643203
1.3225806451612905
1.3010752688172045
1.289345063538612
1.2883675464320623
1.2981427174975562
1.3157380254154447
1.3440860215053765
1.3822091886608017
1.4301075268817205
1.4868035190615836
1.5493646138807429
1.6158357771260996
1.686217008797654
1.758553274682307
1.8318670576735088
1.905180840664712
1.9696969696969695
2.029325513196481
2.0957966764418376
2.1652003910068425
2.2346041055718477
2.303030303030303
2.36950146627566
2.4330400782013686
2.4946236559139785
2.5532746823069403
2.6070381231671558
2.6559139784946235
2.6940371456500487
2.724340175953079
2.755620723362659
2.782991202346041
2.806451612903226
2.825024437927664
2.8396871945259043
2.8514173998044967
2.8611925708699903
2.8699902248289346
2.8797653958944283
2.8885630498533725
2.89345063538612
2.8963831867057674
2.9012707722385143
2.906158357771261
2.909090909090909
2.909090909090909
2.903225806451613
2.8905180840664717
2.8719452590420333
2.84652981427175
2.811339198435973
2.7673509286412514
2.7145650048875853
2.66177908113392
2.606060606060606
2.539589442815249
2.4652981427174976
2.386119257086999
2.303030303030303
2.217986314760508
2.131964809384164
2.0449657869012707
1.9579667644183771
1.8729227761485825
1.790811339198436
1.721407624633431
1.6598240469208212
1.5913978494623655
1.521994134897361
1.4545454545454546
1.3890518084066472
1.3284457478005864
1.2717497556207231
1.219941348973607
1.1730205278592376
1.1319648093841643
1.096774193548387
1.067448680351906
1.0498533724340176
1.0420332355816226
1.0371456500488758
1.0381231671554252
1.0488758553274682
1.0703812316715542
1.1016617790811338
1.142717497556207
1.1925708699902249
1.2502443792766371
1.313782991202346
1.3812316715542523
1.444770283479961
1.5063538611925709
1.573802541544477
1.6441837732160314
1.715542521994135
1.7869012707722385
1.857282502443793
1.927663734115347
1.997067448680352
2.065493646138808
2.131964809384164
2.196480938416422
2.2580645161290325
2.3098729227761488
2.3548387096774195
2.401759530791789
2.44672531769306
2.487781036168133
2.5219941348973607
2.550342130987292
2.573802541544477
2.592375366568915
2.6070381231671558
2.619745845552297
2.631476050830889
2.6402737047898337
2.6480938416422286
2.6578690127077222
2.667644183773216
2.67644183773216
2.684261974584555
2.6901270772238512
2.6911045943304006
2.687194525904203
2.67644183773216
2.6578690127077222
2.631476050830889
2.595307917888563
2.5562072336265884
2.5131964809384164
2.4604105571847508
2.3978494623655915
2.3284457478005867
2.254154447702835
2.176930596285435
2.0948191593352883
2.0097751710654936
1.9227761485826005
1.836754643206256
1.7517106549364614
1.6803519061583578
1.616813294232649
1.5464320625610948
1.4731182795698925
1.4007820136852396
1.3304007820136852
1.262952101661779
1.198435972629521
1.13880742913001
1.0850439882697946
1.0371456500488758
0.9960899315738024
0.9638318670576737
0.9452590420332356
0.9364613880742912
0.9305962854349952
0.9296187683284456
0.935483870967742
0.9501466275659824
0.9736070381231672
1.0068426197458455
1.0488758553274682
1.099706744868035
1.1583577712609971
1.2238514173998043
1.2883675464320623
1.3528836754643203
1.4252199413489737
1.501466275659824
1.5796676441837731
1.6578690127077225
1.7360703812316716
1.81524926686217
1.8944281524926687
1.9726295210166176
2.050830889540567
2.1270772238514173
2.2218963831867056
2.315738025415445
2.386119257086999
2.452590420332356
2.5141739980449658
2.570869990224829
2.622678396871945
2.667644183773216
2.7067448680351904
2.739980449657869
2.7673509286412514
2.789833822091887
2.809384164222874
2.822091886608016
2.831867057673509
2.8455522971652005
2.8611925708699903
2.877810361681329
2.895405669599218
2.913000977517106
2.9286412512218964
2.9423264907135875
2.952101661779081
2.9579667644183774
2.9589442815249267
2.95405669599218
2.943304007820137
2.9266862170087977
2.905180840664712
2.877810361681329
2.844574780058651
2.8044965786901277
2.757575757575758
2.7038123167155423
2.644183773216031
2.579667644183773
2.5112414467253177
2.4389051808406648
2.372434017595308
2.3088954056695994
2.2375366568914954
2.164222873900293
2.088954056695992
2.0146627565982405
1.9423264907135875
1.871945259042033
1.804496578690127
1.7409579667644184
1.6823069403714566
1.6275659824046922
1.5786901270772238
1.541544477028348
1.512218963831867
1.482893450635386
1.458455522971652
1.439882697947214
1.4301075268817205
1.4291300097751711
1.4389051808406648
1.4604105571847508
1.4916911045943304
1.5327468230694037
1.581622678396872
1.632453567937439
1.6852394916911049
1.747800586510264
1.81524926686217
1.8856304985337244
1.9589442815249267
2.032258064516129
2.104594330400782
2.174975562072336
2.244379276637341
2.312805474095797
2.3792766373411536
2.444770283479961
2.498533724340176
2.5464320625610948
2.598240469208211
2.650048875855328
2.699902248289345
2.745845552297165
2.7869012707722387
2.823069403714565
2.8533724340175954
2.877810361681329
2.898338220918866
2.9159335288367547
2.9266862170087977
2.9335288367546437
2.9423264907135875
2.9530791788856305
2.962854349951124
2.973607038123167
2.983382209188661
2.992179863147605
2.9980449657869013
3.0
2.997067448680352
2.9902248289345064
2.9775171065493646
2.9589442815249267
2.9345063538611926
2.903225806451613
2.865102639296188
2.819159335288368
2.7673509286412514
2.708699902248289
2.643206256109482
2.572825024437928
2.4975562072336266
2.4173998044965788
2.334310850439883
2.260019550342131
2.1915933528836757
2.114369501466276
2.034213098729228
1.95405669599218
1.8748778103616808
1.7976539589442817
1.7233626588465298
1.651026392961877
1.581622678396872
1.5161290322580645
1.455522971652004
1.409579667644184
1.3724340175953078
1.3333333333333333
1.2961876832844574
1.262952101661779
1.2346041055718475
1.2130987292277615
1.1994134897360704
1.1925708699902249
1.1945259042033236
1.206256109481916
1.227761485826002
1.2590420332355816
1.2971652003910068
1.3401759530791788
1.3919843597262953
1.4506353861192571
1.5161290322580645
1.58455522971652
1.6559139784946235
1.7272727272727273
1.7986314760508308
1.8699902248289344
1.9413489736070384
2.013685239491691
2.0772238514174
2.136852394916911
2.203323558162268
2.271749755620724
2.3391984359726297
2.404692082111437
2.4652981427174976
2.520039100684262
2.5698924731182795
2.613880742913001
2.652003910068426
2.6852394916911044
2.7116324535679373
2.730205278592375
2.7419354838709675
2.7546432062561097
2.7653958944281527
2.774193548387097
2.782991202346041
2.793743890518084
2.803519061583578
2.8132942326490715
2.8211143695014664
2.8269794721407626
2.8299120234604107
2.8269794721407626
2.820136852394917
2.811339198435973
2.7976539589442817
2.777126099706745
2.750733137829912
2.716520039100684
2.673509286412512
2.622678396871945
2.5650048875855327
2.4995112414467253
2.4281524926686218
2.3519061583577714
2.283479960899316
2.217986314760508
2.142717497556207
2.0625610948191597
1.9804496578690127
1.8993157380254155
1.8201368523949168
1.7419354838709675
1.6666666666666667
1.5933528836754642
1.521994134897361
1.4535679374389052
1.3988269794721409
1.3509286412512218
1.2961876832844574
1.241446725317693
1.187683284457478
1.1397849462365592
1.096774193548387
1.0606060606060606
1.0312805474095796
1.0097751710654936
0.997067448680352
0.9931573802541545
0.9980449657869012
1.013685239491691
1.0391006842619743
1.072336265884653
1.1143695014662756
1.164222873900293
1.2228739002932552
1.2873900293255132
1.3548387096774193
1.4252199413489737
1.498533724340176
1.573802541544477
1.6490713587487782
1.7174975562072337
1.7820136852394917
1.8533724340175952
1.9286412512218964
2.005865102639296
2.0821114369501466
2.157380254154448
2.23069403714565
2.300097751710655
2.364613880742913
2.4252199413489737
2.479960899315738
2.5288367546432062
2.5669599217986314
2.5972629521016617
2.627565982404692
2.656891495601173
2.6832844574780057
2.70772238514174
2.730205278592375
2.7517106549364616
2.773216031280548
2.793743890518084
2.814271749755621
2.832844574780059
2.8455522971652005
2.855327468230694
2.865102639296188
2.873900293255132
2.8797653958944283
2.881720430107527
2.878787878787879
2.870967741935484
2.857282502443793
2.838709677419355
2.8132942326490715
2.7810361681329425
2.742913000977517
2.7038123167155423
2.66177908113392
2.611925708699902
2.555229716520039
2.493646138807429
2.4271749755620724
2.357771260997068
2.2873900293255134
2.2170087976539588
2.146627565982405
2.078201368523949
2.0117302052785924
1.956989247311828
1.9100684261974583
1.8592375366568916
1.8084066471163245
1.7605083088954057
1.715542521994135
1.675464320625611
1.6422287390029326
1.6138807429130009
1.5933528836754642
1.5806451612903225
1.5747800586510263
1.576735092864125
1.5865102639296187
1.603128054740958
1.6275659824046922
1.6608015640273706
1.7028347996089932
1.7526881720430108
1.8093841642228736
1.870967741935484
1.9374389051808407
2.005865102639296
2.075268817204301
2.145650048875855
2.206256109481916
2.26197458455523
2.3225806451612905
2.3841642228739004
2.4457478005865103
2.506353861192571
2.5650048875855327
2.6207233626588464
2.673509286412512
2.724340175953079
2.773216031280548
2.819159335288368
2.854349951124145
2.881720430107527
2.909090909090909
2.9345063538611926
2.956989247311828
2.975562072336266
2.9902248289345064
3.0019550342130987
3.010752688172043
3.0195503421309877
3.027370478983382
3.0361681329423265
3.0449657869012707
3.048875855327468
3.0498533724340176
3.0527859237536656
3.0547409579667644
3.0527859237536656
3.046920821114369
3.035190615835777
3.016617790811339
2.992179863147605
2.959921798631476
2.921798631476051
2.87683284457478
2.831867057673509
2.78494623655914
2.729227761485826
2.664711632453568
2.593352883675464
2.5180840664711632
2.4389051808406648
2.356793743890518
2.2737047898338223
2.189638318670577
2.1065493646138806
2.024437927663734
1.943304007820137
1.87683284457478
1.8172043010752688
1.750733137829912
1.683284457478006
1.616813294232649
1.5532746823069403
1.4936461388074291
1.4389051808406648
1.3900293255131966
1.346041055718475
1.3079178885630498
1.2766373411534702
1.2570869990224829
1.24633431085044
1.2375366568914956
1.2355816226783969
1.2434017595307918
1.2619745845552297
1.2903225806451613
1.3304007820136852
1.380254154447703
1.436950146627566
1.498533724340176
1.5650048875855327
1.635386119257087
1.699902248289345
1.7624633431085044
1.8299120234604105
1.9012707722385145
1.9736070381231672
2.0449657869012707
2.1163245356793743
2.188660801564027
2.260019550342131
2.3284457478005867
2.393939393939394
2.455522971652004
2.506353861192571
2.549364613880743
2.5943304007820136
2.6373411534701856
2.67644183773216
2.7116324535679373
2.740957966764418
2.7653958944281527
2.7859237536656893
2.803519061583578
2.8181818181818183
2.831867057673509
2.844574780058651
2.8533724340175954
2.859237536656892
2.8670576735092865
2.874877810361681
2.881720430107527
2.886608015640274
2.887585532746823
2.884652981427175
2.877810361681329
2.8641251221896384
2.844574780058651
2.8181818181818183
2.787878787878788
2.7536656891495603
2.710654936461388
2.659824046920821
2.603128054740958
2.539589442815249
2.4711632453567938
2.398826979472141
2.3225806451612905
2.2453567937438903
2.167155425219941
2.088954056695992
2.0097751710654936
1.943304007820137
1.8826979472140764
1.8162267839687196
1.747800586510264
1.678396871945259
1.611925708699902
1.5483870967741935
1.487781036168133
1.4291300097751711
1.3743890518084063
1.324535679374389
1.2805474095796676
1.2502443792766371
1.2297165200391007
1.2082111436950147
1.1915933528836755
1.1808406647116323
1.1779081133919844
1.1837732160312806
1.198435972629521
1.2228739002932552
1.2580645161290325
1.3020527859237536
1.35386119257087
1.4115347018572826
1.469208211143695
1.5268817204301075
1.590420332355816
1.656891495601173
1.7253176930596286
1.7947214076246334
1.8641251221896384
1.935483870967742
2.006842619745845
2.0772238514174
2.147605083088954
2.2170087976539588
2.2766373411534704
2.329423264907136
2.3870967741935485
2.442815249266862
2.495601173020528
2.5434995112414467
2.5855327468230693
2.621700879765396
2.652003910068426
2.677419354838709
2.697947214076246
2.7155425219941347
2.730205278592375
2.7390029325513194
2.744868035190616
2.752688172043011
2.7614858260019552
2.771260997067449
2.7810361681329425
2.789833822091887
2.7976539589442817
2.8025415444770285
2.803519061583578
2.7996089931573804
2.789833822091887
2.7751710654936463
2.7536656891495603
2.724340175953079
2.6852394916911044
2.638318670576735
2.5835777126099706
2.5219941348973607
2.455522971652004
2.3851417399804498
2.310850439882698
2.233626588465298
2.1544477028347995
2.074291300097752
2.005865102639296
1.943304007820137
1.8729227761485825
1.8005865102639296
1.729227761485826
1.6598240469208212
1.5923753665689149
1.5278592375366569
1.4672531769305963
1.4115347018572826
1.3616813294232648
1.3176930596285434
1.2453567937438903
1.1612903225806452
1.10752688172043
1.0742913000977516
1.0547409579667644
1.0478983382209188
1.050830889540567
1.0625610948191593
1.083088954056696
1.1143695014662756
1.1544477028347997
1.2023460410557183
1.2580645161290325
1.3147605083088951
1.3734115347018572
1.4408602150537635
1.5141739980449658
1.5923753665689149
1.672531769305963
1.7546432062561097
1.8377321603128052
1.920821114369501
2.003910068426197
2.0869990224828934
2.16911045943304
2.2385141739980448
2.300097751710655
2.366568914956012
2.432062561094819
2.4946236559139785
2.5532746823069403
2.6080156402737047
2.6578690127077222
2.701857282502444
2.7390029325513194
2.7702834799608995
2.7966764418377323
2.8132942326490715
2.8240469208211145
2.8377321603128056
2.852394916911046
2.8670576735092865
2.8807429130009776
2.8944281524926687
2.90811339198436
