ppg
1.0694037145650048
1.072336265884653
1.0772238514173995
1.0801564027370478
1.083088954056696
1.0840664711632453
1.0840664711632453
1.083088954056696
1.0821114369501466
1.0811339198435972
1.0811339198435972
1.0869990224828934
1.1036168132942326
1.1348973607038124
1.176930596285435
1.2326490713587488
1.313782991202346
1.4193548387096775
1.544477028347996
1.6842619745845553
1.8328445747800584
1.9833822091886608
2.1309872922776147
2.270772238514174
2.398826979472141
2.5131964809384164
2.60019550342131
2.668621700879765
2.736070381231672
2.7966764418377323
2.849462365591398
2.8914956011730206
2.9227761485826003
2.9423264907135875
2.951124144672532
2.948191593352884
2.9335288367546437
2.906158357771261
2.868035190615836
2.8240469208211145
2.773216031280548
2.7116324535679373
2.6422287390029324
2.567937438905181
2.4916911045943304
2.4164222873900294
2.3440860215053765
2.278592375366569
2.219941348973607
2.1681329423264906
2.124144672531769
2.0879765395894427
2.0576735092864125
2.0283479960899315
2.0009775171065494
1.9726295210166176
1.9442815249266865
1.9149560117302051
1.8836754643206255
1.8494623655913975
1.8132942326490715
1.7761485826001957
1.7390029325513197
1.7057673509286413
1.6764418377321604
1.6441837732160314
1.611925708699902
1.581622678396872
1.5532746823069403
1.5268817204301075
1.5024437927663734
1.478983382209189
1.457478005865103
1.436950146627566
1.418377321603128
1.3998044965786902
1.3851417399804498
1.3734115347018572
1.3587487781036167
1.3421309872922775
1.3264907135874875
1.3098729227761483
1.2942326490713587
1.2795698924731185
1.2658846529814272
1.2541544477028348
1.2434017595307918
1.2336265884652982
1.2287390029325511
1.2258064516129032
1.2209188660801564
1.217008797653959
1.2121212121212122
1.2072336265884651
1.2023460410557183
1.1974584555229717
1.1925708699902249
1.1867057673509287
1.1808406647116323
1.1749755620723363
1.1691104594330402
1.166177908113392
1.166177908113392
1.164222873900293
1.1612903225806452
1.1593352883675463
1.1573802541544478
1.1564027370478984
1.1544477028347997
1.152492668621701
1.1495601173020529
1.147605083088954
1.1466275659824048
1.1485826001955035
1.1515151515151516
1.1534701857282503
1.1544477028347997
1.1544477028347997
1.155425219941349
1.1583577712609971
1.166177908113392
1.1827956989247312
1.2130987292277615
1.262952101661779
1.3343108504398826
1.4291300097751711
1.525904203323558
1.629521016617791
1.7575757575757576
1.8993157380254155
2.04594330400782
2.190615835777126
2.3274682306940373
2.453567937438905
2.5669599217986314
2.667644183773216
2.7546432062561097
2.8289345063538613
2.8807429130009776
2.917888563049853
2.9530791788856305
2.983382209188661
3.005865102639296
3.018572825024438
3.0205278592375366
3.0097751710654936
2.986314760508309
2.9501466275659824
2.9012707722385143
2.8406647116324537
2.7702834799608995
2.699902248289345
2.619745845552297
2.5288367546432062
2.443792766373412
2.364613880742913
2.2932551319648096
2.2297165200391005
2.1739980449657867
2.126099706744868
2.085043988269794
2.048875855327468
2.016617790811339
1.988269794721408
1.9618768328445748
1.932551319648094
1.9012707722385145
1.8670576735092863
1.83088954056696
1.7927663734115349
1.7546432062561097
1.715542521994135
1.6764418377321604
1.6392961876832846
1.603128054740958
1.56891495601173
1.541544477028348
1.517106549364614
1.490713587487781
1.4652981427174976
1.4408602150537635
1.418377321603128
1.3978494623655917
1.3782991202346042
1.359726295210166
1.3421309872922775
1.324535679374389
1.3069403714565004
1.2932551319648091
1.2805474095796676
1.2649071358748778
1.249266862170088
1.2336265884652982
1.2179863147605083
1.203323558162268
1.1886608015640274
1.173998044965787
1.1583577712609971
1.1436950146627567
1.1290322580645162
1.115347018572825
1.1065493646138806
1.1016617790811338
1.0948191593352885
1.088954056695992
1.0850439882697946
1.0811339198435972
1.078201368523949
1.0762463343108504
1.0742913000977516
1.0733137829912025
1.072336265884653
1.072336265884653
1.0742913000977516
1.0762463343108504
1.0762463343108504
1.075268817204301
1.0733137829912025
1.0703812316715542
1.067448680351906
1.0625610948191593
1.0576735092864125
1.0547409579667644
1.0518084066471165
1.050830889540567
1.050830889540567
1.0527859237536656
1.056695992179863
1.0606060606060606
1.0664711632453567
1.0762463343108504
1.0948191593352885
1.1270772238514175
1.1759530791788857
1.24633431085044
1.3391984359726294
1.4535679374389052
1.585532746823069
1.7096774193548387
1.83088954056696
1.9696969696969695
2.110459433040078
2.24633431085044
2.3714565004887587
2.4838709677419355
2.582600195503421
2.665689149560117
2.735092864125122
2.791788856304985
2.8377321603128056
2.8719452590420333
2.889540566959922
2.8963831867057674
2.898338220918866
2.89345063538612
2.877810361681329
2.849462365591398
2.809384164222874
2.7565982404692084
2.6911045943304006
2.6158357771261
2.532746823069404
2.444770283479961
2.363636363636364
2.2883675464320627
2.209188660801564
2.131964809384164
2.06158357771261
1.9980449657869013
1.9423264907135875
1.8934506353861196
1.8514173998044965
1.81524926686217
1.782991202346041
1.7546432062561097
1.7272727272727273
1.704789833822092
1.6842619745845553
1.6608015640273706
1.635386119257087
1.6080156402737047
1.5806451612903225
1.5542521994134897
1.5288367546432062
1.5053763440860215
1.482893450635386
1.4613880742913
1.4418377321603129
1.426197458455523
1.4134897360703813
1.4007820136852396
1.388074291300098
1.375366568914956
1.364613880742913
1.3558162267839686
1.346041055718475
1.335288367546432
1.324535679374389
1.313782991202346
1.3040078201368523
1.2971652003910068
1.2913000977517106
1.2825024437927663
1.2717497556207231
1.2619745845552297
1.2512218963831867
1.2394916911045943
1.2287390029325511
1.217008797653959
1.206256109481916
1.195503421309873
1.18475073313783
1.1749755620723363
1.1681329423264908
1.163245356793744
1.1583577712609971
1.152492668621701
1.1456500488758554
1.1368523949169111
1.126099706744868
1.1143695014662756
1.1026392961876832
1.088954056695992
1.0742913000977516
1.0606060606060606
1.050830889540567
1.0439882697947214
1.035190615835777
1.0254154447702837
1.0166177908113392
1.0087976539589445
1.0039100684261977
1.0009775171065494
1.0
1.0009775171065494
1.0019550342130987
1.0048875855327468
1.0087976539589445
1.0156402737047898
1.0263929618768328
1.0410557184750733
1.0654936461388074
1.104594330400782
1.163245356793744
1.2434017595307918
1.3470185728250244
1.4721407624633431
1.6148582600195502
1.76930596285435
1.9286412512218964
2.065493646138808
2.187683284457478
2.3167155425219943
2.4408602150537635
2.5562072336265884
2.659824046920821
2.748778103616813
2.825024437927664
2.8885630498533725
2.940371456500489
2.979472140762464
3.007820136852395
3.0254154447702835
3.027370478983382
3.018572825024438
3.002932551319648
2.9765395894428157
2.93841642228739
2.887585532746823
2.8260019550342133
2.755620723362659
2.678396871945259
2.598240469208211
2.5190615835777126
2.442815249266862
2.377321603128055
2.321603128054741
2.269794721407625
2.222873900293255
2.1818181818181817
2.146627565982405
2.115347018572825
2.0869990224828934
2.060606060606061
2.0332355816226784
2.005865102639296
1.9765395894428155
1.945259042033236
1.9159335288367547
1.8866080156402736
1.8533724340175952
1.8172043010752688
1.7790811339198436
1.739980449657869
1.7018572825024438
1.664711632453568
1.6285434995112416
1.595307917888563
1.564027370478983
1.5347018572825024
1.5131964809384164
1.495601173020528
1.478005865102639
1.4604105571847508
1.4418377321603129
1.4242424242424243
1.4056695992179864
1.3870967741935485
1.367546432062561
1.3470185728250244
1.3284457478005864
1.310850439882698
1.29227761485826
1.2776148582600195
1.2649071358748778
1.249266862170088
1.2316715542521994
1.2130987292277615
1.1945259042033236
1.176930596285435
1.160312805474096
1.1466275659824048
1.1348973607038124
1.1241446725317692
1.115347018572825
1.110459433040078
1.1085043988269794
1.1055718475073313
1.1026392961876832
1.099706744868035
1.096774193548387
1.0928641251221896
1.0879765395894427
1.0811339198435972
1.0733137829912025
1.0635386119257086
1.0527859237536656
1.0420332355816226
1.035190615835777
1.0303030303030305
1.0234604105571847
1.0156402737047898
1.0068426197458455
0.9990224828934506
0.9921798631476052
0.9853372434017597
0.9794721407624634
0.975562072336266
0.9745845552297164
0.9804496578690128
0.9931573802541545
1.0156402737047898
1.0547409579667644
1.1143695014662756
1.195503421309873
1.300097751710655
1.426197458455523
1.5679374389051808
1.7174975562072337
1.870967741935484
2.021505376344086
2.163245356793744
2.2932551319648096
2.393939393939394
2.474095796676442
2.5532746823069403
2.624633431085044
2.686217008797654
2.7370478983382207
2.779081133919844
2.811339198435973
2.833822091886608
2.8475073313782997
2.8514173998044967
2.8455522971652005
2.8289345063538613
2.803519061583578
2.76930596285435
2.7253176930596283
2.6715542521994133
2.6099706744868034
2.5405669599217986
2.4672531769305963
2.393939393939394
2.3225806451612905
2.257086999022483
2.1974584555229715
2.145650048875855
2.102639296187683
2.0664711632453567
2.032258064516129
2.0
1.970674486803519
1.9413489736070384
1.9130009775171064
1.884652981427175
1.855327468230694
1.826001955034213
1.796676441837732
1.7663734115347018
1.7390029325513197
1.7126099706744868
1.6842619745845553
1.653958944281525
1.6226783968719452
1.5913978494623655
1.5610948191593352
1.5317693059628543
1.5053763440860215
1.479960899315738
1.457478005865103
1.436950146627566
1.4193548387096775
1.4066471163245358
1.3958944281524928
1.383186705767351
1.3695014662756595
1.3558162267839686
1.3421309872922775
1.3284457478005864
1.3157380254154447
1.303030303030303
1.289345063538612
1.2756598240469208
1.2609970674486803
1.2502443792766371
1.241446725317693
1.2297165200391007
1.217008797653959
1.2052785923753666
1.1935483870967742
1.1827956989247312
1.1720430107526882
1.1622678396871946
1.1534701857282503
1.1456500488758554
1.1378299120234605
1.133919843597263
1.130987292277615
1.1270772238514175
1.1231671554252198
1.118279569892473
1.1133919843597262
1.1085043988269794
1.104594330400782
1.1006842619745845
1.096774193548387
1.0928641251221896
1.0879765395894427
1.0840664711632453
1.083088954056696
1.0840664711632453
1.083088954056696
1.0811339198435972
1.0791788856304985
1.0772238514173995
1.0762463343108504
1.0762463343108504
1.0791788856304985
1.088954056695992
1.1094819159335287
1.144672531769306
1.1896383186705768
1.249266862170088
1.3362658846529814
1.4486803519061584
1.581622678396872
1.729227761485826
1.8866080156402736
2.0449657869012707
2.198435972629521
2.3411534701857284
2.4701857282502444
2.5835777126099706
2.681329423264907
2.7517106549364616
2.8025415444770285
2.8514173998044967
2.89247311827957
2.9257086999022484
2.949169110459433
2.963831867057673
2.9687194525904204
2.963831867057673
2.949169110459433
2.9237536656891496
2.8885630498533725
2.84652981427175
2.7976539589442817
2.7390029325513194
2.673509286412512
2.603128054740958
2.5317693059628543
2.463343108504399
2.398826979472141
2.3411534701857284
2.291300097751711
2.249266862170088
2.2130987292277613
2.182795698924731
2.156402737047898
2.132942326490713
2.1094819159335287
2.085043988269794
2.0576735092864125
2.027370478983382
1.9951124144672527
1.9608993157380252
1.924731182795699
1.8885630498533723
1.8514173998044965
1.8132942326490715
1.780058651026393
1.7487781036168133
1.715542521994135
1.6823069403714566
1.6490713587487782
1.616813294232649
1.58455522971652
1.5532746823069403
1.52297165200391
1.4946236559139785
1.4682306940371457
1.4437927663734116
1.4222873900293256
1.4066471163245358
1.393939393939394
1.380254154447703
1.3655913978494625
1.3509286412512218
1.3362658846529814
1.3225806451612905
1.3079178885630498
1.29227761485826
1.2756598240469208
1.2570869990224829
1.2375366568914956
1.2209188660801564
1.2003910068426198
1.1788856304985338
1.164222873900293
1.1485826001955035
1.1329423264907137
1.1192570869990224
1.1085043988269794
1.1016617790811338
1.0977517106549364
1.096774193548387
1.0977517106549364
1.099706744868035
1.1055718475073313
1.1124144672531768
1.1173020527859236
1.121212121212121
1.1231671554252198
1.1221896383186705
1.1173020527859236
1.1094819159335287
1.096774193548387
1.0801564027370478
1.0596285434995112
1.0371456500488758
1.018572825024438
1.0019550342130987
0.9863147605083088
0.9706744868035192
0.9472140762463344
0.9208211143695014
0.8944281524926686
0.8709677419354839
0.8563049853372434
0.8533724340175953
0.8680351906158358
0.9022482893450636
0.9579667644183774
1.0224828934506354
1.096774193548387
1.187683284457478
1.2873900293255132
1.3890518084066472
1.4848484848484849
1.5698924731182795
1.6412512218963833
1.696969696969697
1.7390029325513197
1.7683284457478006
1.7859237536656891
1.793743890518084
1.7956989247311828
1.790811339198436
1.7810361681329423
1.7663734115347018
1.7468230694037146
1.721407624633431
1.689149560117302
1.6500488758553276
1.6021505376344083
1.5464320625610948
1.482893450635386
1.412512218963832
1.3499511241446724
1.2913000977517106
1.224828934506354
1.1564027370478984
1.0918866080156402
1.0332355816226784
0.9824046920821116
0.9403714565004888
0.9071358748778104
0.8817204301075269
0.8621700879765396
0.8465298142717498
0.8387096774193549
0.833822091886608
0.8240469208211144
0.8113391984359726
0.7966764418377321
0.7781036168132942
0.7565982404692082
0.7321603128054741
0.7047898338220919
0.6764418377321603
0.6471163245356794
0.6187683284457478
0.5913978494623656
0.5728250244379277
0.5601173020527859
0.544477028347996
0.5298142717497556
0.5161290322580645
0.5053763440860215
0.4975562072336266
0.4926686217008797
0.4897360703812317
0.4868035190615836
0.4838709677419355
0.4809384164222874
0.4828934506353861
0.4877810361681329
0.4887585532746823
0.4868035190615836
0.4828934506353861
0.4789833822091887
0.4740957966764418
0.469208211143695
0.4652981427174975
0.4633431085043988
0.4623655913978494
0.4623655913978494
0.469208211143695
0.4789833822091887
0.4858260019550342
0.490713587487781
0.4946236559139785
0.4985337243401759
0.5024437927663734
0.5073313782991202
0.5131964809384164
0.5190615835777126
0.5249266862170088
0.530791788856305
0.5356793743890518
0.544477028347996
0.555229716520039
0.5630498533724341
0.570869990224829
0.581622678396872
0.5913978494623656
0.5992179863147605
0.6089931573802542
0.6197458455522972
0.6314760508308895
0.6441837732160313
0.6578690127077224
0.6735092864125122
0.6901270772238515
0.7047898338220919
0.718475073313783
0.7331378299120235
0.7526881720430108
0.7820136852394917
0.8269794721407625
0.8914956011730205
0.978494623655914
1.0909090909090908
1.227761485826002
1.3861192570869991
1.5347018572825024
1.6803519061583578
1.8465298142717497
2.018572825024438
2.1867057673509285
2.343108504398827
2.484848484848485
2.610948191593353
2.720430107526881
2.8152492668621703
2.895405669599218
2.962854349951124
3.0087976539589443
3.0391006842619745
3.0664711632453567
3.086021505376344
3.0948191593352883
3.090909090909091
3.0733137829912023
3.040078201368524
2.9931573802541545
2.9335288367546437
2.863147605083089
2.7839687194525906
2.7008797653958942
2.622678396871945
2.549364613880743
2.472140762463343
2.3978494623655915
2.3284457478005867
2.264907135874878
2.2082111436950145
2.157380254154448
2.1114369501466275
2.0684261974584555
2.0283479960899315
1.9902248289345064
1.956989247311828
1.9257086999022484
1.8934506353861196
1.8514173998044965
1.8132942326490715
1.7859237536656891
1.7546432062561097
1.7204301075268815
1.6842619745845553
1.6480938416422288
1.6109481915933528
1.5747800586510263
1.5386119257087
1.5083088954056696
1.4819159335288368
1.452590420332356
1.4222873900293256
1.3919843597262953
1.3558162267839686
1.3235581622678396
1.3020527859237536
1.2795698924731185
1.2561094819159335
1.2346041055718475
1.2150537634408602
1.2013685239491692
1.1906158357771262
1.1788856304985338
1.1681329423264908
1.1564027370478984
1.144672531769306
1.1329423264907137
1.121212121212121
1.1085043988269794
1.093841642228739
1.0811339198435972
1.0713587487781036
1.0606060606060606
1.053763440860215
1.0488758553274682
1.0410557184750733
1.032258064516129
1.0234604105571847
1.0146627565982405
1.0058651026392962
0.997067448680352
0.989247311827957
0.9833822091886608
0.978494623655914
0.9745845552297164
0.975562072336266
0.978494623655914
0.9794721407624634
0.9804496578690128
0.981427174975562
0.9824046920821116
0.9824046920821116
0.9824046920821116
0.9824046920821116
0.981427174975562
0.981427174975562
0.981427174975562
0.9833822091886608
0.989247311827957
1.0009775171065494
1.0371456500488758
1.0791788856304985
1.1221896383186705
1.1945259042033236
1.3362658846529814
1.5278592375366569
1.7145650048875856
1.8543499511241448
2.0117302052785924
2.1788856304985336
2.2795698924731185
2.4173998044965788
2.5835777126099706
2.718475073313783
2.8103616813294234
2.89247311827957
2.983382209188661
3.042033235581622
3.0879765395894427
3.1309872922776147
3.156402737047898
3.16911045943304
3.164222873900293
3.142717497556207
3.113391984359726
3.074291300097752
3.022482893450636
2.959921798631476
2.8885630498533725
2.8103616813294234
2.720430107526881
2.631476050830889
2.5562072336265884
2.490713587487781
2.436950146627566
2.391006842619746
2.347996089931574
2.3088954056695994
2.274682306940372
2.2453567937438903
2.218963831867057
2.196480938416422
2.179863147605083
2.161290322580645
2.1358748778103616
2.112414467253177
2.088954056695992
2.0684261974584555
2.048875855327468
2.0283479960899315
2.005865102639296
1.9833822091886608
1.9608993157380252
1.9374389051808407
1.9149560117302051
1.8934506353861196
1.871945259042033
1.8523949169110456
1.833822091886608
1.818181818181818
1.804496578690127
1.7888563049853372
1.7732160312805474
1.7575757575757576
1.7419354838709675
1.726295210166178
1.7116324535679377
1.6989247311827955
1.686217008797654
1.6744868035190617
1.6627565982404693
1.6520039100684265
1.6441837732160314
1.6373411534701858
1.6285434995112416
1.6187683284457477
1.608993157380254
1.5992179863147604
1.5894428152492668
1.5806451612903225
1.5728250244379276
1.5650048875855327
1.5562072336265884
1.5483870967741935
1.543499511241447
1.5395894428152492
1.5347018572825024
1.5298142717497556
1.5239491691104594
1.5180840664711632
1.512218963831867
1.5053763440860215
1.499511241446725
1.4946236559139785
1.4897360703812317
1.4868035190615836
1.4868035190615836
1.4897360703812317
1.4916911045943304
1.4926686217008798
1.4936461388074291
1.4936461388074291
1.4936461388074291
1.4936461388074291
1.4936461388074291
1.4936461388074291
1.4936461388074291
1.4965786901270772
1.504398826979472
1.5180840664711632
1.5395894428152492
1.576735092864125
1.629521016617791
1.699902248289345
1.7888563049853372
1.89247311827957
2.0087976539589443
2.131964809384164
2.2551319648093844
2.375366568914956
2.487781036168133
2.575757575757576
2.6471163245356792
2.718475073313783
2.7839687194525906
2.8406647116324537
2.889540566959922
2.929618768328446
2.961876832844575
2.9853372434017595
3.0009775171065494
3.0087976539589443
3.006842619745845
2.995112414467253
2.973607038123167
2.9442815249266863
2.906158357771261
2.8611925708699903
2.8084066471163247
2.750733137829912
2.6901270772238512
2.6295210166177907
2.5698924731182795
2.5131964809384164
2.4604105571847508
2.4134897360703813
2.3743890518084068
2.340175953079179
2.30791788856305
2.27761485826002
2.249266862170088
2.2218963831867056
2.1955034213098727
2.16911045943304
2.142717497556207
2.115347018572825
2.0879765395894427
2.060606060606061
2.032258064516129
2.007820136852395
1.9843597262952104
1.9589442815249267
1.932551319648094
1.906158357771261
1.8807429130009776
1.8563049853372435
1.8318670576735088
1.8084066471163245
1.7869012707722385
1.7653958944281525
1.7438905180840665
1.7272727272727273
1.7126099706744868
1.6959921798631477
1.678396871945259
1.66177908113392
1.6451612903225807
1.6285434995112416
1.6129032258064515
1.598240469208211
1.58455522971652
1.5718475073313782
1.5591397849462365
1.5464320625610948
1.5376344086021505
1.530791788856305
1.521016617790811
1.5102639296187683
1.499511241446725
1.487781036168133
1.4760508308895406
1.466275659824047
1.457478005865103
1.4486803519061584
1.439882697947214
1.4320625610948192
1.4271749755620724
1.4252199413489737
1.4213098729227762
1.4173998044965788
1.412512218963832
1.4076246334310851
1.4037145650048877
1.4007820136852396
1.3998044965786902
1.3988269794721409
1.3988269794721409
1.3988269794721409
1.3988269794721409
1.4007820136852396
1.4037145650048877
1.4037145650048877
1.4027370478983383
1.401759530791789
1.3998044965786902
1.3998044965786902
1.401759530791789
1.409579667644184
1.426197458455523
1.456500488758553
1.5024437927663734
1.555229716520039
1.6187683284457477
1.704789833822092
1.8084066471163245
1.9237536656891496
2.04594330400782
2.16911045943304
2.2883675464320627
2.39980449657869
2.5004887585532747
2.5884652981427174
2.6637341153470184
2.7282502443792764
2.773216031280548
2.8054740957966766
2.8367546432062563
2.863147605083089
2.881720430107527
2.89247311827957
2.8944281524926687
2.887585532746823
2.8719452590420333
2.8475073313782997
2.814271749755621
2.771260997067449
2.7262952101661777
2.678396871945259
2.622678396871945
2.563049853372434
2.5024437927663734
2.442815249266862
2.3870967741935485
2.335288367546432
2.2883675464320627
2.24633431085044
2.209188660801564
2.177908113391984
2.1495601173020527
2.1251221896383186
2.102639296187683
2.0791788856304985
2.0547409579667644
2.0303030303030303
2.004887585532747
1.9804496578690127
1.9560117302052784
1.9315738025415443
1.9071358748778104
1.8826979472140764
1.858260019550342
1.836754643206256
1.8172043010752688
1.796676441837732
1.775171065493646
1.7546432062561097
1.7350928641251222
1.715542521994135
1.696969696969697
1.6793743890518085
1.66177908113392
1.6441837732160314
1.6275659824046922
1.6109481915933528
1.598240469208211
1.5884652981427174
1.4868035190615836
1.3411534701857282
1.2619745845552297
1.217008797653959
1.1896383186705768
1.1700879765395895
1.155425219941349
1.1436950146627567
1.1329423264907137
1.1231671554252198
1.1173020527859236
1.1143695014662756
1.110459433040078
1.1055718475073313
1.1006842619745845
1.0948191593352885
1.088954056695992
1.083088954056696
1.078201368523949
1.0733137829912025
1.0684261974584557
1.064516129032258
1.0625610948191593
1.0625610948191593
1.0606060606060606
1.0576735092864125
1.0547409579667644
1.0518084066471165
1.050830889540567
1.0498533724340176
1.0498533724340176
1.0498533724340176
1.0488758553274682
1.0478983382209188
1.04594330400782
1.04594330400782
1.0469208211143697
1.04594330400782
1.0439882697947214
1.0439882697947214
1.0469208211143697
1.0547409579667644
1.0733137829912025
1.1065493646138806
1.1583577712609971
1.2316715542521994
1.3294232649071358
1.4291300097751711
1.5366568914956011
1.6715542521994136
1.8201368523949168
1.9745845552297163
2.1251221896383186
2.2658846529814274
2.393939393939394
2.506353861192571
2.603128054740958
2.6852394916911044
2.7536656891495603
2.809384164222874
2.8455522971652005
2.8690127077223853
2.8914956011730206
2.90811339198436
2.917888563049853
2.918866080156403
2.909090909090909
2.8885630498533725
2.8563049853372435
2.8132942326490715
2.760508308895406
2.6989247311827955
2.6373411534701856
2.573802541544477
2.505376344086021
