ppg
1.348973607038123
1.439882697947214
1.5513196480938416
1.6598240469208212
1.7712609970674489
1.902248289345064
2.040078201368524
2.175953079178885
2.303030303030303
2.418377321603128
2.5190615835777126
2.6041055718475072
2.6715542521994133
2.7233626588465296
2.7595307917888565
2.776148582600196
2.7781036168132944
2.7702834799608995
2.750733137829912
2.718475073313783
2.674486803519061
2.619745845552297
2.5562072336265884
2.4858260019550342
2.409579667644184
2.3304007820136854
2.2502443792766376
2.1788856304985336
2.112414467253177
2.042033235581622
1.9716520039100685
1.902248289345064
1.8347996089931573
1.7702834799608993
1.7096774193548387
1.6529814271749756
1.6001955034213098
1.5513196480938416
1.5063538611925709
1.4643206256109482
1.4320625610948192
1.4037145650048877
1.3734115347018572
1.3421309872922775
1.3118279569892473
1.2825024437927663
1.2531769305962854
1.2258064516129032
1.198435972629521
1.1720430107526882
1.1466275659824048
1.121212121212121
1.1026392961876832
1.0869990224828934
1.0684261974584557
1.0478983382209188
1.0273704789833822
1.007820136852395
0.9902248289345064
0.9726295210166178
0.956989247311828
0.9413489736070382
0.9266862170087976
0.9120234604105572
0.8983382209188661
0.8914956011730205
0.8914956011730205
0.895405669599218
0.9090909090909092
0.9393939393939394
0.9902248289345064
1.0654936461388074
1.163245356793744
1.281524926686217
1.4164222873900294
1.5610948191593352
1.7096774193548387
1.8377321603128052
1.9521016617790807
2.071358748778104
2.182795698924731
2.281524926686217
2.363636363636364
2.4281524926686218
2.472140762463343
2.498533724340176
2.50733137829912
2.5004887585532747
2.4789833822091887
2.444770283479961
2.4056695992179864
2.360703812316716
2.3059628543499517
2.243401759530792
2.176930596285435
2.10752688172043
2.038123167155425
1.9687194525904204
1.9012707722385145
1.836754643206256
1.775171065493646
1.718475073313783
1.6715542521994136
1.6304985337243405
1.587487781036168
1.5454545454545454
1.5053763440860215
1.4682306940371457
1.434017595307918
1.4027370478983383
1.3734115347018572
1.3479960899315735
1.3255131964809383
1.3049853372434017
1.2864125122189638
1.273704789833822
1.2649071358748778
1.2531769305962854
1.2404692082111437
1.2287390029325511
1.217008797653959
1.206256109481916
1.195503421309873
1.1857282502443791
1.1759530791788857
1.166177908113392
1.1564027370478984
1.1505376344086022
1.147605083088954
1.141739980449658
1.1358748778103618
1.1290322580645162
1.1221896383186705
1.1143695014662756
1.1055718475073313
1.0987292277614855
1.0948191593352885
1.0977517106549364
1.1124144672531768
1.144672531769306
1.187683284457478
1.2453567937438903
1.3294232649071358
1.4349951124144673
1.5581622678396871
1.7038123167155426
1.858260019550342
2.0019550342130987
2.134897360703812
2.2551319648093844
2.360703812316716
2.450635386119257
2.515151515151515
2.560117302052786
2.5972629521016617
2.621700879765396
2.632453567937439
2.63049853372434
2.6158357771261
2.5884652981427174
2.550342130987292
2.5034213098729228
2.4486803519061584
2.389051808406647
2.3255131964809386
2.2668621700879767
2.210166177908113
2.1485826001955037
2.086021505376344
2.024437927663734
1.964809384164223
1.9071358748778104
1.8533724340175952
1.804496578690127
1.7595307917888563
1.718475073313783
1.6803519061583578
1.6500488758553276
1.624633431085044
1.598240469208211
1.5728250244379276
1.5483870967741935
1.5268817204301075
1.5063538611925709
1.487781036168133
1.4701857282502444
1.4535679374389052
1.4379276637341154
1.4222873900293256
1.4076246334310851
1.3978494623655917
1.3890518084066472
1.3782991202346042
1.3665689149560116
1.3548387096774193
1.343108504398827
1.3304007820136852
1.3186705767350928
1.3079178885630498
1.2981427174975562
1.289345063538612
1.2805474095796676
1.2756598240469208
1.2727272727272727
1.267839687194526
1.2649071358748778
1.2649071358748778
1.2727272727272727
1.2932551319648091
1.3304007820136852
1.388074291300098
1.4682306940371457
1.56891495601173
1.6881720430107527
1.8201368523949168
1.9413489736070384
2.0547409579667644
2.1818181818181817
2.3088954056695994
2.429130009775171
2.5376344086021505
2.631476050830889
2.7096774193548385
2.771260997067449
2.81622678396872
2.8455522971652005
2.860215053763441
2.859237536656892
2.8455522971652005
2.823069403714565
2.790811339198436
2.7497556207233624
2.7008797653958942
2.64613880742913
2.5855327468230693
2.52297165200391
2.4574780058651027
2.3919843597262958
2.326490713587488
2.2629521016617797
2.2082111436950145
2.158357771260997
2.10752688172043
2.0576735092864125
2.0117302052785924
1.9696969696969695
1.9315738025415443
1.8963831867057677
1.8641251221896384
1.8347996089931573
1.8084066471163245
1.7839687194525904
1.7634408602150538
1.7458455522971652
1.7272727272727273
1.7086999022482894
1.6901270772238517
1.6715542521994136
1.6529814271749756
1.6344086021505375
1.616813294232649
1.598240469208211
1.5806451612903225
1.564027370478983
1.5513196480938416
1.5405669599217986
1.5288367546432062
1.517106549364614
1.5053763440860215
1.4936461388074291
1.482893450635386
1.4711632453567938
1.458455522971652
1.447702834799609
1.439882697947214
1.4379276637341154
1.4457478005865103
1.4623655913978495
1.4916911045943304
1.5405669599217986
1.6109481915933528
1.7008797653958945
1.8084066471163245
1.927663734115347
2.053763440860215
2.1808406647116323
2.304985337243402
2.420332355816227
2.5249266862170088
2.6050830889540566
2.6666666666666665
2.724340175953079
2.773216031280548
2.8103616813294234
2.833822091886608
2.844574780058651
2.843597262952102
2.8299120234604107
2.8054740957966766
2.7702834799608995
2.724340175953079
2.6695992179863146
2.613880742913001
2.5562072336265884
2.490713587487781
2.420332355816227
2.347996089931574
2.274682306940372
2.2023460410557183
2.131964809384164
2.0635386119257086
1.9990224828934504
1.93841642228739
1.881720430107527
1.835777126099707
1.796676441837732
1.7575757575757576
1.7194525904203324
1.683284457478006
1.6490713587487782
1.616813294232649
1.5865102639296187
1.5571847507331378
1.5288367546432062
1.501466275659824
1.4760508308895406
1.4506353861192571
1.43108504398827
1.4134897360703813
1.392961876832845
1.3714565004887584
1.3499511241446724
1.3294232649071358
1.3088954056695992
1.289345063538612
1.270772238514174
1.252199413489736
1.2346041055718475
1.2179863147605083
1.206256109481916
1.1974584555229717
1.1857282502443791
1.1720430107526882
1.1583577712609971
1.1495601173020529
1.1485826001955035
1.1612903225806452
1.1925708699902249
1.2453567937438903
1.3206256109481915
1.4173998044965788
1.5317693059628543
1.6412512218963833
1.7497556207233629
1.8758553274682308
2.006842619745845
2.134897360703812
2.2551319648093844
2.3626588465298144
2.455522971652004
2.533724340175953
2.595307917888563
2.6402737047898337
2.670576735092864
2.6832844574780057
2.6832844574780057
2.674486803519061
2.653958944281525
2.6236559139784945
2.582600195503421
2.532746823069404
2.4750733137829912
2.410557184750733
2.3411534701857284
2.269794721407625
2.196480938416422
2.1221896383186705
2.056695992179863
1.997067448680352
1.9345063538611929
1.8729227761485825
1.8142717497556209
1.758553274682307
1.7067448680351909
1.6588465298142718
1.6148582600195502
1.5747800586510263
1.5386119257087
1.5053763440860215
1.479960899315738
1.458455522971652
1.4349951124144673
1.4105571847507332
1.3861192570869991
1.3626588465298142
1.3401759530791788
1.3176930596285434
1.2961876832844574
1.2756598240469208
1.2561094819159335
1.2365591397849462
1.1837732160312806
1.1192570869990224
1.0821114369501466
1.0547409579667644
1.032258064516129
1.0127077223851415
0.9951124144672532
0.978494623655914
0.9628543499511242
0.9472140762463344
0.9305962854349952
0.9130009775171064
0.8983382209188661
0.8914956011730205
0.8944281524926686
0.9051808406647116
0.9305962854349952
0.9775171065493646
1.0469208211143697
1.1397849462365592
1.2541544477028348
1.3861192570869991
1.5288367546432062
1.6764418377321604
1.823069403714565
1.962854349951124
2.0762463343108504
2.1700879765395893
2.2629521016617797
2.345063538611926
2.412512218963832
2.464320625610948
2.498533724340176
2.517106549364614
2.5190615835777126
2.50733137829912
2.4819159335288368
2.4457478005865103
2.404692082111437
2.357771260997068
2.2991202346041058
2.231671554252199
2.1593352883675463
2.083088954056696
2.005865102639296
1.9286412512218964
1.8543499511241448
1.782991202346041
1.7145650048875856
1.651026392961877
1.5923753665689149
1.5454545454545454
1.5063538611925709
1.4652981427174976
1.426197458455523
1.3900293255131966
1.356793743890518
1.3255131964809383
1.2971652003910068
1.2697947214076246
1.2443792766373412
1.219941348973607
1.1964809384164223
1.1788856304985338
1.1652003910068427
1.1466275659824048
1.1270772238514175
1.1065493646138806
1.0850439882697946
1.064516129032258
1.04594330400782
1.0273704789833822
1.0097751710654936
0.9931573802541545
0.978494623655914
0.9657869012707724
0.9589442815249268
0.9560117302052786
0.9501466275659824
0.9433040078201368
0.9364613880742912
0.9286412512218964
0.9227761485826002
0.919843597262952
0.9227761485826002
0.935483870967742
0.9628543499511242
1.010752688172043
1.0703812316715542
1.144672531769306
1.2473118279569892
1.3734115347018572
1.517106549364614
1.6705767350928642
1.827956989247312
1.9824046920821117
2.1280547409579667
2.260997067448681
2.378299120234604
2.47702834799609
2.547409579667644
2.5962854349951123
2.636363636363636
2.66177908113392
2.6715542521994133
2.664711632453568
2.643206256109482
2.6080156402737047
2.5620723362658846
2.506353861192571
2.442815249266862
2.3743890518084068
2.302052785923754
2.2355816226783967
2.1739980449657867
2.10850439882698
2.042033235581622
1.9775171065493649
1.916911045943304
1.8602150537634408
1.8084066471163245
1.761485826001955
1.7174975562072337
1.6774193548387095
1.640273704789834
1.611925708699902
1.587487781036168
1.563049853372434
1.5395894428152492
1.5180840664711632
1.4975562072336266
1.478005865102639
1.4604105571847508
1.4428152492668622
1.4252199413489737
1.4076246334310851
1.3919843597262953
1.3763440860215057
1.364613880742913
1.3548387096774193
1.3440860215053765
1.332355816226784
1.3206256109481915
1.3088954056695992
1.2981427174975562
1.2883675464320623
1.278592375366569
1.2688172043010753
1.2580645161290325
1.2473118279569892
1.2404692082111437
1.2346041055718475
1.2267839687194526
1.2209188660801564
1.2209188660801564
1.2326490713587488
1.260019550342131
1.3079178885630498
1.3782991202346042
1.474095796676442
1.5933528836754642
1.7302052785923754
1.878787878787879
2.0127077223851417
2.136852394916911
2.272727272727273
2.406647116324536
2.5317693059628543
2.643206256109482
2.7370478983382207
2.8132942326490715
2.8719452590420333
2.9120234604105573
2.9345063538611926
2.941348973607038
2.9335288367546437
2.913978494623656
2.884652981427175
2.8455522971652005
2.795698924731183
2.736070381231672
2.667644183773216
2.5943304007820136
2.517106549364614
2.436950146627566
2.356793743890518
2.27761485826002
2.19941348973607
2.131964809384164
2.071358748778104
2.0087976539589443
1.948191593352884
1.8905180840664717
1.836754643206256
1.7878787878787878
1.7429130009775171
1.7018572825024438
1.6637341153470186
1.6285434995112416
1.595307917888563
1.5679374389051808
1.543499511241447
1.5161290322580645
1.4887585532746823
1.4613880742913
1.434017595307918
1.4076246334310851
1.3822091886608017
1.356793743890518
1.3313782991202343
1.305962854349951
1.281524926686217
1.2580645161290325
1.241446725317693
1.2267839687194526
1.2101661779081134
1.1925708699902249
1.1749755620723363
1.1573802541544478
1.1397849462365592
1.1221896383186705
1.1055718475073313
1.0918866080156402
1.0840664711632453
1.0879765395894427
1.1036168132942326
1.1358748778103618
1.1906158357771262
1.270772238514174
1.375366568914956
1.500488758553275
1.6422287390029326
1.793743890518084
1.949169110459433
2.1006842619745845
2.242424242424242
2.3714565004887587
2.484848484848485
2.56891495601173
2.632453567937439
2.6901270772238512
2.736070381231672
2.768328445747801
2.78494623655914
2.7869012707722387
2.774193548387097
2.747800586510264
2.708699902248289
2.6578690127077222
2.5972629521016617
2.535679374389052
2.472140762463343
2.398826979472141
2.320625610948192
2.2404692082111435
2.160312805474096
2.1006842619745845
2.053763440860215
1.9951124144672527
1.932551319648094
1.870967741935484
1.8132942326490715
1.7595307917888563
1.715542521994135
1.678396871945259
1.640273704789834
1.603128054740958
1.565982404692082
1.530791788856305
1.4975562072336266
1.466275659824047
1.436950146627566
1.4086021505376345
1.380254154447703
1.3528836754643203
1.3313782991202343
1.3128054740957966
1.2913000977517106
1.267839687194526
1.2434017595307918
1.2189638318670577
1.195503421309873
1.1720430107526882
1.1495601173020529
1.1270772238514175
1.104594330400782
1.0811339198435972
1.0576735092864125
1.0410557184750733
1.0273704789833822
1.010752688172043
0.9931573802541545
0.9775171065493646
0.9657869012707724
0.9618768328445748
0.9706744868035192
0.997067448680352
1.0449657869012707
1.1173020527859236
1.2150537634408602
1.316715542521994
1.426197458455523
1.5591397849462365
1.7038123167155426
1.8514173998044965
1.9960899315738023
2.132942326490713
2.2580645161290325
2.3685239491691106
2.463343108504399
2.5405669599217986
2.601173020527859
2.6392961876832843
2.659824046920821
2.6695992179863146
2.6666666666666665
2.650048875855328
2.6207233626588464
2.578690127077224
2.525904203323558
2.464320625610948
2.396871945259042
2.32355816226784
2.247311827956989
2.1700879765395893
2.101661779081134
2.0391006842619745
1.9726295210166176
1.9071358748778104
1.8455522971652003
1.7878787878787878
1.7331378299120237
1.683284457478006
1.6383186705767352
1.5972629521016617
1.560117302052786
1.525904203323558
1.499511241446725
1.478005865102639
1.4545454545454546
1.4320625610948192
1.4086021505376345
1.3851417399804498
1.3616813294232648
1.3391984359726294
1.316715542521994
1.295210166177908
1.273704789833822
1.2531769305962854
1.2336265884652982
1.2189638318670577
1.2082111436950147
1.1935483870967742
1.176930596285435
1.1583577712609971
1.1397849462365592
1.1221896383186705
1.1055718475073313
1.0899315738025417
1.0742913000977516
1.0586510263929618
1.043010752688172
1.032258064516129
1.0254154447702837
1.0175953079178883
1.0156402737047898
1.024437927663734
1.0498533724340176
1.0957966764418376
1.166177908113392
1.2619745845552297
1.3812316715542523
1.5190615835777126
1.6695992179863148
1.826001955034213
1.9618768328445748
2.083088954056696
2.2111436950146626
2.332355816226784
2.4408602150537635
2.532746823069404
2.6070381231671558
2.6637341153470184
2.701857282502444
2.7223851417399803
2.727272727272727
2.718475073313783
2.697947214076246
2.6695992179863146
2.631476050830889
2.58455522971652
2.5317693059628543
2.474095796676442
2.412512218963832
2.3489736070381237
2.2854349951124147
2.222873900293255
2.1622678396871944
2.104594330400782
2.0518084066471163
2.007820136852395
1.9696969696969695
1.932551319648094
1.8963831867057677
1.8631476050830889
1.833822091886608
1.8064516129032255
1.780058651026393
1.7556207233626588
1.7331378299120237
1.7116324535679377
1.6911045943304008
1.6744868035190617
1.6598240469208212
1.643206256109482
1.624633431085044
1.607038123167155
1.5894428152492668
1.5718475073313782
1.5562072336265884
1.541544477028348
1.5268817204301075
1.5131964809384164
1.499511241446725
1.4868035190615836
1.478005865102639
1.4711632453567938
1.4623655913978495
1.4535679374389052
1.444770283479961
1.4349951124144673
1.4252199413489737
1.4164222873900294
1.4105571847507332
1.409579667644184
1.4193548387096775
1.444770283479961
1.479960899315738
1.5298142717497556
1.606060606060606
1.7057673509286413
1.826001955034213
1.9618768328445748
2.10752688172043
2.257086999022483
2.404692082111437
2.544477028347996
2.6725317693059627
2.78494623655914
2.8797653958944283
2.9472140762463344
2.994134897360704
3.034213098729228
3.0635386119257086
3.080156402737048
3.083088954056696
3.072336265884653
3.048875855327468
3.013685239491691
2.967741935483871
2.9120234604105573
2.8484848484848486
2.7839687194525906
2.717497556207233
2.644183773216031
2.5669599217986314
2.4887585532746823
2.4115347018572826
2.3362658846529816
2.2629521016617797
2.193548387096774
2.126099706744868
2.0625610948191597
2.002932551319648
1.948191593352884
1.903225806451613
1.866080156402737
1.828934506353861
1.7917888563049853
1.7575757575757576
1.726295210166178
1.6959921798631477
1.6666666666666667
1.6383186705767352
1.608993157380254
1.581622678396872
1.555229716520039
1.5347018572825024
1.5161290322580645
1.4946236559139785
1.4721407624633431
1.4486803519061584
1.4252199413489737
1.401759530791789
1.3792766373411536
1.3577712609970674
1.3372434017595307
1.3176930596285434
1.2981427174975562
1.278592375366569
1.2639296187683284
1.252199413489736
1.2375366568914956
1.2258064516129032
1.2218963831867058
1.23069403714565
1.2570869990224829
1.3049853372434017
1.3763440860215057
1.4721407624633431
1.5894428152492668
1.7243401759530792
1.844574780058651
1.95405669599218
2.0791788856304985
2.2082111436950145
2.332355816226784
2.44672531769306
2.547409579667644
2.633431085043988
2.702834799608993
2.755620723362659
2.791788856304985
2.8132942326490715
2.819159335288368
2.8103616813294234
2.789833822091887
2.757575757575758
2.716520039100684
2.6666666666666665
2.608993157380254
2.5454545454545454
2.47702834799609
2.404692082111437
2.3313782991202348
2.2561094819159337
2.182795698924731
2.1192570869990224
2.06158357771261
2.0009775171065494
1.9403714565004888
1.8826979472140764
1.828934506353861
1.7781036168132942
1.7302052785923754
1.686217008797654
1.6451612903225807
1.607038123167155
1.5718475073313782
1.543499511241447
1.5190615835777126
1.4916911045943304
1.4643206256109482
1.435972629521017
1.4076246334310851
1.3792766373411536
1.3499511241446724
1.321603128054741
1.2942326490713587
1.2688172043010753
1.2443792766373412
1.2218963831867058
1.2052785923753666
1.1915933528836755
1.1759530791788857
1.1593352883675463
1.141739980449658
1.1251221896383188
1.1094819159335287
1.0928641251221896
1.075268817204301
1.0576735092864125
1.0410557184750733
1.0273704789833822
1.021505376344086
1.024437927663734
1.035190615835777
1.06158357771261
1.10752688172043
1.1759530791788857
1.2668621700879763
1.3782991202346042
1.5063538611925709
1.6441837732160314
1.7869012707722385
1.927663734115347
2.06158357771261
2.1700879765395893
2.259042033235582
2.346041055718475
2.4222873900293256
2.484848484848485
2.530791788856305
2.5610948191593352
2.5747800586510263
2.5747800586510263
2.5620723362658846
2.535679374389052
2.4995112414467253
2.4594330400782014
2.4144672531769307
2.360703812316716
2.300097751710655
2.236559139784946
2.1700879765395893
2.103616813294233
2.0391006842619745
1.9765395894428155
1.9159335288367547
1.858260019550342
1.804496578690127
1.7546432062561097
1.7145650048875856
1.6803519061583578
1.6451612903225807
1.6099706744868034
1.576735092864125
1.5454545454545454
1.5151515151515151
1.4868035190615836
1.458455522971652
1.4320625610948192
1.4086021505376345
1.3861192570869991
1.3685239491691104
1.35386119257087
1.3372434017595307
1.3206256109481915
1.3040078201368523
1.2883675464320623
1.2717497556207231
1.2561094819159335
1.241446725317693
1.2267839687194526
1.2130987292277615
1.1994134897360704
1.1857282502443791
1.176930596285435
1.1710654936461389
1.1622678396871946
1.152492668621701
1.141739980449658
1.1300097751710656
1.1192570869990224
1.1114369501466277
1.1085043988269794
1.115347018572825
1.1368523949169111
1.1759530791788857
1.2258064516129032
1.2903225806451613
1.3812316715542523
1.4936461388074291
1.6217008797653958
1.7605083088954057
1.903225806451613
2.0439882697947214
2.176930596285435
2.2991202346041058
2.406647116324536
2.4975562072336266
2.5698924731182795
2.6177908113391983
2.6471163245356792
2.667644183773216
2.675464320625611
2.6715542521994133
2.654936461388074
2.6265884652981426
2.5884652981427174
2.5425219941348973
2.489736070381232
2.432062561094819
2.3714565004887587
2.315738025415445
2.2629521016617797
2.206256109481916
2.1495601173020527
2.093841642228739
2.0410557184750733
1.992179863147605
1.946236559139785
1.905180840664712
1.868035190615836
1.8347996089931573
1.804496578690127
1.7771260997067448
1.7556207233626588
1.7390029325513197
1.721407624633431
1.704789833822092
1.689149560117302
1.6744868035190617
1.6598240469208212
1.64613880742913
1.6334310850439884
1.6207233626588464
1.6080156402737047
1.5943304007820136
1.5835777126099706
1.573802541544477
1.5620723362658846
1.5493646138807429
1.5366568914956011
1.5239491691104594
1.512218963831867
1.5024437927663734
1.4926686217008798
1.4838709677419355
1.474095796676442
1.4643206256109482
1.4545454545454546
1.447702834799609
1.4428152492668622
1.439882697947214
1.4437927663734116
1.4594330400782014
1.490713587487781
1.543499511241447
1.6177908113391983
1.7135874877810362
1.828934506353861
1.959921798631476
2.0987292277614857
2.2218963831867056
2.334310850439883
2.4574780058651027
2.578690127077224
2.69208211143695
2.792766373411535
2.877810361681329
2.9472140762463344
3.0
3.037145650048876
3.058651026392962
3.065493646138808
3.059628543499511
3.0410557184750733
3.0127077223851417
2.9775171065493646
2.932551319648094
2.8797653958944283
2.820136852394917
2.755620723362659
2.687194525904203
2.616813294232649
2.544477028347996
2.4731182795698925
2.403714565004888
2.343108504398827
2.2873900293255134
2.23069403714565
2.175953079178885
2.124144672531769
2.075268817204301
2.029325513196481
1.986314760508309
1.946236559139785
1.9090909090909087
1.873900293255132
1.8416422287390029
1.8103616813294232
1.7849462365591398
1.7624633431085044
1.7360703812316716
1.7086999022482894
1.6813294232649072
1.653958944281525
1.6187683284457477
1.5796676441837731
1.5464320625610948
1.517106549364614
1.490713587487781
1.4652981427174976
1.444770283479961
1.4271749755620724
1.4076246334310851
1.3890518084066472
1.3695014662756595
1.3499511241446724
1.3304007820136852
1.3118279569892473
1.295210166177908
1.2834799608993157
1.2805474095796676
1.2913000977517106
1.3128054740957966
1.348973607038123
1.4086021505376345
1.490713587487781
1.5923753665689149
1.7096774193548387
1.8387096774193548
1.9736070381231672
2.1065493646138806
2.2346041055718477
2.35386119257087
2.4604105571847508
2.5532746823069403
2.621700879765396
2.6715542521994133
2.7155425219941347
2.748778103616813
2.7702834799608995
2.779081133919844
2.7751710654936463
2.758553274682307
2.730205278592375
2.69208211143695
2.644183773216031
2.587487781036168
2.530791788856305
2.4731182795698925
2.4086021505376345
2.340175953079179
2.270772238514174
2.201368523949169
2.133919843597263
2.0684261974584555
2.005865102639296
1.946236559139785
1.889540566959922
1.835777126099707
1.7859237536656891
1.7448680351906158
1.7096774193548387
1.672531769305963
1.6363636363636365
1.6021505376344083
1.5708699902248289
1.541544477028348
1.5141739980449658
1.4887585532746823
1.4652981427174976
1.4428152492668622
1.4222873900293256
1.4056695992179864
1.3919843597262953
1.375366568914956
1.356793743890518
1.3372434017595307
1.3176930596285434
1.2971652003910068
1.2766373411534702
1.2580645161290325
1.2394916911045943
1.2218963831867058
1.2052785923753666
1.1896383186705768
