ppg
2.198435972629521
2.132942326490713
2.0635386119257086
1.992179863147605
1.9286412512218964
1.870967741935484
1.812316715542522
1.758553274682307
1.710654936461388
1.6695992179863148
1.6363636363636365
1.611925708699902
1.5943304007820136
1.5826001955034212
1.5747800586510263
1.5679374389051808
1.563049853372434
1.5591397849462365
1.5542521994134897
1.5493646138807429
1.542521994134897
1.5327468230694037
1.5190615835777126
1.504398826979472
1.487781036168133
1.4672531769305963
1.4457478005865103
1.4252199413489737
1.4056695992179864
1.3900293255131966
1.375366568914956
1.356793743890518
1.3372434017595307
1.316715542521994
1.295210166177908
1.2756598240469208
1.2590420332355816
1.2443792766373412
1.2316715542521994
1.219941348973607
1.2082111436950147
1.2013685239491692
1.1945259042033236
1.1857282502443791
1.1759530791788857
1.163245356793744
1.1485826001955035
1.133919843597263
1.121212121212121
1.1114369501466277
1.1036168132942326
1.096774193548387
1.0918866080156402
1.0909090909090908
1.0909090909090908
1.088954056695992
1.0879765395894427
1.0879765395894427
1.0879765395894427
1.0879765395894427
1.0879765395894427
1.0879765395894427
1.0879765395894427
1.0879765395894427
1.0879765395894427
1.0879765395894427
1.088954056695992
1.0909090909090908
1.0909090909090908
1.088954056695992
1.0879765395894427
1.088954056695992
1.0899315738025417
1.088954056695992
1.0879765395894427
1.0879765395894427
1.0879765395894427
1.0899315738025417
1.0977517106549364
1.115347018572825
1.1515151515151516
1.2121212121212122
1.300097751710655
1.4173998044965788
1.564027370478983
1.7311827956989247
1.9130009775171064
2.101661779081134
2.2854349951124147
2.458455522971652
2.611925708699902
2.727272727272727
2.812316715542522
2.8856304985337244
2.943304007820137
2.98435972629521
3.0087976539589443
3.018572825024438
3.01564027370479
3.0019550342130987
2.981427174975562
2.95405669599218
2.920821114369501
2.8836754643206257
2.843597262952102
2.801564027370479
2.758553274682307
2.7155425219941347
2.673509286412512
2.633431085043988
2.5943304007820136
2.5542521994134897
2.5112414467253177
2.464320625610948
2.41544477028348
2.360703812316716
2.3069403714565007
2.2531769305962857
2.190615835777126
2.1221896383186705
2.0498533724340176
1.9765395894428155
1.9071358748778104
1.844574780058651
1.7869012707722385
1.7350928641251222
1.6901270772238517
1.6520039100684265
1.624633431085044
1.606060606060606
1.5913978494623655
1.581622678396872
1.573802541544477
1.5669599217986314
1.5610948191593352
1.555229716520039
1.5493646138807429
1.541544477028348
1.5288367546432062
1.5141739980449658
1.498533724340176
1.4858260019550342
1.474095796676442
1.457478005865103
1.436950146627566
1.41544477028348
1.393939393939394
1.3724340175953078
1.3499511241446724
1.3284457478005864
1.3079178885630498
1.2883675464320623
1.2688172043010753
1.2551319648093842
1.2434017595307918
1.2297165200391007
1.2140762463343109
1.1994134897360704
1.1857282502443791
1.1730205278592376
1.164222873900293
1.155425219941349
1.1456500488758554
1.133919843597263
1.1231671554252198
1.1133919843597262
1.1055718475073313
1.1006842619745845
1.0957966764418376
1.0918866080156402
1.0899315738025417
1.088954056695992
1.0879765395894427
1.0879765395894427
1.0879765395894427
1.0879765395894427
1.0879765395894427
1.0879765395894427
1.088954056695992
1.0899315738025417
1.088954056695992
1.0879765395894427
1.0879765395894427
1.0879765395894427
1.0879765395894427
1.088954056695992
1.0899315738025417
1.0899315738025417
1.0899315738025417
1.088954056695992
1.0879765395894427
1.0879765395894427
1.0879765395894427
1.0879765395894427
1.078201368523949
1.072336265884653
1.0918866080156402
1.1368523949169111
1.2130987292277615
1.3235581622678396
1.4652981427174976
1.632453567937439
1.8162267839687196
1.9833822091886608
2.1378299120234603
2.30791788856305
2.4711632453567938
2.6177908113391983
2.7438905180840663
2.843597262952102
2.918866080156403
2.972629521016618
3.007820136852395
3.0254154447702835
3.0283479960899315
3.0195503421309877
2.9980449657869013
2.967741935483871
2.9335288367546437
2.897360703812317
2.860215053763441
2.820136852394917
2.780058651026393
2.7390029325513194
2.6959921798631474
2.6529814271749754
2.610948191593353
2.570869990224829
2.532746823069404
2.49266862170088
2.447702834799609
2.398826979472141
2.3440860215053765
2.2844574780058653
2.219941348973607
2.1515151515151514
2.081133919843597
2.010752688172043
1.9423264907135875
1.8778103616813293
1.818181818181818
1.7702834799608993
1.732160312805474
1.696969696969697
1.6656891495601174
1.6412512218963833
1.6236559139784943
1.608993157380254
1.5962854349951123
1.58455522971652
1.5728250244379276
1.563049853372434
1.5562072336265884
1.5513196480938416
1.547409579667644
1.5395894428152492
1.5278592375366569
1.5131964809384164
1.498533724340176
1.482893450635386
1.4633431085043989
1.439882697947214
1.4164222873900294
1.392961876832845
1.370478983382209
1.3479960899315735
1.3304007820136852
1.3147605083088951
1.295210166177908
1.2746823069403714
1.2551319648093842
1.2365591397849462
1.2209188660801564
1.2052785923753666
1.1896383186705768
1.173998044965787
1.1573802541544478
1.1407624633431086
1.1290322580645162
1.118279569892473
1.104594330400782
1.0909090909090908
1.0801564027370478
1.0703812316715542
1.0606060606060606
1.050830889540567
1.0449657869012707
1.0420332355816226
1.0410557184750733
1.0391006842619743
1.0381231671554252
1.0391006842619743
1.0391006842619743
1.0391006842619743
1.0391006842619743
1.0391006842619743
1.0391006842619743
1.0391006842619743
1.0391006842619743
1.0391006842619743
1.0391006842619743
1.0391006842619743
1.0391006842619743
1.040078201368524
1.0410557184750733
1.040078201368524
1.040078201368524
1.040078201368524
1.040078201368524
1.040078201368524
1.0371456500488758
1.0312805474095796
1.0273704789833822
1.029325513196481
1.043010752688172
1.0664711632453567
1.1065493646138806
1.1759530791788857
1.2776148582600195
1.4076246334310851
1.5620723362658846
1.7341153470185728
1.916911045943304
2.102639296187683
2.280547409579668
2.443792766373412
2.587487781036168
2.708699902248289
2.7947214076246336
2.849462365591398
2.89345063538612
2.9237536656891496
2.936461388074292
2.9335288367546437
2.917888563049853
2.89247311827957
2.860215053763441
2.822091886608016
2.779081133919844
2.736070381231672
2.6940371456500487
2.6510263929618767
2.606060606060606
2.560117302052786
2.512218963831867
2.464320625610948
2.41544477028348
2.363636363636364
2.3118279569892475
2.2580645161290325
2.19941348973607
2.136852394916911
2.071358748778104
2.0097751710654936
1.9501466275659824
1.881720430107527
1.8074291300097751
1.7331378299120237
1.66177908113392
1.595307917888563
1.5376344086021505
1.4887585532746823
1.447702834799609
1.41544477028348
1.392961876832845
1.3792766373411536
1.3695014662756595
1.359726295210166
1.35386119257087
1.3509286412512218
1.3499511241446724
1.3479960899315735
1.3450635386119256
1.3411534701857282
1.3333333333333333
1.324535679374389
1.313782991202346
1.3020527859237536
1.2903225806451613
1.2776148582600195
1.260019550342131
1.2404692082111437
1.2209188660801564
1.203323558162268
1.1857282502443791
1.1691104594330402
1.1505376344086022
1.1290322580645162
1.10752688172043
1.0879765395894427
1.0742913000977516
1.0635386119257086
1.050830889540567
1.0391006842619743
1.0283479960899315
1.0175953079178883
1.0058651026392962
0.9951124144672532
0.9843597262952102
0.9726295210166178
0.9618768328445748
0.9511241446725318
0.9413489736070382
0.9374389051808406
0.935483870967742
0.9325513196480938
0.9305962854349952
0.9296187683284456
0.927663734115347
0.9237536656891496
0.9208211143695014
0.9178885630498532
0.913978494623656
0.9100684261974584
0.9081133919843596
0.9100684261974584
0.913978494623656
0.9159335288367546
0.916911045943304
0.9178885630498532
0.9178885630498532
0.9178885630498532
0.9178885630498532
0.9178885630498532
0.9149560117302052
0.9110459433040078
0.9071358748778104
0.9032258064516128
0.9022482893450636
0.9042033235581622
0.9081133919843596
0.919843597262952
0.9481915933528836
0.9990224828934506
1.0772238514173995
1.18475073313783
1.3225806451612905
1.4848484848484849
1.6656891495601174
1.855327468230694
2.0205278592375366
2.16911045943304
2.326490713587488
2.472140762463343
2.5962854349951123
2.696969696969697
2.7751710654936463
2.831867057673509
2.8699902248289346
2.8885630498533725
2.8826979472140764
2.8611925708699903
2.835777126099707
2.806451612903226
2.774193548387097
2.739980449657869
2.7038123167155423
2.664711632453568
2.624633431085044
2.582600195503421
2.5386119257087
2.493646138807429
2.449657869012708
2.406647116324536
2.364613880742913
2.3255131964809386
2.2873900293255134
2.243401759530792
2.1945259042033234
2.1407624633431084
2.0821114369501466
2.0195503421309877
1.9550342130987293
1.8885630498533723
1.826001955034213
1.76930596285435
1.7174975562072337
1.672531769305963
1.6392961876832846
1.6138807429130009
1.590420332355816
1.5708699902248289
1.555229716520039
1.543499511241447
1.5347018572825024
1.5278592375366569
1.521994134897361
1.5161290322580645
1.5102639296187683
1.5053763440860215
1.500488758553275
1.4926686217008798
1.4809384164222874
1.469208211143695
1.457478005865103
1.4437927663734116
1.4271749755620724
1.4086021505376345
1.3890518084066472
1.3685239491691104
1.3499511241446724
1.3313782991202343
1.316715542521994
1.305962854349951
1.2932551319648091
1.278592375366569
1.2639296187683284
1.2482893450635386
1.2336265884652982
1.2179863147605083
1.2043010752688172
1.1915933528836755
1.181818181818182
1.1720430107526882
1.1612903225806452
1.155425219941349
1.1495601173020529
1.141739980449658
1.1348973607038124
1.1319648093841643
1.1300097751710656
1.1290322580645162
1.1290322580645162
1.1290322580645162
1.1290322580645162
1.1290322580645162
1.1290322580645162
1.1300097751710656
1.1319648093841643
1.1329423264907137
1.1329423264907137
1.1329423264907137
1.1329423264907137
1.1329423264907137
1.1329423264907137
1.1329423264907137
1.1329423264907137
1.1329423264907137
1.1329423264907137
1.1329423264907137
1.133919843597263
1.1348973607038124
1.133919843597263
1.133919843597263
1.133919843597263
1.133919843597263
1.1348973607038124
1.13880742913001
1.1485826001955035
1.1691104594330402
1.2072336265884651
1.2697947214076246
1.3440860215053765
1.4349951124144673
1.560117302052786
1.7096774193548387
1.87683284457478
2.053763440860215
2.23069403714565
2.398826979472141
2.549364613880743
2.677419354838709
2.7810361681329425
2.863147605083089
2.9257086999022484
2.962854349951124
2.9804496578690127
2.989247311827957
2.988269794721408
2.9775171065493646
2.9579667644183774
2.930596285434995
2.897360703812317
2.863147605083089
2.8269794721407626
2.787878787878788
2.747800586510264
2.708699902248289
2.6695992179863146
2.6295210166177907
2.590420332355816
2.550342130987292
2.50733137829912
2.464320625610948
2.419354838709677
2.3685239491691106
2.312805474095797
2.2521994134897363
2.188660801564027
2.1251221896383186
2.0684261974584555
2.01564027370479
1.959921798631476
1.9042033235581624
1.8494623655913975
1.7986314760508308
1.7546432062561097
1.715542521994135
1.683284457478006
1.656891495601173
1.6363636363636365
1.6217008797653958
1.6138807429130009
1.6080156402737047
1.603128054740958
1.598240469208211
1.5923753665689149
1.587487781036168
1.5796676441837731
1.5679374389051808
1.5542521994134897
1.5405669599217986
1.5239491691104594
1.504398826979472
1.482893450635386
1.466275659824047
1.452590420332356
1.4379276637341154
1.423264907135875
1.409579667644184
1.3949169110459434
1.3792766373411536
1.3655913978494625
1.3509286412512218
1.3343108504398826
1.3176930596285434
1.3010752688172045
1.289345063538612
1.2795698924731185
1.2668621700879763
1.2551319648093842
1.24633431085044
1.2394916911045943
1.2336265884652982
1.2267839687194526
1.2189638318670577
1.2111436950146628
1.2043010752688172
1.198435972629521
1.1925708699902249
1.1896383186705768
1.1886608015640274
1.1857282502443791
1.1827956989247312
1.1798631476050832
1.176930596285435
1.1759530791788857
1.1759530791788857
1.1779081133919844
1.1788856304985338
1.1808406647116323
1.1827956989247312
1.1867057673509287
1.1906158357771262
1.1925708699902249
1.1935483870967742
1.1945259042033236
1.1945259042033236
1.195503421309873
1.1974584555229717
1.1974584555229717
1.1945259042033236
1.1906158357771262
1.187683284457478
1.187683284457478
1.1925708699902249
1.206256109481916
1.2355816226783969
1.284457478005865
1.3587487781036167
1.4613880742913
1.5894428152492668
1.739980449657869
1.9042033235581624
2.075268817204301
2.2453567937438903
2.406647116324536
2.532746823069404
2.636363636363636
2.7370478983382207
2.8211143695014664
2.886608015640274
2.9345063538611926
2.9667644183773216
2.9824046920821115
2.9853372434017595
2.9765395894428157
2.9579667644183774
2.9335288367546437
2.9042033235581624
2.8719452590420333
2.8377321603128056
2.801564027370479
2.7624633431085046
2.7223851417399803
2.6823069403714563
2.641251221896383
2.5992179863147604
2.555229716520039
2.509286412512219
2.4652981427174976
2.420332355816227
2.375366568914956
2.3284457478005867
2.274682306940372
2.2160312805474094
2.134897360703812
2.040078201368524
1.9560117302052784
1.878787878787879
1.8054740957966764
1.7390029325513197
1.6793743890518085
1.6265884652981428
1.581622678396872
1.5483870967741935
1.5249266862170088
1.504398826979472
1.487781036168133
1.4750733137829912
1.466275659824047
1.457478005865103
1.447702834799609
1.435972629521017
1.4222873900293256
1.4066471163245358
1.3900293255131966
1.3743890518084063
1.359726295210166
1.3411534701857282
1.321603128054741
1.3010752688172045
1.2795698924731185
1.2580645161290325
1.2346041055718475
1.2111436950146628
1.1896383186705768
1.1700879765395895
1.152492668621701
1.1397849462365592
1.1290322580645162
1.115347018572825
1.1006842619745845
1.0850439882697946
1.067448680351906
1.0488758553274682
1.0312805474095796
1.0156402737047898
1.002932551319648
0.9912023460410556
0.9794721407624634
0.967741935483871
0.9608993157380256
0.9560117302052786
0.9481915933528836
0.93841642228739
0.9286412512218964
0.9178885630498532
0.9071358748778104
0.8963831867057673
0.8866080156402737
0.8778103616813294
0.8709677419354839
0.8680351906158358
0.8690127077223851
0.8690127077223851
0.8670576735092864
0.8660801564027371
0.8651026392961877
0.8651026392961877
0.8651026392961877
0.8621700879765396
0.8572825024437928
0.8533724340175953
0.8494623655913979
0.8455522971652004
0.8435972629521017
0.8455522971652004
0.8494623655913979
0.8494623655913979
0.8475073313782991
0.8435972629521017
0.8406647116324536
0.8396871945259042
0.8475073313782991
0.8719452590420332
0.9188660801564028
0.9941348973607038
1.1026392961876832
1.219941348973607
1.348973607038123
1.5102639296187683
1.6911045943304008
1.8797653958944285
2.064516129032258
2.236559139784946
2.388074291300098
2.5161290322580645
2.619745845552297
2.6989247311827955
2.7546432062561097
2.790811339198436
2.806451612903226
2.8044965786901277
2.792766373411535
2.771260997067449
2.7438905180840663
2.7116324535679373
2.673509286412512
2.631476050830889
2.5865102639296187
2.541544477028348
2.493646138807429
2.447702834799609
2.407624633431085
2.3685239491691106
2.326490713587488
2.2825024437927666
2.2355816226783967
2.187683284457478
2.136852394916911
2.081133919843597
2.021505376344086
1.9560117302052784
1.8866080156402736
1.8162267839687196
1.7468230694037146
1.6881720430107527
1.6363636363636365
1.58455522971652
1.5376344086021505
1.4965786901270772
1.4604105571847508
1.4291300097751711
1.401759530791789
1.380254154447703
1.3626588465298142
1.3509286412512218
1.3440860215053765
1.3401759530791788
1.3401759530791788
1.3401759530791788
1.3401759530791788
1.33822091886608
1.3333333333333333
1.3255131964809383
1.3157380254154447
1.305962854349951
1.295210166177908
1.284457478005865
1.270772238514174
1.2551319648093842
1.241446725317693
1.227761485826002
1.2101661779081134
1.1915933528836755
1.173998044965787
1.1573802541544478
1.1407624633431086
1.1241446725317692
1.10752688172043
1.0909090909090908
1.0762463343108504
1.06158357771261
1.0518084066471165
1.0449657869012707
1.035190615835777
1.0234604105571847
1.0117302052785924
1.0009775171065494
1.0
0.9990224828934506
0.9941348973607038
0.989247311827957
0.9882697947214076
0.9941348973607038
1.0156402737047898
1.0488758553274682
1.1016617790811338
1.1867057673509287
1.305962854349951
1.4535679374389052
1.6236559139784943
1.8064516129032255
1.994134897360704
2.176930596285435
2.347018572825025
2.4995112414467253
2.63049853372434
2.7262952101661777
2.7947214076246336
2.8533724340175954
2.8963831867057674
2.9227761485826003
2.9345063538611926
2.932551319648094
2.917888563049853
2.8944281524926687
2.8641251221896384
2.8289345063538613
2.789833822091887
2.747800586510264
2.7067448680351904
2.665689149560117
2.622678396871945
2.5806451612903225
2.5405669599217986
2.5004887585532747
2.4574780058651027
2.412512218963832
2.367546432062561
2.320625610948192
2.269794721407625
2.2160312805474094
2.164222873900293
2.1114369501466275
2.048875855327468
1.981427174975562
1.9120234604105573
1.8455522971652003
1.7820136852394917
1.7233626588465298
1.6705767350928642
1.624633431085044
1.587487781036168
1.5562072336265884
1.533724340175953
1.520039100684262
1.5102639296187683
1.5034213098729228
1.498533724340176
1.4946236559139785
1.4897360703812317
1.4848484848484849
1.478983382209189
1.474095796676442
1.4672531769305963
1.4897360703812317
1.525904203323558
1.5386119257087
1.5395894428152492
1.530791788856305
1.5161290322580645
1.500488758553275
1.4848484848484849
1.4672531769305963
1.4486803519061584
1.4291300097751711
1.4086021505376345
1.388074291300098
1.367546432062561
1.3509286412512218
1.33822091886608
1.3255131964809383
1.3128054740957966
1.3010752688172045
1.2913000977517106
1.284457478005865
1.278592375366569
1.2727272727272727
1.2668621700879763
1.260019550342131
1.252199413489736
1.2443792766373412
1.238514173998045
1.2336265884652982
1.2267839687194526
1.2209188660801564
1.2150537634408602
1.2101661779081134
1.2052785923753666
1.1994134897360704
1.1945259042033236
1.1896383186705768
1.18475073313783
1.1808406647116323
1.1798631476050832
1.1798631476050832
1.176930596285435
1.1730205278592376
1.1681329423264908
1.164222873900293
1.1622678396871946
1.163245356793744
1.163245356793744
1.1622678396871946
1.163245356793744
1.163245356793744
1.1622678396871946
1.163245356793744
1.1652003910068427
1.1671554252199414
1.173998044965787
1.1935483870967742
1.2326490713587488
1.2981427174975562
1.391006842619746
1.5141739980449658
1.6627565982404693
1.8318670576735088
2.010752688172043
2.167155425219941
2.3088954056695994
2.4594330400782014
2.603128054740958
2.732160312805474
2.8406647116324537
2.9257086999022484
2.9902248289345064
3.034213098729228
3.059628543499511
3.069403714565005
3.067448680351906
3.056695992179863
3.035190615835777
3.007820136852395
2.978494623655914
2.9472140762463344
2.913000977517106
2.877810361681329
2.841642228739003
2.8025415444770285
2.7624633431085046
2.721407624633431
2.6803519061583576
2.638318670576735
2.5962854349951123
2.5542521994134897
2.5083088954056696
2.458455522971652
2.403714565004888
2.3440860215053765
2.280547409579668
2.21505376344086
2.150537634408602
2.0869990224828934
2.026392961876833
1.9716520039100685
1.9227761485826005
1.8826979472140764
1.8494623655913975
1.8201368523949168
1.7947214076246334
1.775171065493646
1.7595307917888563
1.747800586510264
1.7409579667644184
1.7360703812316716
1.7311827956989247
1.7253176930596286
1.7165200391006843
1.7086999022482894
1.7008797653958945
1.6920821114369502
1.6823069403714566
1.6705767350928642
1.656891495601173
1.643206256109482
1.6265884652981428
1.607038123167155
1.585532746823069
1.5650048875855327
1.543499511241447
1.52297165200391
1.5063538611925709
1.4916911045943304
1.4760508308895406
1.4623655913978495
1.447702834799609
1.434017595307918
1.4213098729227762
1.4076246334310851
1.392961876832845
1.3792766373411536
1.364613880742913
1.3509286412512218
1.3411534701857282
1.3333333333333333
1.3255131964809383
1.3196480938416422
1.3157380254154447
1.3118279569892473
1.3079178885630498
1.305962854349951
1.3049853372434017
1.3010752688172045
1.2981427174975562
1.2971652003910068
1.2971652003910068
1.3010752688172045
1.305962854349951
1.3088954056695992
1.3098729227761483
1.310850439882698
1.310850439882698
1.3118279569892473
1.313782991202346
1.3157380254154447
1.3186705767350928
1.3196480938416422
1.3186705767350928
1.3186705767350928
1.3186705767350928
1.3157380254154447
1.3118279569892473
1.3088954056695992
1.3088954056695992
1.310850439882698
1.3176930596285434
1.3362658846529814
1.375366568914956
1.4379276637341154
1.525904203323558
1.640273704789834
1.7565982404692082
1.8807429130009776
2.035190615835777
2.203323558162268
2.3714565004887587
2.529814271749756
2.673509286412512
2.798631476050831
2.9012707722385143
2.9824046920821115
3.0439882697947214
3.085043988269794
3.101661779081134
3.101661779081134
3.096774193548387
3.085043988269794
3.069403714565005
3.048875855327468
3.022482893450636
2.992179863147605
2.9589442815249267
2.924731182795699
2.889540566959922
2.852394916911046
2.8132942326490715
2.774193548387097
2.735092864125122
2.695014662756598
2.6529814271749754
2.608993157380254
2.5610948191593352
2.5083088954056696
2.452590420332356
2.391006842619746
2.324535679374389
2.2551319648093844
2.1837732160312804
2.1192570869990224
2.058651026392962
1.9931573802541545
1.9286412512218964
1.869012707722385
1.8172043010752688
1.7712609970674489
1.732160312805474
1.699902248289345
1.6744868035190617
1.656891495601173
1.6451612903225807
1.6383186705767352
1.6334310850439884
1.6304985337243405
1.6275659824046922
1.6226783968719452
1.6177908113391983
1.6129032258064515
1.6050830889540566
1.5943304007820136
1.5806451612903225
1.5650048875855327
1.5454545454545454
1.52297165200391
1.5034213098729228
1.4868035190615836
1.4682306940371457
1.4506353861192571
1.4320625610948192
1.412512218963832
1.3949169110459434
1.3782991202346042
1.3626588465298142
1.348973607038123
1.335288367546432
1.3235581622678396
1.3147605083088951
1.3079178885630498
1.2981427174975562
1.2854349951124144
1.2727272727272727
1.219941348973607
1.1456500488758554
1.1026392961876832
1.0791788856304985
1.064516129032258
1.0547409579667644
1.0469208211143697
1.040078201368524
1.0371456500488758
1.035190615835777
1.029325513196481
1.021505376344086
1.0146627565982405
1.0087976539589445
1.0048875855327468
1.002932551319648
1.0019550342130987
1.0009775171065494
1.0009775171065494
1.0009775171065494
1.0019550342130987
1.0019550342130987
1.0019550342130987
1.0019550342130987
1.0009775171065494
1.0009775171065494
1.0009775171065494
1.0009775171065494
1.0009775171065494
1.0009775171065494
1.0009775171065494
1.002932551319648
1.0117302052785924
1.029325513196481
1.0635386119257086
1.1221896383186705
1.209188660801564
1.3264907135874875
1.4731182795698925
1.643206256109482
1.8299120234604105
2.0205278592375366
2.204301075268817
2.378299120234604
2.5317693059628543
2.6451612903225805
2.729227761485826
2.8054740957966766
2.868035190615836
2.911045943304008
2.935483870967742
2.9442815249266863
2.9423264907135875
2.930596285434995
2.911045943304008
2.8826979472140764
2.8475073313782997
