ppg
2.659824046920821
2.6021505376344085
2.5386119257087
2.464320625610948
2.3841642228739004
2.302052785923754
2.219941348973607
2.1388074291300097
2.058651026392962
1.9804496578690127
1.903225806451613
1.825024437927664
1.7468230694037146
1.6686217008797657
1.5992179863147604
1.5356793743890518
1.4652981427174976
1.392961876832845
1.3225806451612905
1.2570869990224829
1.1994134897360704
1.1505376344086022
1.1124144672531768
1.0850439882697946
1.067448680351906
1.0606060606060606
1.0625610948191593
1.0713587487781036
1.0850439882697946
1.1036168132942326
1.1241446725317692
1.1466275659824048
1.1691104594330402
1.1896383186705768
1.2072336265884651
1.2209188660801564
1.2316715542521994
1.2394916911045943
1.2434017595307918
1.24633431085044
1.2482893450635386
1.2473118279569892
1.2424242424242424
1.2346041055718475
1.2238514173998043
1.2101661779081134
1.195503421309873
1.1808406647116323
1.1671554252199414
1.1544477028347997
1.1436950146627567
1.1368523949169111
1.130987292277615
1.1221896383186705
1.1114369501466277
1.099706744868035
1.088954056695992
1.0879765395894427
1.1055718475073313
1.152492668621701
1.2375366568914956
1.3636363636363635
1.5278592375366569
1.7194525904203324
1.8963831867057677
2.059628543499511
2.23069403714565
2.3870967741935485
2.5131964809384164
2.6021505376344085
2.653958944281525
2.6715542521994133
2.658846529814272
2.622678396871945
2.5669599217986314
2.498533724340176
2.429130009775171
2.3597262952101663
2.281524926686217
2.19941348973607
2.117302052785924
2.035190615835777
1.9530791788856303
1.871945259042033
1.790811339198436
1.7096774193548387
1.6275659824046922
1.544477028347996
1.4613880742913
1.3890518084066472
1.324535679374389
1.2551319648093842
1.1867057673509287
1.1241446725317692
1.0713587487781036
1.0303030303030305
1.002932551319648
0.9882697947214076
0.9853372434017597
0.9931573802541545
1.0097751710654936
1.0303030303030305
1.053763440860215
1.0811339198435972
1.1085043988269794
1.1358748778103618
1.160312805474096
1.181818181818182
1.1994134897360704
1.2121212121212122
1.219941348973607
1.2218963831867058
1.219941348973607
1.2140762463343109
1.2082111436950147
1.2003910068426198
1.1886608015640274
1.1749755620723363
1.1700879765395895
1.1691104594330402
1.1622678396871946
1.1534701857282503
1.1456500488758554
1.1397849462365592
1.133919843597263
1.1270772238514175
1.121212121212121
1.115347018572825
1.104594330400782
1.0948191593352885
1.0928641251221896
1.1114369501466277
1.1622678396871946
1.2551319648093842
1.3958944281524928
1.5806451612903225
1.7986314760508308
2.034213098729228
2.2385141739980448
2.412512218963832
2.5835777126099706
2.727272727272727
2.831867057673509
2.895405669599218
2.918866080156403
2.90811339198436
2.8690127077223853
2.8084066471163247
2.7331378299120237
2.64613880742913
2.552297165200391
2.463343108504399
2.377321603128055
2.281524926686217
2.1818181818181817
2.0791788856304985
1.9765395894428155
1.873900293255132
1.7712609970674489
1.6705767350928642
1.5718475073313782
1.4760508308895406
1.3851417399804498
1.3118279569892473
1.2502443792766371
1.1886608015640274
1.133919843597263
1.088954056695992
1.0557184750733135
1.0342130987292275
1.0234604105571847
1.024437927663734
1.0342130987292275
1.0518084066471165
1.075268817204301
1.1016617790811338
1.1280547409579669
1.1534701857282503
1.1808406647116323
1.206256109481916
1.2287390029325511
1.2473118279569892
1.2609970674486803
1.270772238514174
1.2766373411534702
1.2776148582600195
1.2756598240469208
1.2697947214076246
1.2649071358748778
1.2609970674486803
1.2551319648093842
1.2473118279569892
1.2394916911045943
1.2326490713587488
1.227761485826002
1.2238514173998043
1.2218963831867058
1.2218963831867058
1.2209188660801564
1.2189638318670577
1.2150537634408602
1.2130987292277615
1.2160312805474096
1.2267839687194526
1.2570869990224829
1.316715542521994
1.41544477028348
1.5571847507331378
1.7380254154447703
1.9472140762463344
2.1681329423264906
2.3851417399804498
2.579667644183773
2.7253176930596283
2.827956989247312
2.909090909090909
2.9579667644183774
2.973607038123167
2.9589442815249267
2.917888563049853
2.8563049853372435
2.7810361681329425
2.695014662756598
2.6041055718475072
2.5102639296187683
2.4164222873900294
2.332355816226784
2.2551319648093844
2.1730205278592374
2.088954056695992
2.003910068426197
1.9188660801564028
1.833822091886608
1.7487781036168133
1.664711632453568
1.581622678396872
1.500488758553275
1.423264907135875
1.3607038123167154
1.3079178885630498
1.2561094819159335
1.2101661779081134
1.1720430107526882
1.1436950146627567
1.1241446725317692
1.1143695014662756
1.1133919843597262
1.1202346041055715
1.1329423264907137
1.1505376344086022
1.1710654936461389
1.1915933528836755
1.2111436950146628
1.23069403714565
1.2473118279569892
1.2609970674486803
1.270772238514174
1.2766373411534702
1.2795698924731185
1.2795698924731185
1.2766373411534702
1.270772238514174
1.2639296187683284
1.2590420332355816
1.2541544477028348
1.2473118279569892
1.2404692082111437
1.2346041055718475
1.2297165200391007
1.2267839687194526
1.2238514173998043
1.2218963831867058
1.2189638318670577
1.2150537634408602
1.2130987292277615
1.2189638318670577
1.2346041055718475
1.2688172043010753
1.335288367546432
1.4418377321603129
1.5894428152492668
1.7732160312805474
1.981427174975562
2.1974584555229715
2.4056695992179864
2.590420332355816
2.739980449657869
2.8484848484848486
2.9100684261974585
2.9345063538611926
2.9335288367546437
2.906158357771261
2.857282502443793
2.790811339198436
2.7126099706744866
2.625610948191593
2.5347018572825024
2.442815249266862
2.3499511241446727
2.259042033235582
2.1710654936461387
2.093841642228739
2.022482893450636
1.945259042033236
1.865102639296188
1.7839687194525904
1.7018572825024438
1.6187683284457477
1.5356793743890518
1.4535679374389052
1.375366568914956
1.3020527859237536
1.2365591397849462
1.187683284457478
1.1515151515151516
1.1192570869990224
1.0957966764418376
1.0821114369501466
1.078201368523949
1.083088954056696
1.0957966764418376
1.1143695014662756
1.1378299120234605
1.164222873900293
1.1906158357771262
1.217008797653959
1.2404692082111437
1.2609970674486803
1.278592375366569
1.29227761485826
1.300097751710655
1.303030303030303
1.300097751710655
1.29227761485826
1.278592375366569
1.2619745845552297
1.241446725317693
1.2189638318670577
1.1994134897360704
1.1827956989247312
1.1622678396871946
1.141739980449658
1.1231671554252198
1.1055718475073313
1.088954056695992
1.0733137829912025
1.0576735092864125
1.04594330400782
1.0439882697947214
1.06158357771261
1.110459433040078
1.1798631476050832
1.2776148582600195
1.4242424242424243
1.608993157380254
1.8191593352883677
2.0361681329423265
2.241446725317693
2.420332355816227
2.563049853372434
2.664711632453568
2.7262952101661777
2.7497556207233624
2.744868035190616
2.716520039100684
2.668621700879765
2.6050830889540566
2.529814271749756
2.44672531769306
2.3597262952101663
2.271749755620724
2.1847507331378297
2.0987292277614857
2.013685239491691
1.927663734115347
1.8504398826979471
1.780058651026393
1.7028347996089932
1.6207233626588464
1.5366568914956011
1.4516129032258065
1.3685239491691104
1.2903225806451613
1.2179863147605083
1.155425219941349
1.1036168132942326
1.064516129032258
1.0391006842619743
1.0283479960899315
1.0283479960899315
1.0361681329423265
1.0527859237536656
1.0772238514173995
1.1065493646138806
1.1378299120234605
1.1700879765395895
1.2013685239491692
1.2297165200391007
1.2541544477028348
1.273704789833822
1.2873900293255132
1.2961876832844574
1.2991202346041055
1.2961876832844574
1.2883675464320623
1.2746823069403714
1.2561094819159335
1.2346041055718475
1.2111436950146628
1.1867057673509287
1.164222873900293
1.144672531769306
1.1290322580645162
1.1192570869990224
1.115347018572825
1.110459433040078
1.1055718475073313
1.0987292277614855
1.0899315738025417
1.0821114369501466
1.0821114369501466
1.1006842619745845
1.1485826001955035
1.2375366568914956
1.3734115347018572
1.521994134897361
1.6881720430107527
1.8983382209188664
2.126099706744868
2.3489736070381237
2.547409579667644
2.708699902248289
2.8269794721407626
2.900293255131965
2.932551319648094
2.929618768328446
2.897360703812317
2.843597262952102
2.780058651026393
2.7096774193548385
2.625610948191593
2.533724340175953
2.4379276637341154
2.3391984359726297
2.2385141739980448
2.1378299120234603
2.037145650048876
1.9364613880742916
1.836754643206256
1.7380254154447703
1.6520039100684265
1.573802541544477
1.4897360703812317
1.4066471163245358
1.3294232649071358
1.2609970674486803
1.203323558162268
1.1573802541544478
1.1241446725317692
1.1026392961876832
1.093841642228739
1.093841642228739
1.1026392961876832
1.1163245356793745
1.133919843597263
1.1544477028347997
1.176930596285435
1.1994134897360704
1.2209188660801564
1.241446725317693
1.2590420332355816
1.2746823069403714
1.2873900293255132
1.2971652003910068
1.303030303030303
1.3069403714565004
1.3088954056695992
1.3069403714565004
1.3010752688172045
1.2932551319648091
1.2834799608993157
1.270772238514174
1.2570869990224829
1.2434017595307918
1.23069403714565
1.2189638318670577
1.2082111436950147
1.198435972629521
1.1915933528836755
1.1857282502443791
1.1788856304985338
1.1749755620723363
1.1798631476050832
1.2043010752688172
1.2580645161290325
1.3499511241446724
1.4838709677419355
1.6578690127077225
1.8641251221896384
2.0879765395894427
2.281524926686217
2.447702834799609
2.6129032258064515
2.752688172043011
2.8563049853372435
2.918866080156403
2.943304007820137
2.9335288367546437
2.895405669599218
2.835777126099707
2.760508308895406
2.674486803519061
2.5806451612903225
2.493646138807429
2.410557184750733
2.321603128054741
2.231671554252199
2.142717497556207
2.0557184750733137
1.9716520039100685
1.889540566959922
1.8084066471163245
1.7272727272727273
1.6471163245356797
1.5679374389051808
1.499511241446725
1.4379276637341154
1.3714565004887584
1.3049853372434017
1.2424242424242424
1.1857282502443791
1.1368523949169111
1.0987292277614855
1.0703812316715542
1.0518084066471165
1.0420332355816226
1.0410557184750733
1.0488758553274682
1.0625610948191593
1.0791788856304985
1.099706744868035
1.1231671554252198
1.147605083088954
1.1710654936461389
1.1925708699902249
1.2121212121212122
1.2267839687194526
1.2375366568914956
1.2443792766373412
1.24633431085044
1.2473118279569892
1.2473118279569892
1.2424242424242424
1.2346041055718475
1.2258064516129032
1.2160312805474096
1.2072336265884651
1.198435972629521
1.1906158357771262
1.1837732160312806
1.1779081133919844
1.1720430107526882
1.1681329423264908
1.1691104594330402
1.1788856304985338
1.2043010752688172
1.2561094819159335
1.3440860215053765
1.4721407624633431
1.640273704789834
1.839687194525904
2.0557184750733137
2.270772238514174
2.469208211143695
2.6373411534701856
2.7536656891495603
2.8269794721407626
2.874877810361681
2.8914956011730206
2.875855327468231
2.833822091886608
2.7702834799608995
2.6911045943304006
2.603128054740958
2.5102639296187683
2.4164222873900294
2.324535679374389
2.242424242424242
2.1681329423264906
2.090909090909091
2.013685239491691
1.9364613880742916
1.8592375366568916
1.782991202346041
1.7057673509286413
1.6285434995112416
1.5503421309872922
1.474095796676442
1.3998044965786902
1.3294232649071358
1.2727272727272727
1.2267839687194526
1.181818181818182
1.142717497556207
1.1114369501466277
1.0899315738025417
1.0772238514173995
1.0733137829912025
1.078201368523949
1.088954056695992
1.1055718475073313
1.1251221896383188
1.1456500488758554
1.1652003910068427
1.1827956989247312
1.1974584555229717
1.206256109481916
1.209188660801564
1.2072336265884651
1.1994134897360704
1.1857282502443791
1.1681329423264908
1.1466275659824048
1.1231671554252198
1.0977517106549364
1.078201368523949
1.06158357771261
1.0420332355816226
1.024437927663734
1.0097751710654936
1.0009775171065494
0.997067448680352
0.9931573802541545
0.989247311827957
0.9853372434017597
0.9833822091886608
0.9902248289345064
1.007820136852395
1.0439882697947214
1.1143695014662756
1.2258064516129032
1.380254154447703
1.5708699902248289
1.7859237536656891
2.006842619745845
2.2170087976539588
2.40078201368524
2.548387096774193
2.653958944281525
2.716520039100684
2.740957966764418
2.736070381231672
2.708699902248289
2.6608015640273703
2.5972629521016617
2.52297165200391
2.4408602150537635
2.3548387096774195
2.267839687194526
2.1808406647116323
2.0948191593352883
2.0097751710654936
1.935483870967742
1.8670576735092863
1.7917888563049853
1.7145650048875856
1.635386119257087
1.5542521994134897
1.4731182795698925
1.3949169110459434
1.3196480938416422
1.2512218963831867
1.1915933528836755
1.141739980449658
1.1026392961876832
1.078201368523949
1.0654936461388074
1.0576735092864125
1.0576735092864125
1.064516129032258
1.0762463343108504
1.0928641251221896
1.1114369501466277
1.130987292277615
1.1505376344086022
1.1691104594330402
1.1867057673509287
1.2013685239491692
1.2150537634408602
1.2258064516129032
1.2336265884652982
1.238514173998045
1.2404692082111437
1.2394916911045943
1.2346041055718475
1.2267839687194526
1.2160312805474096
1.2003910068426198
1.181818181818182
1.1593352883675463
1.13880742913001
1.1192570869990224
1.0928641251221896
1.0635386119257086
1.0332355816226784
1.0039100684261977
0.9804496578690128
0.9696969696969696
0.9824046920821116
1.0303030303030305
1.1241446725317692
1.2688172043010753
1.4301075268817205
1.6148582600195502
1.8533724340175952
2.118279569892473
2.3812316715542523
2.6207233626588464
2.8181818181818183
2.963831867057673
3.0518084066471163
3.086021505376344
3.072336265884653
3.0175953079178885
2.930596285434995
2.833822091886608
2.7282502443792764
2.6050830889540566
2.472140762463343
2.3382209188660803
2.2082111436950145
2.0840664711632453
1.9687194525904204
1.8641251221896384
1.76930596285435
1.6842619745845553
1.607038123167155
1.542521994134897
1.4858260019550342
1.4242424242424243
1.3607038123167154
1.2942326490713587
1.227761485826002
1.163245356793744
1.1016617790811338
1.0439882697947214
0.9931573802541545
0.9491691104594332
0.9159335288367546
0.8924731182795699
0.8817204301075269
0.8817204301075269
0.8885630498533724
0.9032258064516128
0.9257086999022482
0.9550342130987292
0.989247311827957
1.0234604105571847
1.0557184750733135
1.083088954056696
1.1016617790811338
1.1124144672531768
1.1173020527859236
1.1163245356793745
1.1055718475073313
1.0879765395894427
1.0664711632453567
1.0439882697947214
1.0224828934506354
1.0039100684261977
0.9921798631476052
0.9872922776148584
0.989247311827957
0.9990224828934506
1.0146627565982405
1.0332355816226784
1.0518084066471165
1.0684261974584557
1.0821114369501466
1.0928641251221896
1.104594330400782
1.126099706744868
1.1700879765395895
1.2453567937438903
1.3607038123167154
1.5161290322580645
1.7057673509286413
1.8875855327468232
2.0635386119257086
2.259042033235582
2.4486803519061584
2.6148582600195502
2.747800586510264
2.8426197458455524
2.900293255131965
2.9227761485826003
2.9120234604105573
2.8729227761485827
2.8103616813294234
2.7282502443792764
2.6422287390029324
2.5513196480938416
2.444770283479961
2.3304007820136854
2.2140762463343107
2.0977517106549364
1.9843597262952104
1.8758553274682308
1.7741935483870968
1.678396871945259
1.5884652981427174
1.5053763440860215
1.4379276637341154
1.380254154447703
1.3206256109481915
1.2619745845552297
1.206256109481916
1.1544477028347997
1.1065493646138806
1.0625610948191593
1.021505376344086
0.9833822091886608
0.9491691104594332
0.9188660801564028
0.8993157380254154
0.8866080156402737
0.8768328445747801
0.8729227761485826
0.8768328445747801
0.8895405669599218
0.9090909090909092
0.9364613880742912
0.9687194525904204
1.0048875855327468
1.0420332355816226
1.078201368523949
1.1094819159335287
1.1348973607038124
1.1544477028347997
1.166177908113392
1.1691104594330402
1.1622678396871946
1.147605083088954
1.126099706744868
1.099706744868035
1.072336265884653
1.0449657869012707
1.018572825024438
0.9960899315738024
0.981427174975562
0.9726295210166178
0.9687194525904204
0.9765395894428152
1.0068426197458455
1.0713587487781036
1.1788856304985338
1.3333333333333333
1.5327468230694037
1.7663734115347018
2.018572825024438
2.2688172043010755
2.4995112414467253
2.674486803519061
2.8025415444770285
2.906158357771261
2.9745845552297165
3.003910068426197
2.9980449657869013
2.961876832844575
2.903225806451613
2.827956989247312
2.7419354838709675
2.652003910068426
2.5610948191593352
2.4789833822091887
2.403714565004888
2.324535679374389
2.243401759530792
2.161290322580645
2.078201368523949
1.992179863147605
1.902248289345064
1.8074291300097751
1.7096774193548387
1.608993157380254
1.5063538611925709
1.426197458455523
1.375366568914956
1.321603128054741
1.260019550342131
1.198435972629521
1.1436950146627567
1.0987292277614855
1.064516129032258
1.0410557184750733
1.0273704789833822
1.0224828934506354
1.0254154447702837
1.0342130987292275
1.0478983382209188
1.0635386119257086
1.0811339198435972
1.0987292277614855
1.115347018572825
1.130987292277615
1.1436950146627567
1.1544477028347997
1.1622678396871946
1.1671554252199414
1.1681329423264908
1.1652003910068427
1.1583577712609971
1.152492668621701
1.1466275659824048
1.1378299120234605
1.1270772238514175
1.1163245356793745
1.10752688172043
1.1006842619745845
1.0948191593352885
1.0909090909090908
1.086021505376344
1.0811339198435972
1.078201368523949
1.0821114369501466
1.096774193548387
1.1319648093841643
1.1974584555229717
1.3020527859237536
1.4467253176930597
1.6275659824046922
1.833822091886608
2.047898338220919
2.2551319648093844
2.439882697947214
2.591397849462365
2.705767350928641
2.776148582600196
2.811339198435973
2.825024437927664
2.81622678396872
2.7869012707722387
2.740957966764418
2.6823069403714563
2.613880742913001
2.539589442815249
2.4613880742913
2.3812316715542523
2.3010752688172045
2.2297165200391005
2.163245356793744
2.090909090909091
2.01564027370479
1.9393939393939397
1.8621700879765395
1.7849462365591398
1.7096774193548387
1.6383186705767352
1.5718475073313782
1.512218963831867
1.4613880742913
1.4203323558162269
1.392961876832845
1.375366568914956
1.364613880742913
1.3616813294232648
1.3655913978494625
1.375366568914956
1.3900293255131966
1.4066471163245358
1.4242424242424243
1.4408602150537635
1.456500488758553
1.4701857282502444
1.4809384164222874
1.4887585532746823
1.4936461388074291
1.4936461388074291
1.4897360703812317
1.4819159335288368
1.469208211143695
1.4496578690127078
1.4242424242424243
1.392961876832845
1.3577712609970674
1.3196480938416422
1.2805474095796676
1.2482893450635386
1.2218963831867058
1.195503421309873
1.1720430107526882
1.152492668621701
1.1358748778103618
1.1231671554252198
1.1163245356793745
1.118279569892473
1.1358748778103618
1.1788856304985338
1.2561094819159335
1.348973607038123
1.4652981427174976
1.6265884652981428
1.8172043010752688
2.021505376344086
2.220918866080156
2.401759530791789
2.5513196480938416
2.6637341153470184
2.7370478983382207
2.773216031280548
2.776148582600196
2.752688172043011
2.713587487781036
2.662756598240469
2.5972629521016617
2.52297165200391
2.441837732160313
2.356793743890518
2.269794721407625
2.1808406647116323
2.089931573802541
1.9980449657869013
1.9042033235581624
1.8093841642228736
1.726295210166178
1.6500488758553276
1.565982404692082
1.478983382209189
1.393939393939394
1.313782991202346
1.2394916911045943
1.173998044965787
1.1173020527859236
1.0713587487781036
1.035190615835777
1.0087976539589445
0.9912023460410556
0.9824046920821116
0.9804496578690128
0.978494623655914
0.9775171065493646
0.9775171065493646
0.9775171065493646
0.9775171065493646
0.978494623655914
0.981427174975562
0.9863147605083088
0.9941348973607038
1.0039100684261977
1.0166177908113392
1.0303030303030305
1.04594330400782
1.0625610948191593
1.0791788856304985
1.0948191593352885
1.110459433040078
1.1241446725317692
1.1348973607038124
1.142717497556207
1.147605083088954
1.1485826001955035
1.1495601173020529
1.1495601173020529
1.144672531769306
1.1348973607038124
1.1231671554252198
1.1124144672531768
1.1094819159335287
1.1241446725317692
1.1681329423264908
1.2502443792766371
1.3773216031280548
1.547409579667644
1.75366568914956
1.9501466275659824
2.1378299120234603
2.3440860215053765
2.539589442815249
2.705767350928641
2.832844574780059
2.9159335288367547
2.9550342130987293
2.9550342130987293
2.921798631476051
2.863147605083089
2.7859237536656893
2.705767350928641
2.622678396871945
2.530791788856305
2.436950146627566
2.3440860215053765
2.2561094819159337
2.1730205278592374
2.0957966764418376
2.0234604105571847
1.95405669599218
1.8856304985337244
1.8162267839687196
1.7448680351906158
1.6813294232649072
1.619745845552297
1.5493646138807429
1.474095796676442
1.396871945259042
1.321603128054741
1.252199413489736
1.1906158357771262
1.13880742913001
1.099706744868035
1.0733137829912025
1.0596285434995112
1.0576735092864125
1.0654936461388074
1.0811339198435972
1.1026392961876832
1.1290322580645162
1.1564027370478984
1.181818181818182
1.2043010752688172
1.2209188660801564
1.2316715542521994
1.2365591397849462
1.2355816226783969
1.2297165200391007
1.2228739002932552
1.2160312805474096
1.2052785923753666
1.1925708699902249
1.1808406647116323
1.1700879765395895
1.163245356793744
1.160312805474096
1.160312805474096
1.164222873900293
1.1691104594330402
1.1720430107526882
1.1749755620723363
1.1759530791788857
1.173998044965787
1.1759530791788857
1.1896383186705768
1.2258064516129032
1.3010752688172045
1.4164222873900294
1.565982404692082
1.7448680351906158
1.943304007820137
2.146627565982405
2.3391984359726297
2.490713587487781
2.6070381231671558
2.70772238514174
2.780058651026393
2.822091886608016
2.833822091886608
2.819159335288368
2.782013685239492
2.7282502443792764
2.66177908113392
2.5865102639296187
2.505376344086021
2.429130009775171
2.3548387096774195
2.2737047898338223
2.189638318670577
2.104594330400782
2.018572825024438
1.932551319648094
1.8455522971652003
1.758553274682307
1.6715542521994136
1.585532746823069
1.5024437927663734
1.4242424242424243
1.3607038123167154
1.3079178885630498
1.2551319648093842
1.2072336265884651
1.1671554252199414
1.1368523949169111
1.1163245356793745
1.104594330400782
1.1006842619745845
1.1036168132942326
1.1114369501466277
1.1241446725317692
1.1397849462365592
1.1564027370478984
1.1749755620723363
1.1935483870967742
1.2121212121212122
1.2297165200391007
1.24633431085044
1.260019550342131
1.2717497556207231
1.2805474095796676
1.2873900293255132
1.2913000977517106
1.29227761485826
1.2932551319648091
1.2932551319648091
1.289345063538612
1.2834799608993157
1.2766373411534702
1.2697947214076246
1.2639296187683284
1.2580645161290325
1.2512218963831867
1.2434017595307918
1.2346041055718475
1.2287390029325511
1.2297165200391007
1.2434017595307918
1.2766373411534702
1.3421309872922775
1.4457478005865103
1.5894428152492668
1.7663734115347018
1.9657869012707725
2.1710654936461387
2.367546432062561
2.5405669599217986
2.681329423264907
2.78494623655914
2.84652981427175
2.875855327468231
2.8836754643206257
2.8699902248289346
2.8367546432062563
2.787878787878788
2.727272727272727
2.6578690127077222
2.582600195503421
2.5034213098729228
2.4222873900293256
2.340175953079179
2.2658846529814274
2.1955034213098727
2.1192570869990224
2.038123167155425
1.9550342130987293
1.870967741935484
1.7859237536656891
1.7028347996089932
1.6226783968719452
1.5493646138807429
1.4868035190615836
1.436950146627566
1.4007820136852396
1.380254154447703
