ppg
1.327468230694037
1.3626588465298142
1.418377321603128
1.4819159335288368
1.5591397849462365
1.6627565982404693
1.7869012707722385
1.9266862170087975
2.0762463343108504
2.23069403714565
2.383186705767351
2.5317693059628543
2.6695992179863146
2.795698924731183
2.90811339198436
2.9931573802541545
3.059628543499511
3.1251221896383186
3.1837732160312804
3.2355816226783967
3.2795698924731185
3.314760508308896
3.3421309872922778
3.3626588465298144
3.377321603128055
3.3870967741935485
3.3900293255131966
3.3841642228739004
3.367546432062561
3.343108504398827
3.3118279569892475
3.271749755620724
3.2218963831867056
3.163245356793744
3.0987292277614857
3.029325513196481
2.956989247311828
2.884652981427175
2.8132942326490715
2.742913000977517
2.679374389051808
2.622678396871945
2.567937438905181
2.517106549364614
2.4682306940371457
2.423264907135875
2.3822091886608017
2.343108504398827
2.3059628543499517
2.2688172043010755
2.231671554252199
2.193548387096774
2.155425219941349
2.121212121212121
2.0879765395894427
2.050830889540567
2.0127077223851417
1.9726295210166176
1.9335288367546437
1.8944281524926687
1.855327468230694
1.8172043010752688
1.7820136852394917
1.747800586510264
1.7145650048875856
1.689149560117302
1.667644183773216
1.643206256109482
1.6177908113391983
1.5913978494623655
1.565982404692082
1.543499511241447
1.5249266862170088
1.5073313782991202
1.4916911045943304
1.4760508308895406
1.4613880742913
1.4516129032258065
1.444770283479961
1.435972629521017
1.4281524926686218
1.4213098729227762
1.4134897360703813
1.404692082111437
1.3949169110459434
1.3841642228739004
1.3734115347018572
1.3616813294232648
1.3499511241446724
1.335288367546432
1.3225806451612905
1.3128054740957966
1.300097751710655
1.2864125122189638
1.2717497556207231
1.2580645161290325
1.2473118279569892
1.241446725317693
1.24633431085044
1.2658846529814272
1.303030303030303
1.3607038123167154
1.4271749755620724
1.5063538611925709
1.6109481915933528
1.7350928641251222
1.8729227761485825
2.0175953079178885
2.166177908113392
2.312805474095797
2.4545454545454546
2.5865102639296187
2.7067448680351904
2.8152492668621703
2.909090909090909
2.978494623655914
3.029325513196481
3.0772238514174
3.120234604105572
3.156402737047898
3.1837732160312804
3.201368523949169
3.212121212121212
3.2170087976539588
3.2140762463343107
3.204301075268817
3.187683284457478
3.163245356793744
3.131964809384164
3.0948191593352883
3.047898338220919
2.9931573802541545
2.932551319648094
2.866080156402737
2.7966764418377323
2.7262952101661777
2.6559139784946235
2.589442815249267
2.527859237536657
2.4701857282502444
2.421309872922776
2.3792766373411536
2.337243401759531
2.2981427174975564
2.2629521016617797
2.2297165200391005
2.1955034213098727
2.161290322580645
2.1270772238514173
2.0205278592375366
1.8797653958944285
1.793743890518084
1.7380254154447703
1.696969696969697
1.6598240469208212
1.6236559139784943
1.5865102639296187
1.5503421309872922
1.517106549364614
1.482893450635386
1.4486803519061584
1.4164222873900294
1.3861192570869991
1.3577712609970674
1.332355816226784
1.313782991202346
1.2981427174975562
1.2795698924731185
1.2609970674486803
1.241446725317693
1.2228739002932552
1.2072336265884651
1.1945259042033236
1.1827956989247312
1.1720430107526882
1.1612903225806452
1.1505376344086022
1.1436950146627567
1.1378299120234605
1.1300097751710656
1.1202346041055715
1.110459433040078
1.1006842619745845
1.0909090909090908
1.083088954056696
1.075268817204301
1.067448680351906
1.0586510263929618
1.0469208211143697
1.0342130987292275
1.0254154447702837
1.0175953079178883
1.0058651026392962
0.9921798631476052
0.9775171065493646
0.9667644183773216
0.9628543499511242
0.9687194525904204
0.9882697947214076
1.0234604105571847
1.0772238514173995
1.1505376344086022
1.2287390029325511
1.3147605083088951
1.423264907135875
1.5454545454545454
1.6764418377321604
1.8093841642228736
1.9403714565004888
2.0664711632453567
2.1837732160312804
2.289345063538612
2.380254154447703
2.4565004887585533
2.520039100684262
2.563049853372434
2.591397849462365
2.6148582600195502
2.631476050830889
2.6422287390029324
2.6451612903225805
2.6422287390029324
2.631476050830889
2.613880742913001
2.5884652981427174
2.5542521994134897
2.5131964809384164
2.4682306940371457
2.421309872922776
2.366568914956012
2.3059628543499517
2.243401759530792
2.179863147605083
2.117302052785924
2.0576735092864125
2.0009775171065494
1.948191593352884
1.8983382209188664
1.8533724340175952
1.8113391984359728
1.7761485826001957
1.7458455522971652
1.7126099706744868
1.678396871945259
1.6451612903225807
1.611925708699902
1.576735092864125
1.5405669599217986
1.5053763440860215
1.4701857282502444
1.4349951124144673
1.3998044965786902
1.3695014662756595
1.3421309872922775
1.3088954056695992
1.270772238514174
1.2326490713587488
1.1964809384164223
1.163245356793744
1.1300097751710656
1.0987292277614855
1.0694037145650048
1.040078201368524
1.0127077223851415
0.9863147605083088
0.967741935483871
0.9550342130987292
0.9403714565004888
0.9237536656891496
0.9071358748778104
0.8905180840664711
0.8768328445747801
0.8660801564027371
0.8572825024437928
0.8494623655913979
0.8435972629521017
0.8387096774193549
0.8387096774193549
0.8426197458455523
0.8426197458455523
0.8406647116324536
0.8387096774193549
0.8347996089931574
0.8299120234604106
0.823069403714565
0.8162267839687195
0.8093841642228738
0.8025415444770283
0.7947214076246334
0.7869012707722385
0.7839687194525904
0.782991202346041
0.7790811339198436
0.7751710654936461
0.7741935483870968
0.7781036168132942
0.7908113391984359
0.8142717497556208
0.852394916911046
0.9081133919843596
0.9804496578690128
1.0703812316715542
1.1622678396871946
1.2580645161290325
1.3734115347018572
1.500488758553275
1.6334310850439884
1.7663734115347018
1.895405669599218
2.016617790811339
2.1270772238514173
2.2267839687194524
2.312805474095797
2.3841642228739004
2.434017595307918
2.466275659824047
2.49266862170088
2.5112414467253177
2.5210166177908118
2.5219941348973607
2.5161290322580645
2.5024437927663734
2.4819159335288368
2.453567937438905
2.419354838709677
2.3792766373411536
2.334310850439883
2.291300097751711
2.247311827956989
2.19941348973607
2.1515151515151514
2.103616813294233
2.058651026392962
2.016617790811339
1.9775171065493649
1.943304007820137
1.9120234604105573
1.8826979472140764
1.8563049853372435
1.8328445747800584
1.8113391984359728
1.7878787878787878
1.761485826001955
1.7350928641251222
1.70772238514174
1.6793743890518085
1.651026392961877
1.619745845552297
1.585532746823069
1.5503421309872922
1.5131964809384164
1.4731182795698925
1.439882697947214
1.409579667644184
1.375366568914956
1.3391984359726294
1.2864125122189638
1.2541544477028348
1.224828934506354
1.1837732160312806
1.1583577712609971
1.1329423264907137
1.110459433040078
1.0948191593352885
1.083088954056696
1.0703812316715542
1.0576735092864125
1.0469208211143697
1.0381231671554252
1.0303030303030305
1.0224828934506354
1.0087976539589445
1.0
0.9912023460410556
0.9794721407624634
0.975562072336266
0.9736070381231672
0.9716520039100685
0.9696969696969696
0.9657869012707724
0.9589442815249268
0.9501466275659824
0.9393939393939394
0.9247311827956988
0.9090909090909092
0.8924731182795699
0.8768328445747801
0.8680351906158358
0.8651026392961877
0.8641251221896383
0.8709677419354839
0.8895405669599218
0.9257086999022482
0.9804496578690128
1.0557184750733135
1.1495601173020529
1.2590420332355816
1.3812316715542523
1.5102639296187683
1.6422287390029326
1.7565982404692082
1.8592375366568916
1.967741935483871
2.1544477028347995
2.375366568914956
2.527859237536657
2.6402737047898337
2.7253176930596283
2.791788856304985
2.843597262952102
2.8836754643206257
2.9149560117302054
2.932551319648094
2.941348973607038
2.9472140762463344
2.945259042033236
2.9345063538611926
2.8905180840664717
2.857282502443793
2.81622678396872
2.7438905180840663
2.6930596285435
2.6402737047898337
2.591397849462365
2.547409579667644
2.5024437927663734
2.458455522971652
2.418377321603128
2.3812316715542523
2.347018572825025
2.3167155425219943
2.289345063538612
2.2639296187683287
2.2375366568914954
2.209188660801564
2.182795698924731
2.156402737047898
2.126099706744868
2.093841642228739
2.0625610948191597
2.0303030303030303
1.997067448680352
1.9618768328445748
1.9266862170087975
1.8914956011730208
1.857282502443793
1.8240469208211143
1.7927663734115349
1.7673509286412512
1.7438905180840665
1.7174975562072337
1.6901270772238517
1.6627565982404693
1.6373411534701858
1.611925708699902
1.5894428152492668
1.5708699902248289
1.5532746823069403
1.5376344086021505
1.521994134897361
1.5102639296187683
1.500488758553275
1.4887585532746823
1.47702834799609
1.4672531769305963
1.458455522971652
1.4516129032258065
1.4467253176930597
1.4418377321603129
1.436950146627566
1.4320625610948192
1.4271749755620724
1.4222873900293256
1.4193548387096775
1.4193548387096775
1.41544477028348
1.4076246334310851
1.3978494623655917
1.388074291300098
1.3773216031280548
1.364613880742913
1.348973607038123
1.3362658846529814
1.3264907135874875
1.3235581622678396
1.3294232649071358
1.3470185728250244
1.380254154447703
1.4320625610948192
1.504398826979472
1.5972629521016617
1.7116324535679377
1.8416422287390029
1.9824046920821117
2.132942326490713
2.2873900293255134
2.4379276637341154
2.582600195503421
2.7008797653958942
2.80058651026393
2.9042033235581624
3.002932551319648
3.090909090909091
3.1681329423264906
3.233626588465298
3.289345063538612
3.335288367546432
3.3734115347018574
3.404692082111437
3.429130009775171
3.4389051808406648
3.4408602150537635
3.441837732160313
3.4379276637341154
3.4301075268817205
3.41544477028348
3.3929618768328447
3.361681329423265
3.320625610948192
3.269794721407625
3.209188660801564
3.1417399804496577
3.0684261974584555
2.997067448680352
2.9266862170087977
2.852394916911046
2.779081133919844
2.7096774193548385
2.6451612903225805
2.58455522971652
2.5288367546432062
2.4789833822091887
2.432062561094819
2.388074291300098
2.345063538611926
2.3069403714565007
2.271749755620724
2.2355816226783967
2.198435972629521
2.160312805474096
2.121212121212121
2.081133919843597
2.043010752688172
2.002932551319648
1.9618768328445748
1.920821114369501
1.8797653958944285
1.8435972629521016
1.812316715542522
1.7781036168132942
1.7458455522971652
1.715542521994135
1.6871945259042034
1.6598240469208212
1.632453567937439
1.606060606060606
1.5806451612903225
1.5562072336265884
1.5327468230694037
1.5102639296187683
1.4926686217008798
1.47702834799609
1.4613880742913
1.447702834799609
1.4349951124144673
1.4242424242424243
1.4134897360703813
1.4027370478983383
1.3919843597262953
1.3812316715542523
1.3695014662756595
1.3587487781036167
1.3509286412512218
1.3450635386119256
1.3372434017595307
1.3284457478005864
1.3206256109481915
1.3118279569892473
1.3010752688172045
1.289345063538612
1.2766373411534702
1.2639296187683284
1.2551319648093842
1.2512218963831867
1.2541544477028348
1.267839687194526
1.2942326490713587
1.33822091886608
1.4037145650048877
1.490713587487781
1.5992179863147604
1.7243401759530792
1.86119257086999
2.007820136852395
2.158357771260997
2.3059628543499517
2.4486803519061584
2.565982404692082
2.665689149560117
2.768328445747801
2.8641251221896384
2.949169110459433
3.0234604105571847
3.0869990224828934
3.139784946236559
3.182795698924731
3.218963831867057
3.2482893450635384
3.270772238514174
3.286412512218964
3.289345063538612
3.2844574780058653
3.275659824046921
3.26197458455523
3.2404692082111435
3.210166177908113
3.172043010752688
3.1270772238514173
3.0733137829912023
3.0117302052785924
2.9442815249266863
2.8729227761485827
2.8054740957966766
2.7419354838709675
2.677419354838709
2.613880742913001
2.5532746823069403
2.496578690127077
2.443792766373412
2.3958944281524928
2.350928641251222
2.3098729227761488
2.271749755620724
2.233626588465298
2.1955034213098727
2.1622678396871944
2.132942326490713
2.101661779081134
2.069403714565005
2.035190615835777
1.9990224828934504
1.962854349951124
1.9266862170087975
1.8914956011730208
1.855327468230694
1.818181818181818
1.7810361681329423
1.7487781036168133
1.7204301075268815
1.689149560117302
1.6588465298142718
1.6304985337243405
1.603128054740958
1.5777126099706744
1.5532746823069403
1.5298142717497556
1.5073313782991202
1.4203323558162269
1.3040078201368523
1.2394916911045943
1.2052785923753666
1.1867057673509287
1.1720430107526882
1.160312805474096
1.1485826001955035
1.1378299120234605
1.1280547409579669
1.1173020527859236
1.10752688172043
1.0987292277614855
1.088954056695992
1.0801564027370478
1.075268817204301
1.072336265884653
1.0654936461388074
1.0547409579667644
1.043010752688172
1.0303030303030305
1.0175953079178883
1.0039100684261977
0.9921798631476052
0.9833822091886608
0.9794721407624634
0.9843597262952102
1.0019550342130987
1.029325513196481
1.0694037145650048
1.1270772238514175
1.2023460410557183
1.295210166177908
1.4037145650048877
1.52297165200391
1.6490713587487782
1.7781036168132942
1.905180840664712
2.0283479960899315
2.142717497556207
2.233626588465298
2.30791788856305
2.3822091886608017
2.449657869012708
2.50733137829912
2.5542521994134897
2.5943304007820136
2.625610948191593
2.6480938416422286
2.662756598240469
2.670576735092864
2.670576735092864
2.6637341153470184
2.650048875855328
2.6285434995112413
2.60019550342131
2.5640273704789838
2.52297165200391
2.4760508308895406
2.423264907135875
2.366568914956012
2.3088954056695994
2.249266862170088
2.189638318670577
2.132942326490713
2.083088954056696
2.040078201368524
1.9960899315738023
1.9550342130987293
1.9178885630498532
1.8836754643206255
1.8533724340175952
1.825024437927664
1.7996089931573802
1.7732160312805474
1.7458455522971652
1.718475073313783
1.6901270772238517
1.6637341153470186
1.6392961876832846
1.611925708699902
1.5826001955034212
1.5532746823069403
1.52297165200391
1.4916911045943304
1.4594330400782014
1.4271749755620724
1.3958944281524928
1.3655913978494625
1.3372434017595307
1.3147605083088951
1.295210166177908
1.2727272727272727
1.2482893450635386
1.2228739002932552
1.198435972629521
1.176930596285435
1.1573802541544478
1.13880742913001
1.121212121212121
1.1026392961876832
1.0840664711632453
1.0703812316715542
1.0596285434995112
1.04594330400782
1.0312805474095796
1.0175953079178883
1.002932551319648
0.989247311827957
0.975562072336266
0.959921798631476
0.9433040078201368
0.9266862170087976
0.9100684261974584
0.8934506353861192
0.8817204301075269
0.873900293255132
0.863147605083089
0.8484848484848485
0.83088954056696
0.8123167155425219
0.7927663734115347
0.7751710654936461
0.7605083088954057
0.7517106549364614
0.750733137829912
0.761485826001955
0.782991202346041
0.8152492668621701
0.8621700879765396
0.9266862170087976
1.0058651026392962
1.1006842619745845
1.209188660801564
1.3264907135874875
1.4496578690127078
1.573802541544477
1.694037145650049
1.8074291300097751
1.911045943304008
1.992179863147605
2.0576735092864125
2.121212121212121
2.177908113391984
2.225806451612903
2.2639296187683287
2.2932551319648096
2.312805474095797
2.32355816226784
2.326490713587488
2.32355816226784
2.312805474095797
2.2952101661779083
2.271749755620724
2.2404692082111435
2.2023460410557183
2.1593352883675463
2.1114369501466275
2.060606060606061
2.010752688172043
1.9608993157380252
1.9130009775171064
1.869012707722385
1.827956989247312
1.7888563049853372
1.7556207233626588
1.7282502443792769
1.7008797653958945
1.675464320625611
1.6520039100684265
1.6304985337243405
1.6109481915933528
1.5923753665689149
1.5747800586510263
1.5581622678396871
1.5395894428152492
1.521016617790811
1.504398826979472
1.4887585532746823
1.4682306940371457
1.444770283479961
1.4203323558162269
1.3978494623655917
1.3763440860215057
1.3548387096774193
1.3343108504398826
1.313782991202346
1.2942326490713587
1.2746823069403714
1.2551319648093842
1.2404692082111437
1.227761485826002
1.2140762463343109
1.2003910068426198
1.187683284457478
1.1759530791788857
1.1652003910068427
1.1544477028347997
1.144672531769306
1.1358748778103618
1.1270772238514175
1.1192570869990224
1.115347018572825
1.1133919843597262
1.110459433040078
1.1055718475073313
1.099706744868035
1.0928641251221896
1.0850439882697946
1.078201368523949
1.0713587487781036
1.0635386119257086
1.0527859237536656
1.040078201368524
1.0273704789833822
1.018572825024438
1.0117302052785924
1.0009775171065494
0.989247311827957
0.978494623655914
0.9716520039100685
0.9687194525904204
0.9736070381231672
0.9882697947214076
1.0175953079178883
1.06158357771261
1.121212121212121
1.1857282502443791
1.2590420332355816
1.3499511241446724
1.4506353861192571
1.5591397849462365
1.6715542521994136
1.7820136852394917
1.8856304985337244
1.981427174975562
2.0684261974584555
2.144672531769306
2.2082111436950145
2.2580645161290325
2.291300097751711
2.310850439882698
2.324535679374389
2.3313782991202348
2.3313782991202348
2.324535679374389
2.3098729227761488
2.2854349951124147
2.254154447702835
2.2160312805474094
2.1730205278592374
2.126099706744868
2.081133919843597
2.035190615835777
1.9843597262952104
1.932551319648094
1.95405669599218
2.0127077223851417
2.0175953079178885
1.9980449657869013
1.9696969696969695
1.93841642228739
1.9090909090909087
1.8826979472140764
1.857282502443793
1.835777126099707
1.8162267839687196
1.7927663734115349
1.7673509286412512
1.7409579667644184
1.7126099706744868
1.6823069403714566
1.6520039100684265
1.6207233626588464
1.590420332355816
1.5610948191593352
1.5317693059628543
1.5073313782991202
1.4868035190615836
1.4623655913978495
1.436950146627566
1.4115347018572826
1.3870967741935485
1.3636363636363635
1.3421309872922775
1.3235581622678396
1.3069403714565004
1.2913000977517106
1.2766373411534702
1.2639296187683284
1.2580645161290325
1.2551319648093842
1.2512218963831867
1.2482893450635386
1.24633431085044
1.2453567937438903
1.2453567937438903
1.2453567937438903
1.24633431085044
1.2512218963831867
1.2561094819159335
1.260019550342131
1.2658846529814272
1.2717497556207231
1.2746823069403714
1.2756598240469208
1.2766373411534702
1.2766373411534702
1.2766373411534702
1.2766373411534702
1.2766373411534702
1.2756598240469208
1.2727272727272727
1.267839687194526
1.262952101661779
1.2619745845552297
1.2649071358748778
1.2727272727272727
1.2913000977517106
1.324535679374389
1.375366568914956
1.444770283479961
1.5327468230694037
1.6392961876832846
1.761485826001955
1.8944281524926687
2.034213098729228
2.158357771260997
2.272727272727273
2.3958944281524928
2.5190615835777126
2.635386119257087
2.7390029325513194
2.83088954056696
2.9100684261974585
2.9775171065493646
3.034213098729228
3.081133919843597
3.1192570869990224
3.1436950146627565
3.1593352883675463
3.1739980449657867
3.1847507331378297
3.190615835777126
3.190615835777126
3.1847507331378297
3.172043010752688
3.1515151515151514
3.1221896383186705
3.0869990224828934
3.0439882697947214
2.9931573802541545
2.9423264907135875
2.889540566959922
2.831867057673509
2.773216031280548
2.713587487781036
2.6559139784946235
2.60019550342131
2.5464320625610948
2.496578690127077
2.450635386119257
2.4086021505376345
2.3714565004887587
2.3391984359726297
2.310850439882698
2.2795698924731185
2.24633431085044
2.212121212121212
2.177908113391984
2.1436950146627565
2.1094819159335287
2.0733137829912023
2.037145650048876
2.0
1.9608993157380252
1.921798631476051
1.8885630498533723
1.858260019550342
1.825024437927664
1.7917888563049853
1.7595307917888563
1.729227761485826
1.7008797653958945
1.6744868035190617
1.6490713587487782
1.624633431085044
1.6001955034213098
1.5786901270772238
1.564027370478983
1.5532746823069403
1.5405669599217986
1.5278592375366569
1.517106549364614
1.5053763440860215
1.4936461388074291
1.4819159335288368
1.4711632453567938
1.4613880742913
1.4535679374389052
1.447702834799609
1.4418377321603129
1.436950146627566
1.4330400782013686
1.4252199413489737
1.4164222873900294
1.4066471163245358
1.396871945259042
1.3861192570869991
1.3734115347018572
1.3607038123167154
1.3499511241446724
1.3411534701857282
1.3343108504398826
1.332355816226784
1.3362658846529814
1.3479960899315735
1.3734115347018572
1.4164222873900294
1.478005865102639
1.5591397849462365
1.6598240469208212
1.7781036168132942
1.9090909090909087
2.046920821114369
2.187683284457478
2.3274682306940373
2.444770283479961
2.5454545454545454
2.650048875855328
2.7497556207233624
2.8406647116324537
2.920821114369501
2.9902248289345064
3.048875855327468
3.0987292277614857
3.139784946236559
3.172043010752688
3.196480938416422
3.2082111436950145
3.2111436950146626
3.2140762463343107
3.212121212121212
3.2052785923753664
3.1925708699902247
3.1730205278592374
3.144672531769306
3.10850439882698
3.065493646138808
3.0146627565982405
2.9579667644183774
2.895405669599218
2.834799608993157
2.776148582600196
2.7126099706744866
2.6480938416422286
2.5855327468230693
2.525904203323558
2.472140762463343
2.423264907135875
2.378299120234604
2.3382209188660803
2.300097751710655
2.2639296187683287
2.232649071358749
2.204301075268817
2.172043010752688
2.139784946236559
2.1065493646138806
2.072336265884653
2.038123167155425
2.002932551319648
1.9687194525904204
1.9335288367546437
1.8983382209188664
1.8631476050830889
1.828934506353861
1.8005865102639296
1.7761485826001957
1.7487781036168133
1.7204301075268815
1.6920821114369502
1.6656891495601174
1.640273704789834
1.6148582600195502
1.590420332355816
1.5698924731182795
1.552297165200391
1.5366568914956011
1.525904203323558
1.517106549364614
1.5053763440860215
1.4926686217008798
1.478983382209189
1.4672531769305963
1.457478005865103
1.4486803519061584
1.4418377321603129
1.4349951124144673
1.426197458455523
1.4164222873900294
1.4066471163245358
1.3998044965786902
1.3949169110459434
1.3870967741935485
1.3782991202346042
1.3685239491691104
1.3587487781036167
1.3479960899315735
1.3362658846529814
1.324535679374389
1.3147605083088951
1.2473118279569892
1.155425219941349
1.1192570869990224
1.1173020527859236
1.141739980449658
1.1915933528836755
1.262952101661779
1.3548387096774193
1.4652981427174976
1.587487781036168
1.7174975562072337
1.8523949169110456
1.9872922776148585
2.118279569892473
2.2404692082111435
2.3382209188660803
2.418377321603128
2.4995112414467253
2.576735092864125
2.6451612903225805
2.7038123167155423
2.7536656891495603
2.7947214076246336
2.8269794721407626
2.849462365591398
2.865102639296188
2.8729227761485827
2.8690127077223853
2.8582600195503423
2.84652981427175
2.827956989247312
2.80058651026393
2.7673509286412514
2.7262952101661777
2.678396871945259
2.624633431085044
2.5650048875855327
2.5024437927663734
2.439882697947214
2.3822091886608017
2.3274682306940373
2.271749755620724
2.217986314760508
2.167155425219941
2.121212121212121
2.0791788856304985
2.0410557184750733
2.005865102639296
1.9736070381231672
1.9403714565004888
1.9071358748778104
1.8748778103616808
1.8465298142717497
1.8191593352883677
1.790811339198436
1.7624633431085044
1.7331378299120237
1.7018572825024438
1.6695992179863148
1.6363636363636365
1.6001955034213098
1.564027370478983
1.5278592375366569
1.4916911045943304
1.4623655913978495
1.4389051808406648
1.414467253176931
1.3900293255131966
1.3655913978494625
1.343108504398827
1.3235581622678396
1.3049853372434017
1.2873900293255132
1.270772238514174
1.2551319648093842
1.238514173998045
1.2228739002932552
1.2130987292277615
1.206256109481916
1.1974584555229717
1.187683284457478
