ppg
1.0713587487781036
1.0449657869012707
1.0371456500488758
1.0625610948191593
1.1319648093841643
1.2531769305962854
1.4242424242424243
1.635386119257087
1.871945259042033
2.0840664711632453
2.272727272727273
2.464320625610948
2.634408602150537
2.768328445747801
2.8611925708699903
2.9159335288367547
2.936461388074292
2.927663734115347
2.8963831867057674
2.8484848484848486
2.787878787878788
2.7262952101661777
2.662756598240469
2.592375366568915
2.5180840664711632
2.4408602150537635
2.361681329423265
2.2825024437927666
2.204301075268817
2.126099706744868
2.0498533724340176
1.9745845552297163
1.900293255131965
1.827956989247312
1.7653958944281525
1.710654936461388
1.6490713587487782
1.5884652981427174
1.5317693059628543
1.479960899315738
1.435972629521017
1.401759530791789
1.3773216031280548
1.3636363636363635
1.3587487781036167
1.3626588465298142
1.3743890518084063
1.3890518084066472
1.404692082111437
1.4222873900293256
1.4418377321603129
1.4594330400782014
1.4711632453567938
1.47702834799609
1.47702834799609
1.4701857282502444
1.457478005865103
1.439882697947214
1.4203323558162269
1.404692082111437
1.3890518084066472
1.3695014662756595
1.3470185728250244
1.321603128054741
1.2971652003910068
1.2746823069403714
1.2512218963831867
1.2267839687194526
1.2013685239491692
1.1749755620723363
1.144672531769306
1.1173020527859236
1.0918866080156402
1.064516129032258
1.0478983382209188
1.0576735092864125
1.1085043988269794
1.209188660801564
1.3607038123167154
1.5562072336265884
1.780058651026393
2.0127077223851417
2.233626588465298
2.4301075268817205
2.576735092864125
2.679374389051808
2.758553274682307
2.809384164222874
2.831867057673509
2.827956989247312
2.801564027370479
2.7595307917888565
2.7067448680351904
2.6451612903225805
2.5777126099706744
2.505376344086021
2.436950146627566
2.3714565004887587
2.2991202346041058
2.2248289345063537
2.1495601173020527
2.075268817204301
2.002932551319648
1.9305962854349952
1.8592375366568916
1.7898338220918866
1.7204301075268815
1.6529814271749756
1.5884652981427174
1.5347018572825024
1.4887585532746823
1.4418377321603129
1.3998044965786902
1.3665689149560116
1.3421309872922775
1.327468230694037
1.3225806451612905
1.3264907135874875
1.33822091886608
1.35386119257087
1.370478983382209
1.3861192570869991
1.3988269794721409
1.4076246334310851
1.412512218963832
1.4134897360703813
1.4115347018572826
1.4066471163245358
1.3978494623655917
1.3861192570869991
1.370478983382209
1.3519061583577712
1.3313782991202343
1.310850439882698
1.2942326490713587
1.278592375366569
1.2570869990224829
1.2336265884652982
1.209188660801564
1.1857282502443791
1.163245356793744
1.1397849462365592
1.1143695014662756
1.0840664711632453
1.0518084066471165
1.0254154447702837
1.0117302052785924
1.0166177908113392
1.0488758553274682
1.1231671554252198
1.2453567937438903
1.412512218963832
1.6158357771260996
1.8377321603128052
2.058651026392962
2.260019550342131
2.43108504398827
2.565982404692082
2.66177908113392
2.7145650048875853
2.736070381231672
2.73802541544477
2.720430107526881
2.6852394916911044
2.635386119257087
2.5747800586510263
2.50733137829912
2.4349951124144678
2.3597262952101663
2.2854349951124147
2.2111436950146626
2.146627565982405
2.0879765395894427
2.0254154447702835
1.9608993157380252
1.8944281524926687
1.826001955034213
1.7595307917888563
1.694037145650049
1.629521016617791
1.565982404692082
1.5053763440860215
1.4467253176930597
1.3919843597262953
1.348973607038123
1.3196480938416422
1.2961876832844574
1.281524926686217
1.2766373411534702
1.2825024437927663
1.295210166177908
1.3118279569892473
1.3313782991202343
1.3499511241446724
1.3665689149560116
1.3812316715542523
1.393939393939394
1.4037145650048877
1.4086021505376345
1.409579667644184
1.4056695992179864
1.396871945259042
1.3841642228739004
1.367546432062561
1.3470185728250244
1.3235581622678396
1.2991202346041055
1.2766373411534702
1.260019550342131
1.2453567937438903
1.227761485826002
1.2082111436950147
1.1857282502443791
1.1612903225806452
1.133919843597263
1.1026392961876832
1.0684261974584557
1.0391006842619743
1.021505376344086
1.0283479960899315
1.0703812316715542
1.13880742913001
1.2404692082111437
1.393939393939394
1.587487781036168
1.8035190615835777
2.0254154447702835
2.2346041055718477
2.418377321603128
2.565982404692082
2.674486803519061
2.744868035190616
2.779081133919844
2.782991202346041
2.7653958944281527
2.732160312805474
2.686217008797654
2.631476050830889
2.5698924731182795
2.5034213098729228
2.4349951124144678
2.364613880742913
2.29227761485826
2.218963831867057
2.147605083088954
2.0772238514174
2.016617790811339
1.9618768328445748
1.903225806451613
1.8416422287390029
1.7771260997067448
1.7135874877810362
1.6500488758553276
1.587487781036168
1.5298142717497556
1.47702834799609
1.4330400782013686
1.3988269794721409
1.3773216031280548
1.3665689149560116
1.3636363636363635
1.3685239491691104
1.380254154447703
1.3958944281524928
1.412512218963832
1.4291300097751711
1.444770283479961
1.458455522971652
1.469208211143695
1.47702834799609
1.478983382209189
1.478005865102639
1.4731182795698925
1.4613880742913
1.447702834799609
1.43108504398827
1.4115347018572826
1.3919843597262953
1.3714565004887584
1.348973607038123
1.3255131964809383
1.3040078201368523
1.2854349951124144
1.270772238514174
1.2561094819159335
1.2355816226783969
1.2111436950146628
1.1837732160312806
1.1544477028347997
1.1270772238514175
1.1114369501466277
1.121212121212121
1.1681329423264908
1.2609970674486803
1.4037145650048877
1.5923753665689149
1.7790811339198436
1.9667644183773216
2.179863147605083
2.388074291300098
2.572825024437928
2.720430107526881
2.827956989247312
2.8963831867057674
2.929618768328446
2.9335288367546437
2.921798631476051
2.8963831867057674
2.855327468230694
2.8044965786901277
2.742913000977517
2.6725317693059627
2.5992179863147604
2.5249266862170088
2.449657869012708
2.3743890518084068
2.2991202346041058
2.2238514173998043
2.150537634408602
2.0791788856304985
2.010752688172043
1.9501466275659824
1.89247311827957
1.828934506353861
1.7644183773216031
1.7018572825024438
1.643206256109482
1.5894428152492668
1.5405669599217986
1.498533724340176
1.4672531769305963
1.4486803519061584
1.439882697947214
1.4389051808406648
1.444770283479961
1.457478005865103
1.474095796676442
1.490713587487781
1.5073313782991202
1.521994134897361
1.533724340175953
1.542521994134897
1.544477028347996
1.5405669599217986
1.5327468230694037
1.520039100684262
1.5073313782991202
1.4916911045943304
1.4711632453567938
1.447702834799609
1.423264907135875
1.396871945259042
1.3685239491691104
1.3391984359726294
1.3118279569892473
1.2854349951124144
1.260019550342131
1.2336265884652982
1.2121212121212122
1.1915933528836755
1.1652003910068427
1.1368523949169111
1.1133919843597262
1.1085043988269794
1.1358748778103618
1.2052785923753666
1.3264907135874875
1.498533724340176
1.7096774193548387
1.9403714565004888
2.172043010752688
2.3626588465298144
2.517106549364614
2.6608015640273703
2.776148582600196
2.8563049853372435
2.9012707722385143
2.9149560117302054
2.902248289345064
2.8690127077223853
2.8211143695014664
2.7614858260019552
2.6930596285435
2.625610948191593
2.5610948191593352
2.489736070381232
2.4134897360703813
2.3382209188660803
2.2629521016617797
2.188660801564027
2.1163245356793743
2.04594330400782
1.9765395894428155
1.906158357771261
1.835777126099707
1.7673509286412512
1.7096774193548387
1.656891495601173
1.5992179863147604
1.542521994134897
1.4916911045943304
1.4486803519061584
1.41544477028348
1.392961876832845
1.3822091886608017
1.380254154447703
1.3870967741935485
1.4007820136852396
1.4164222873900294
1.43108504398827
1.447702834799609
1.4623655913978495
1.4731182795698925
1.478983382209189
1.4809384164222874
1.478983382209189
1.4711632453567938
1.457478005865103
1.439882697947214
1.4203323558162269
1.4027370478983383
1.3851417399804498
1.3636363636363635
1.3391984359726294
1.3128054740957966
1.2873900293255132
1.262952101661779
1.238514173998045
1.2150537634408602
1.1906158357771262
1.1652003910068427
1.1368523949169111
1.104594330400782
1.0772238514173995
1.0586510263929618
1.0478983382209188
1.06158357771261
1.1143695014662756
1.2140762463343109
1.3626588465298142
1.552297165200391
1.7702834799608993
1.9990224828934504
2.220918866080156
2.420332355816227
2.570869990224829
2.679374389051808
2.7673509286412514
2.8269794721407626
2.855327468230694
2.855327468230694
2.831867057673509
2.789833822091887
2.7341153470185726
2.668621700879765
2.5972629521016617
2.5239491691104594
2.4486803519061584
2.3792766373411536
2.313782991202346
2.243401759530792
2.16911045943304
2.0928641251221896
2.0175953079178885
1.9423264907135875
1.868035190615836
1.7947214076246334
1.7233626588465298
1.656891495601173
1.5933528836754642
1.5395894428152492
1.4916911045943304
1.4428152492668622
1.3988269794721409
1.3616813294232648
1.3343108504398826
1.3186705767350928
1.313782991202346
1.3196480938416422
1.332355816226784
1.348973607038123
1.3685239491691104
1.3890518084066472
1.4076246334310851
1.4222873900293256
1.434017595307918
1.4408602150537635
1.4418377321603129
1.4379276637341154
1.4291300097751711
1.41544477028348
1.3978494623655917
1.3763440860215057
1.3528836754643203
1.3284457478005864
1.3098729227761483
1.2961876832844574
1.2776148582600195
1.2580645161290325
1.2394916911045943
1.2189638318670577
1.1964809384164223
1.1720430107526882
1.144672531769306
1.1124144672531768
1.0801564027370478
1.056695992179863
1.0518084066471165
1.0703812316715542
1.121212121212121
1.219941348973607
1.3685239491691104
1.5591397849462365
1.7761485826001957
2.003910068426197
2.2248289345063537
2.4242424242424243
2.590420332355816
2.717497556207233
2.8054740957966766
2.852394916911046
2.8690127077223853
2.866080156402737
2.843597262952102
2.8054740957966766
2.752688172043011
2.6881720430107525
2.616813294232649
2.541544477028348
2.463343108504399
2.3851417399804498
2.3088954056695994
2.233626588465298
2.1681329423264906
2.10752688172043
2.0439882697947214
1.9775171065493649
1.90811339198436
1.8387096774193548
1.7712609970674489
1.704789833822092
1.640273704789834
1.5777126099706744
1.5180840664711632
1.466275659824047
1.4281524926686218
1.4027370478983383
1.383186705767351
1.3724340175953078
1.3714565004887584
1.380254154447703
1.3978494623655917
1.4193548387096775
1.439882697947214
1.458455522971652
1.4750733137829912
1.4887585532746823
1.4975562072336266
1.5024437927663734
1.5024437927663734
1.498533724340176
1.4897360703812317
1.474095796676442
1.452590420332356
1.4291300097751711
1.4056695992179864
1.383186705767351
1.3607038123167154
1.3362658846529814
1.3118279569892473
1.2942326490713587
1.278592375366569
1.2580645161290325
1.2355816226783969
1.2101661779081134
1.1808406647116323
1.1495601173020529
1.118279569892473
1.0948191593352885
1.0909090909090908
1.1192570869990224
1.1925708699902249
1.3196480938416422
1.4672531769305963
1.6392961876832846
1.8592375366568916
2.1006842619745845
2.3362658846529816
2.547409579667644
2.7223851417399803
2.8563049853372435
2.948191593352884
3.0009775171065494
3.018572825024438
3.005865102639296
2.973607038123167
2.927663734115347
2.8690127077223853
2.798631476050831
2.721407624633431
2.643206256109482
2.565982404692082
2.4887585532746823
2.410557184750733
2.3304007820136854
2.247311827956989
2.163245356793744
2.0821114369501466
2.0117302052785924
1.9472140762463344
1.8778103616813293
1.8084066471163245
1.7409579667644184
1.6744868035190617
1.6109481915933528
1.5532746823069403
1.501466275659824
1.4594330400782014
1.4271749755620724
1.404692082111437
1.3949169110459434
1.393939393939394
1.3998044965786902
1.4105571847507332
1.4252199413489737
1.4408602150537635
1.455522971652004
1.4672531769305963
1.478005865102639
1.4858260019550342
1.4887585532746823
1.4868035190615836
1.478983382209189
1.469208211143695
1.458455522971652
1.4428152492668622
1.4242424242424243
1.4037145650048877
1.3792766373411536
1.3528836754643203
1.324535679374389
1.2971652003910068
1.2717497556207231
1.2473118279569892
1.2209188660801564
1.2003910068426198
1.1808406647116323
1.155425219941349
1.1241446725317692
1.0899315738025417
1.0586510263929618
1.040078201368524
1.0449657869012707
1.0879765395894427
1.1788856304985338
1.3206256109481915
1.5083088954056696
1.6979472140762464
1.8914956011730208
2.112414467253177
2.3304007820136854
2.5249266862170088
2.6832844574780057
2.7996089931573804
2.874877810361681
2.9120234604105573
2.919843597262952
2.903225806451613
2.866080156402737
2.8132942326490715
2.7546432062561097
2.6940371456500487
2.625610948191593
2.550342130987292
2.4711632453567938
2.391006842619746
2.3098729227761488
2.23069403714565
2.1524926686217007
2.075268817204301
2.0009775171065494
1.927663734115347
1.8631476050830889
1.804496578690127
1.739980449657869
1.6744868035190617
1.608993157380254
1.5464320625610948
1.490713587487781
1.4418377321603129
1.401759530791789
1.3724340175953078
1.35386119257087
1.3470185728250244
1.3499511241446724
1.3607038123167154
1.3763440860215057
1.393939393939394
1.412512218963832
1.4291300097751711
1.4428152492668622
1.4535679374389052
1.4604105571847508
1.4613880742913
1.455522971652004
1.444770283479961
1.4291300097751711
1.414467253176931
1.4007820136852396
1.3822091886608017
1.3616813294232648
1.3401759530791788
1.3186705767350928
1.2961876832844574
1.273704789833822
1.2502443792766371
1.224828934506354
1.198435972629521
1.1720430107526882
1.1436950146627567
1.1192570869990224
1.0977517106549364
1.072336265884653
1.050830889540567
1.0478983382209188
1.078201368523949
1.1534701857282503
1.2805474095796676
1.456500488758553
1.6715542521994136
1.90811339198436
2.1485826001955037
2.347996089931574
2.5102639296187683
2.6608015640273703
2.7839687194525906
2.870967741935484
2.9227761485826003
2.943304007820137
2.9374389051808407
2.9100684261974585
2.8641251221896384
2.8054740957966766
2.736070381231672
2.6608015640273703
2.589442815249267
2.5190615835777126
2.441837732160313
2.363636363636364
2.286412512218964
2.210166177908113
2.133919843597263
2.0557184750733137
1.978494623655914
1.9012707722385145
1.8240469208211143
1.7487781036168133
1.6852394916911049
1.629521016617791
1.5708699902248289
1.512218963831867
1.458455522971652
1.41544477028348
1.3822091886608017
1.3587487781036167
1.346041055718475
1.3450635386119256
1.3548387096774193
1.3734115347018572
1.396871945259042
1.4193548387096775
1.4379276637341154
1.455522971652004
1.4701857282502444
1.479960899315738
1.482893450635386
1.4809384164222874
1.4760508308895406
1.466275659824047
1.452590420332356
1.4379276637341154
1.4213098729227762
1.4066471163245358
1.391006842619746
1.3695014662756595
1.3440860215053765
1.316715542521994
1.2903225806451613
1.2649071358748778
1.241446725317693
1.2160312805474096
1.1886608015640274
1.1593352883675463
1.1290322580645162
1.1006842619745845
1.086021505376344
1.0909090909090908
1.1251221896383188
1.2043010752688172
1.335288367546432
1.5161290322580645
1.7380254154447703
1.9843597262952104
2.2346041055718477
2.4682306940371457
2.670576735092864
2.833822091886608
2.9442815249266863
3.0117302052785924
3.0547409579667644
3.070381231671554
3.060606060606061
3.029325513196481
2.9804496578690127
2.919843597262952
2.8514173998044967
2.777126099706745
2.699902248289345
2.603128054740958
2.498533724340176
2.41544477028348
2.343108504398827
2.2688172043010755
2.1945259042033234
2.121212121212121
2.047898338220919
1.9726295210166176
1.8983382209188664
1.825024437927664
1.7546432062561097
1.6871945259042034
1.6207233626588464
1.565982404692082
1.521994134897361
1.4809384164222874
1.444770283479961
1.4173998044965788
1.4007820136852396
1.396871945259042
1.4027370478983383
1.4164222873900294
1.436950146627566
1.457478005865103
1.47702834799609
1.4926686217008798
1.504398826979472
1.5112414467253177
1.5141739980449658
1.5141739980449658
1.509286412512219
1.500488758553275
1.4868035190615836
1.4672531769305963
1.444770283479961
1.4203323558162269
1.3958944281524928
1.3714565004887584
1.3519061583577712
1.3362658846529814
1.3176930596285434
1.295210166177908
1.2697947214076246
1.2434017595307918
1.2150537634408602
1.181818181818182
1.1456500488758554
1.1133919843597262
1.093841642228739
1.0987292277614855
1.142717497556207
1.2150537634408602
1.3235581622678396
1.490713587487781
1.704789833822092
1.9472140762463344
2.1945259042033234
2.4281524926686218
2.633431085043988
2.798631476050831
2.921798631476051
3.003910068426197
3.047898338220919
3.059628543499511
3.0439882697947214
3.0097751710654936
2.959921798631476
2.897360703812317
2.8269794721407626
2.7517106549364616
2.6715542521994133
2.5884652981427174
2.504398826979472
2.4222873900293256
2.3421309872922778
2.269794721407625
2.2023460410557183
2.1309872922776147
2.056695992179863
1.981427174975562
1.9071358748778104
1.833822091886608
1.761485826001955
1.6911045943304008
1.6226783968719452
1.5581622678396871
1.501466275659824
1.4545454545454546
1.4203323558162269
1.3998044965786902
1.3870967741935485
1.383186705767351
1.3861192570869991
1.3958944281524928
1.4086021505376345
1.4242424242424243
1.4408602150537635
1.455522971652004
1.4672531769305963
1.4750733137829912
1.479960899315738
1.4809384164222874
1.4760508308895406
1.466275659824047
1.4506353861192571
1.4301075268817205
1.4076246334310851
1.3841642228739004
1.3587487781036167
1.3313782991202343
1.3040078201368523
1.2756598240469208
1.2482893450635386
1.227761485826002
1.209188660801564
1.187683284457478
1.1612903225806452
1.1319648093841643
1.1006842619745845
1.0684261974584557
1.043010752688172
1.035190615835777
1.0586510263929618
1.126099706744868
1.2453567937438903
1.3861192570869991
1.5503421309872922
1.7634408602150538
1.9990224828934504
2.2346041055718477
2.4486803519061584
2.6285434995112413
2.7702834799608995
2.8719452590420333
2.9345063538611926
2.963831867057673
2.964809384164223
2.9423264907135875
2.905180840664712
2.857282502443793
2.7966764418377323
2.7253176930596283
2.649071358748778
2.56891495601173
2.486803519061584
2.403714565004888
2.3196480938416424
2.2346041055718477
2.1524926686217007
2.072336265884653
2.002932551319648
1.93841642228739
1.8670576735092863
1.7917888563049853
1.7165200391006843
1.6441837732160314
1.576735092864125
1.5131964809384164
1.456500488758553
1.409579667644184
1.3743890518084063
1.3499511241446724
1.3372434017595307
1.335288367546432
1.3401759530791788
1.3519061583577712
1.367546432062561
1.3841642228739004
1.4007820136852396
1.4164222873900294
1.4301075268817205
1.4389051808406648
1.4428152492668622
1.4408602150537635
1.4349951124144673
1.4271749755620724
1.4173998044965788
1.401759530791789
1.3822091886608017
1.3607038123167154
1.3362658846529814
1.3079178885630498
1.2805474095796676
1.2531769305962854
1.2267839687194526
1.2003910068426198
1.173998044965787
1.147605083088954
1.1270772238514175
1.1055718475073313
1.075268817204301
1.043010752688172
1.0166177908113392
1.0087976539589445
1.0361681329423265
1.1094819159335287
1.2346041055718475
1.4086021505376345
1.6226783968719452
1.86119257086999
2.074291300097752
2.2629521016617797
2.4545454545454546
2.624633431085044
2.760508308895406
2.8582600195503423
2.919843597262952
2.9501466275659824
2.95405669599218
2.9335288367546437
2.8944281524926687
2.8396871945259043
2.773216031280548
2.705767350928641
2.635386119257087
2.558162267839687
2.47702834799609
2.3949169110459434
2.313782991202346
2.232649071358749
2.15347018572825
2.0762463343108504
2.0019550342130987
1.927663734115347
1.8533724340175952
1.7859237536656891
1.7243401759530792
1.656891495601173
1.5894428152492668
1.5268817204301075
1.469208211143695
1.4203323558162269
1.3841642228739004
1.3607038123167154
1.3499511241446724
1.3509286412512218
1.3616813294232648
1.3782991202346042
1.3978494623655917
1.4164222873900294
1.4349951124144673
1.4516129032258065
1.4643206256109482
1.4711632453567938
1.4731182795698925
1.4682306940371457
1.458455522971652
1.4437927663734116
1.4242424242424243
1.4027370478983383
1.3851417399804498
1.3685239491691104
1.346041055718475
1.3196480938416422
1.29227761485826
1.2668621700879763
1.2453567937438903
1.2238514173998043
1.2013685239491692
1.1749755620723363
1.1456500488758554
1.1133919843597262
1.0811339198435972
1.0586510263929618
1.0498533724340176
1.06158357771261
1.10752688172043
1.1994134897360704
1.3411534701857282
1.5268817204301075
1.7429130009775171
1.9736070381231672
2.19941348973607
2.404692082111437
2.578690127077224
2.701857282502444
2.78494623655914
2.8475073313782997
2.8836754643206257
2.8914956011730206
2.873900293255132
2.8377321603128056
2.7869012707722387
2.7253176930596283
2.6559139784946235
2.582600195503421
2.506353861192571
2.4359726295210167
2.3704789833822093
2.300097751710655
2.2277614858260018
2.15347018572825
2.078201368523949
2.003910068426197
1.9305962854349952
1.8592375366568916
1.790811339198436
1.7243401759530792
1.6608015640273706
1.5992179863147604
1.5483870967741935
1.5063538611925709
1.4652981427174976
1.4291300097751711
1.4027370478983383
1.3870967741935485
1.3812316715542523
1.3841642228739004
1.3919843597262953
1.4027370478983383
1.414467253176931
1.423264907135875
1.4301075268817205
1.434017595307918
1.4349951124144673
1.4320625610948192
1.426197458455523
1.41544477028348
1.401759530791789
1.3861192570869991
1.367546432062561
1.346041055718475
1.3206256109481915
1.2942326490713587
1.2668621700879763
1.24633431085044
1.2287390029325511
1.2072336265884651
1.18475073313783
1.1593352883675463
1.1329423264907137
1.1036168132942326
1.072336265884653
1.0391006842619743
1.0087976539589445
0.9882697947214076
0.9882697947214076
1.010752688172043
1.0635386119257086
1.1612903225806452
1.3049853372434017
1.4868035190615836
1.6930596285434996
1.9071358748778104
2.1094819159335287
2.2883675464320627
2.4349951124144678
2.5454545454545454
2.619745845552297
2.659824046920821
2.670576735092864
2.659824046920821
2.632453567937439
2.591397849462365
2.5386119257087
2.4780058651026398
2.412512218963832
2.3440860215053765
2.272727272727273
2.20039100684262
2.1280547409579667
2.0557184750733137
1.992179863147605
1.9345063538611929
1.8729227761485825
1.8074291300097751
1.7419354838709675
1.6764418377321604
1.6099706744868034
1.542521994134897
1.4760508308895406
1.412512218963832
1.3558162267839686
1.3088954056695992
1.2746823069403714
1.2541544477028348
1.2443792766373412
1.2394916911045943
1.2394916911045943
1.2453567937438903
1.2541544477028348
1.2649071358748778
1.2766373411534702
1.2864125122189638
1.2932551319648091
1.2981427174975562
1.2991202346041055
1.2981427174975562
1.295210166177908
1.2864125122189638
1.2727272727272727
1.2561094819159335
1.2375366568914956
1.2160312805474096
1.1925708699902249
1.1691104594330402
1.1456500488758554
1.1221896383186705
1.0977517106549364
1.072336265884653
1.0527859237536656
1.0361681329423265
1.0146627565982405
0.9912023460410556
0.9648093841642228
0.935483870967742
0.906158357771261
0.8856304985337243
0.8826979472140762
0.9081133919843596
0.9726295210166178
1.0811339198435972
1.2052785923753666
1.346041055718475
1.5249266862170088
1.718475073313783
1.906158357771261
2.0733137829912023
2.210166177908113
2.312805474095797
2.3812316715542523
2.420332355816227
2.43108504398827
2.419354838709677
2.391006842619746
2.35386119257087
2.3088954056695994
2.2551319648093844
2.1955034213098727
2.132942326490713
2.067448680351906
