ppg
1.206256109481916
1.1906158357771262
1.173998044965787
1.155425219941349
1.1378299120234605
1.1241446725317692
1.1114369501466277
1.0987292277614855
1.0899315738025417
1.0821114369501466
1.075268817204301
1.0664711632453567
1.0557184750733135
1.0488758553274682
1.043010752688172
1.035190615835777
1.0283479960899315
1.021505376344086
1.0156402737047898
1.0097751710654936
1.0039100684261977
0.9980449657869012
0.9921798631476052
0.9872922776148584
0.9853372434017597
0.9872922776148584
0.989247311827957
0.989247311827957
0.989247311827957
0.9872922776148584
0.9833822091886608
0.981427174975562
0.9804496578690128
0.9804496578690128
0.981427174975562
0.9833822091886608
0.9863147605083088
0.989247311827957
0.9931573802541545
0.9980449657869012
1.0009775171065494
1.0009775171065494
1.0009775171065494
1.0019550342130987
1.0058651026392962
1.010752688172043
1.0146627565982405
1.0166177908113392
1.0156402737047898
1.0127077223851415
1.010752688172043
1.0097751710654936
1.0048875855327468
0.9980449657869012
0.9960899315738024
1.0068426197458455
1.0391006842619743
1.1026392961876832
1.2072336265884651
1.3548387096774193
1.5395894428152492
1.750733137829912
1.9716520039100685
2.161290322580645
2.3225806451612905
2.482893450635386
2.6207233626588464
2.7282502443792764
2.8054740957966766
2.8563049853372435
2.8826979472140764
2.8905180840664717
2.8836754643206257
2.8670576735092865
2.8406647116324537
2.8084066471163247
2.773216031280548
2.7341153470185726
2.69208211143695
2.649071358748778
2.6070381231671558
2.5650048875855327
2.52297165200391
2.4789833822091887
2.4301075268817205
2.375366568914956
2.312805474095797
2.242424242424242
2.174975562072336
2.1065493646138806
2.03128054740958
1.9530791788856303
1.8758553274682308
1.7996089931573802
1.729227761485826
1.667644183773216
1.6138807429130009
1.5708699902248289
1.5395894428152492
1.5161290322580645
1.501466275659824
1.4916911045943304
1.4819159335288368
1.474095796676442
1.4672531769305963
1.4613880742913
1.452590420332356
1.4418377321603129
1.43108504398827
1.4164222873900294
1.3998044965786902
1.383186705767351
1.3685239491691104
1.3558162267839686
1.33822091886608
1.3196480938416422
1.300097751710655
1.281524926686217
1.2658846529814272
1.252199413489736
1.2394916911045943
1.2267839687194526
1.2150537634408602
1.2013685239491692
1.1857282502443791
1.1730205278592376
1.164222873900293
1.1534701857282503
1.142717497556207
1.130987292277615
1.121212121212121
1.1143695014662756
1.1114369501466277
1.1094819159335287
1.1085043988269794
1.1085043988269794
1.1085043988269794
1.1094819159335287
1.110459433040078
1.1094819159335287
1.10752688172043
1.1065493646138806
1.1055718475073313
1.1036168132942326
1.104594330400782
1.1065493646138806
1.10752688172043
1.10752688172043
1.10752688172043
1.10752688172043
1.1094819159335287
1.1114369501466277
1.1124144672531768
1.1133919843597262
1.1133919843597262
1.1133919843597262
1.1133919843597262
1.1124144672531768
1.110459433040078
1.1094819159335287
1.1085043988269794
1.1085043988269794
1.1094819159335287
1.110459433040078
1.1094819159335287
1.1085043988269794
1.1065493646138806
1.1026392961876832
1.099706744868035
1.099706744868035
1.1026392961876832
1.1143695014662756
1.1466275659824048
1.209188660801564
1.3069403714565004
1.4164222873900294
1.543499511241447
1.710654936461388
1.900293255131965
2.0957966764418376
2.281524926686217
2.443792766373412
2.578690127077224
2.681329423264907
2.752688172043011
2.793743890518084
2.811339198435973
2.8084066471163247
2.790811339198436
2.7653958944281527
2.7331378299120237
2.695014662756598
2.652003910068426
2.6080156402737047
2.563049853372434
2.5161290322580645
2.469208211143695
2.420332355816227
2.3704789833822093
2.317693059628544
2.2658846529814274
2.2130987292277613
2.1515151515151514
2.080156402737048
2.002932551319648
1.924731182795699
1.8465298142717497
1.7702834799608993
1.699902248289345
1.6363636363636365
1.5884652981427174
1.555229716520039
1.5278592375366569
1.5063538611925709
1.4887585532746823
1.4750733137829912
1.4652981427174976
1.457478005865103
1.4506353861192571
1.4437927663734116
1.434017595307918
1.4203323558162269
1.4037145650048877
1.3861192570869991
1.3685239491691104
1.35386119257087
1.3421309872922775
1.3294232649071358
1.3157380254154447
1.2981427174975562
1.2776148582600195
1.2551319648093842
1.2316715542521994
1.2101661779081134
1.1925708699902249
1.173998044965787
1.1573802541544478
1.1456500488758554
1.1368523949169111
1.126099706744868
1.1163245356793745
1.1085043988269794
1.1016617790811338
1.0948191593352885
1.088954056695992
1.083088954056696
1.0772238514173995
1.0703812316715542
1.064516129032258
1.0586510263929618
1.0557184750733135
1.053763440860215
1.0498533724340176
1.0449657869012707
1.0410557184750733
1.0371456500488758
1.032258064516129
1.0283479960899315
1.0263929618768328
1.024437927663734
1.0234604105571847
1.0224828934506354
1.0234604105571847
1.0273704789833822
1.0303030303030305
1.032258064516129
1.0332355816226784
1.035190615835777
1.0361681329423265
1.0361681329423265
1.0361681329423265
1.0361681329423265
1.0361681329423265
1.035190615835777
1.0342130987292275
1.0371456500488758
1.0420332355816226
1.04594330400782
1.0488758553274682
1.0518084066471165
1.0518084066471165
1.0488758553274682
1.0439882697947214
1.0391006842619743
1.0381231671554252
1.050830889540567
1.086021505376344
1.1378299120234605
1.217008797653959
1.3421309872922775
1.5063538611925709
1.7008797653958945
1.9130009775171064
2.126099706744868
2.3255131964809386
2.5004887585532747
2.6422287390029324
2.7517106549364616
2.83088954056696
2.8826979472140764
2.905180840664712
2.906158357771261
2.8944281524926687
2.8729227761485827
2.8455522971652005
2.812316715542522
2.7722385141739982
2.7282502443792764
2.6832844574780057
2.6392961876832843
2.5962854349951123
2.5532746823069403
2.512218963831867
2.4701857282502444
2.4242424242424243
2.3743890518084068
2.315738025415445
2.2482893450635384
2.1730205278592374
2.0928641251221896
2.0087976539589443
1.9237536656891496
1.8416422287390029
1.7624633431085044
1.6950146627565983
1.6373411534701858
1.5835777126099706
1.5405669599217986
1.5053763440860215
1.478983382209189
1.4613880742913
1.4486803519061584
1.439882697947214
1.434017595307918
1.4291300097751711
1.4242424242424243
1.418377321603128
1.4134897360703813
1.409579667644184
1.404692082111437
1.3958944281524928
1.3841642228739004
1.3724340175953078
1.3587487781036167
1.3440860215053765
1.3304007820136852
1.3176930596285434
1.3040078201368523
1.2864125122189638
1.2717497556207231
1.2609970674486803
1.249266862170088
1.2375366568914956
1.2258064516129032
1.2140762463343109
1.2013685239491692
1.1896383186705768
1.176930596285435
1.1652003910068427
1.152492668621701
1.141739980449658
1.133919843597263
1.1300097751710656
1.1290322580645162
1.1300097751710656
1.1319648093841643
1.1329423264907137
1.133919843597263
1.133919843597263
1.133919843597263
1.133919843597263
1.133919843597263
1.133919843597263
1.133919843597263
1.1358748778103618
1.1368523949169111
1.1358748778103618
1.1348973607038124
1.1348973607038124
1.1348973607038124
1.1348973607038124
1.1348973607038124
1.1348973607038124
1.1348973607038124
1.1348973607038124
1.1348973607038124
1.1348973607038124
1.1358748778103618
1.13880742913001
1.1397849462365592
1.1407624633431086
1.1407624633431086
1.1407624633431086
1.13880742913001
1.1368523949169111
1.133919843597263
1.1300097751710656
1.1251221896383188
1.1221896383186705
1.1251221896383188
1.133919843597263
1.1573802541544478
1.2072336265884651
1.2913000977517106
1.414467253176931
1.5728250244379276
1.7605083088954057
1.963831867057673
2.1681329423264906
2.358748778103617
2.5239491691104594
2.658846529814272
2.748778103616813
2.8044965786901277
2.844574780058651
2.865102639296188
2.8641251221896384
2.8484848484848486
2.823069403714565
2.7869012707722387
2.744868035190616
2.7008797653958942
2.656891495601173
2.613880742913001
2.572825024437928
2.5288367546432062
2.4809384164222874
2.4330400782013686
2.383186705767351
2.3274682306940373
2.2658846529814274
2.198435972629521
2.124144672531769
2.0439882697947214
1.962854349951124
1.8826979472140764
1.8054740957966764
1.7429130009775171
1.6901270772238517
1.6392961876832846
1.5943304007820136
1.5581622678396871
1.5327468230694037
1.5151515151515151
1.5034213098729228
1.4946236559139785
1.4868035190615836
1.479960899315738
1.474095796676442
1.4672531769305963
1.4594330400782014
1.4496578690127078
1.436950146627566
1.4213098729227762
1.404692082111437
1.3870967741935485
1.367546432062561
1.3450635386119256
1.3255131964809383
1.3088954056695992
1.295210166177908
1.2825024437927663
1.2727272727272727
1.2649071358748778
1.2512218963831867
1.2355816226783969
1.2160312805474096
1.1935483870967742
1.1730205278592376
1.1534701857282503
1.13880742913001
1.1280547409579669
1.1192570869990224
1.1124144672531768
1.1085043988269794
1.1065493646138806
1.1026392961876832
1.0987292277614855
1.096774193548387
1.0957966764418376
1.0957966764418376
1.0957966764418376
1.093841642228739
1.0899315738025417
1.0850439882697946
1.0791788856304985
1.0762463343108504
1.078201368523949
1.0791788856304985
1.078201368523949
1.0772238514173995
1.0772238514173995
1.0772238514173995
1.078201368523949
1.0801564027370478
1.0811339198435972
1.083088954056696
1.0879765395894427
1.0918866080156402
1.096774193548387
1.1026392961876832
1.1055718475073313
1.1065493646138806
1.10752688172043
1.1065493646138806
1.1026392961876832
1.0977517106549364
1.0918866080156402
1.086021505376344
1.0791788856304985
1.0733137829912025
1.0713587487781036
1.078201368523949
1.099706744868035
1.144672531769306
1.2228739002932552
1.3401759530791788
1.4965786901270772
1.6881720430107527
1.9012707722385145
2.1221896383186705
2.333333333333333
2.5190615835777126
2.675464320625611
2.7859237536656893
2.8582600195503423
2.913978494623656
2.949169110459433
2.9657869012707723
2.964809384164223
2.949169110459433
2.9237536656891496
2.89247311827957
2.857282502443793
2.8211143695014664
2.782013685239492
2.740957966764418
2.6989247311827955
2.6578690127077222
2.613880742913001
2.565982404692082
2.517106549364614
2.463343108504399
2.403714565004888
2.3382209188660803
2.2658846529814274
2.185728250244379
2.099706744868035
2.0087976539589443
1.9286412512218964
1.8563049853372435
1.7810361681329423
1.7067448680351909
1.635386119257087
1.5728250244379276
1.521016617790811
1.478005865102639
1.4437927663734116
1.4173998044965788
1.3958944281524928
1.380254154447703
1.3714565004887584
1.3655913978494625
1.3577712609970674
1.346041055718475
1.3333333333333333
1.3225806451612905
1.310850439882698
1.2971652003910068
1.2805474095796676
1.2609970674486803
1.238514173998045
1.2150537634408602
1.1906158357771262
1.1700879765395895
1.1534701857282503
1.1368523949169111
1.1221896383186705
1.1085043988269794
1.096774193548387
1.0879765395894427
1.0801564027370478
1.0733137829912025
1.0664711632453567
1.0606060606060606
1.0557184750733135
1.056695992179863
1.0606060606060606
1.0606060606060606
1.0606060606060606
1.0606060606060606
1.0576735092864125
1.0547409579667644
1.0547409579667644
1.0557184750733135
1.0576735092864125
1.0625610948191593
1.0664711632453567
1.0684261974584557
1.072336265884653
1.0772238514173995
1.126099706744868
1.1280547409579669
1.1466275659824048
1.1925708699902249
1.2756598240469208
1.3998044965786902
1.5620723362658846
1.7556207233626588
1.9696969696969695
2.1867057673509285
2.3655913978494625
2.5102639296187683
2.64613880742913
2.758553274682307
2.841642228739003
2.895405669599218
2.9257086999022484
2.936461388074292
2.9286412512218964
2.9071358748778104
2.877810361681329
2.843597262952102
2.807429130009776
2.76930596285435
2.729227761485826
2.689149560117302
2.64613880742913
2.603128054740958
2.5591397849462365
2.5131964809384164
2.4613880742913
2.403714565004888
2.3421309872922778
2.272727272727273
2.196480938416422
2.1251221896383186
2.0547409579667644
1.9765395894428155
1.8963831867057677
1.818181818181818
1.7458455522971652
1.6813294232649072
1.6265884652981428
1.581622678396872
1.5483870967741935
1.5268817204301075
1.5141739980449658
1.5083088954056696
1.5053763440860215
1.5034213098729228
1.501466275659824
1.4965786901270772
1.4916911045943304
1.4858260019550342
1.479960899315738
1.4721407624633431
1.4604105571847508
1.444770283479961
1.4242424242424243
1.3978494623655917
1.3734115347018572
1.35386119257087
1.335288367546432
1.3196480938416422
1.305962854349951
1.29227761485826
1.2795698924731185
1.2649071358748778
1.2482893450635386
1.2316715542521994
1.217008797653959
1.203323558162268
1.1906158357771262
1.1808406647116323
1.1730205278592376
1.164222873900293
1.155425219941349
1.144672531769306
1.133919843597263
1.1270772238514175
1.1241446725317692
1.1221896383186705
1.121212121212121
1.121212121212121
1.121212121212121
1.121212121212121
1.121212121212121
1.121212121212121
1.121212121212121
1.121212121212121
1.121212121212121
1.121212121212121
1.121212121212121
1.121212121212121
1.121212121212121
1.1192570869990224
1.1065493646138806
1.0899315738025417
1.083088954056696
1.0811339198435972
1.0801564027370478
1.0801564027370478
1.0801564027370478
1.0801564027370478
1.0801564027370478
1.0801564027370478
1.0801564027370478
1.0801564027370478
1.0801564027370478
1.078201368523949
1.075268817204301
1.072336265884653
1.067448680351906
1.0635386119257086
1.0664711632453567
1.0840664711632453
1.1280547409579669
1.2101661779081134
1.3343108504398826
1.498533724340176
1.6950146627565983
1.9120234604105573
2.133919843597263
2.318670576735093
2.469208211143695
2.611925708699902
2.729227761485826
2.81622678396872
2.8729227761485827
2.902248289345064
2.911045943304008
2.905180840664712
2.887585532746823
2.859237536656892
2.825024437927664
2.788856304985337
2.750733137829912
2.710654936461388
2.667644183773216
2.622678396871945
2.5777126099706744
2.5317693059628543
2.484848484848485
2.4330400782013686
2.377321603128055
2.315738025415445
2.243401759530792
2.1739980449657867
2.1055718475073317
2.021505376344086
1.9286412512218964
1.8347996089931573
1.7458455522971652
1.66177908113392
1.585532746823069
1.521016617790811
1.4711632453567938
1.434017595307918
1.4056695992179864
1.3851417399804498
1.3734115347018572
1.3655913978494625
1.356793743890518
1.346041055718475
1.3343108504398826
1.321603128054741
1.3069403714565004
1.2913000977517106
1.2776148582600195
1.2639296187683284
1.2473118279569892
1.2258064516129032
1.206256109481916
1.1886608015640274
1.1700879765395895
1.1544477028347997
1.1397849462365592
1.126099706744868
1.1124144672531768
1.0987292277614855
1.0840664711632453
1.0684261974584557
1.053763440860215
1.0420332355816226
1.029325513196481
1.0195503421309873
1.0146627565982405
1.0087976539589445
1.002932551319648
0.997067448680352
0.9902248289345064
0.9833822091886608
0.9775171065493646
0.9706744868035192
0.9638318670576737
0.9589442815249268
0.956989247311828
0.9589442815249268
0.9638318670576737
0.9657869012707724
0.9687194525904204
0.9696969696969696
0.9667644183773216
0.9657869012707724
0.9648093841642228
0.9608993157380256
0.9579667644183774
0.9560117302052786
0.95405669599218
0.9530791788856304
0.9550342130987292
0.9579667644183774
0.959921798631476
0.9608993157380256
0.9608993157380256
0.9628543499511242
0.9657869012707724
0.9667644183773216
0.967741935483871
0.9696969696969696
0.9716520039100685
0.9745845552297164
0.9794721407624634
0.981427174975562
0.9794721407624634
0.978494623655914
0.981427174975562
0.9912023460410556
1.0175953079178883
1.0713587487781036
1.1622678396871946
1.2913000977517106
1.457478005865103
1.656891495601173
1.87683284457478
2.070381231671554
2.2404692082111435
2.4173998044965788
2.579667644183773
2.716520039100684
2.823069403714565
2.895405669599218
2.940371456500489
2.960899315738025
2.961876832844575
2.9472140762463344
2.924731182795699
2.897360703812317
2.8641251221896384
2.827956989247312
2.787878787878788
2.744868035190616
2.7008797653958942
2.6559139784946235
2.608993157380254
2.5591397849462365
2.506353861192571
2.44672531769306
2.3812316715542523
2.3088954056695994
2.2385141739980448
2.167155425219941
2.086021505376344
2.0009775171065494
1.9149560117302051
1.8328445747800584
1.7575757575757576
1.6901270772238517
1.6334310850439884
1.587487781036168
1.5493646138807429
1.521016617790811
1.501466275659824
1.4887585532746823
1.482893450635386
1.479960899315738
1.47702834799609
1.4731182795698925
1.4682306940371457
1.4604105571847508
1.4506353861192571
1.4389051808406648
1.4252199413489737
1.4086021505376345
1.3900293255131966
1.3743890518084063
1.359726295210166
1.343108504398827
1.324535679374389
1.3049853372434017
1.2873900293255132
1.2717497556207231
1.2570869990224829
1.2434017595307918
1.23069403714565
1.217008797653959
1.2043010752688172
1.1945259042033236
1.1857282502443791
1.1788856304985338
1.1730205278592376
1.1691104594330402
1.1652003910068427
1.1612903225806452
1.1583577712609971
1.1534701857282503
1.147605083088954
1.141739980449658
1.133919843597263
1.126099706744868
1.1221896383186705
1.1202346041055715
1.1192570869990224
1.1192570869990224
1.1192570869990224
1.1192570869990224
1.1192570869990224
1.1192570869990224
1.1192570869990224
1.1192570869990224
1.1192570869990224
1.1192570869990224
1.1202346041055715
1.1231671554252198
1.1241446725317692
1.1251221896383188
1.1231671554252198
1.121212121212121
1.118279569892473
1.1133919843597262
1.1094819159335287
1.10752688172043
1.1065493646138806
1.1065493646138806
1.1065493646138806
1.10752688172043
1.1085043988269794
1.1036168132942326
1.0948191593352885
1.0850439882697946
1.0791788856304985
1.0821114369501466
1.1065493646138806
1.163245356793744
1.2590420332355816
1.3949169110459434
1.5679374389051808
1.7380254154447703
1.90811339198436
2.101661779081134
2.29227761485826
2.463343108504399
2.6099706744868034
2.7262952101661777
2.807429130009776
2.859237536656892
2.886608015640274
2.8944281524926687
2.8836754643206257
2.859237536656892
2.8269794721407626
2.788856304985337
2.745845552297165
2.701857282502444
2.654936461388074
2.6041055718475072
2.5513196480938416
2.4995112414467253
2.444770283479961
2.3870967741935485
2.3255131964809386
2.2580645161290325
2.193548387096774
2.1309872922776147
2.0576735092864125
1.9775171065493649
1.8973607038123168
1.822091886608016
1.75366568914956
1.6920821114369502
1.6383186705767352
1.5943304007820136
1.5591397849462365
1.533724340175953
1.5180840664711632
1.5083088954056696
1.500488758553275
1.4936461388074291
1.4868035190615836
1.478005865102639
1.466275659824047
1.4535679374389052
1.4408602150537635
1.4252199413489737
1.4076246334310851
1.3890518084066472
1.370478983382209
1.3548387096774193
1.3421309872922775
1.327468230694037
1.310850439882698
1.29227761485826
1.2746823069403714
1.260019550342131
1.2424242424242424
1.2238514173998043
1.2072336265884651
1.1886608015640274
1.1720430107526882
1.160312805474096
1.1515151515151516
1.1397849462365592
1.1300097751710656
1.121212121212121
1.1133919843597262
1.1065493646138806
1.099706744868035
1.093841642228739
1.0869990224828934
1.0811339198435972
1.0762463343108504
1.075268817204301
1.078201368523949
1.0811339198435972
1.083088954056696
1.0821114369501466
1.0801564027370478
1.0791788856304985
1.078201368523949
1.078201368523949
1.0791788856304985
1.083088954056696
1.0869990224828934
1.0899315738025417
1.096774193548387
1.1016617790811338
1.1036168132942326
1.104594330400782
1.1055718475073313
1.10752688172043
1.1085043988269794
1.110459433040078
1.115347018572825
1.1192570869990224
1.121212121212121
1.1221896383186705
1.1221896383186705
1.1221896383186705
1.121212121212121
1.1173020527859236
1.1114369501466277
1.1085043988269794
1.1143695014662756
1.1329423264907137
1.1759530791788857
1.2541544477028348
1.3714565004887584
1.5298142717497556
1.7233626588465298
1.9071358748778104
2.081133919843597
2.272727272727273
2.458455522971652
2.6236559139784945
2.7614858260019552
2.865102639296188
2.936461388074292
2.978494623655914
2.9960899315738025
2.997067448680352
2.98435972629521
2.960899315738025
2.929618768328446
2.8944281524926687
2.857282502443793
2.81622678396872
2.7722385141739982
2.729227761485826
2.687194525904203
2.643206256109482
2.595307917888563
2.5425219941348973
2.4858260019550342
2.421309872922776
2.356793743890518
2.291300097751711
2.21505376344086
2.131964809384164
2.0439882697947214
1.9550342130987293
1.868035190615836
1.7839687194525904
1.7067448680351909
1.6392961876832846
1.585532746823069
1.544477028347996
1.512218963831867
1.4916911045943304
1.478983382209189
1.4701857282502444
1.4623655913978495
1.4545454545454546
1.447702834799609
1.4408602150537635
1.4349951124144673
1.4281524926686218
1.4203323558162269
1.409579667644184
1.3978494623655917
1.3870967741935485
1.375366568914956
1.359726295210166
1.3440860215053765
1.3294232649071358
1.3157380254154447
1.303030303030303
1.2932551319648091
1.2854349951124144
1.2746823069403714
1.262952101661779
1.2502443792766371
1.2375366568914956
1.2287390029325511
1.2189638318670577
1.206256109481916
1.1945259042033236
1.187683284457478
1.1837732160312806
1.181818181818182
1.1798631476050832
1.1749755620723363
1.1681329423264908
1.1612903225806452
1.1544477028347997
1.1495601173020529
1.1495601173020529
1.1495601173020529
1.1495601173020529
1.1495601173020529
1.1495601173020529
1.1495601173020529
1.147605083088954
1.144672531769306
1.1436950146627567
1.1407624633431086
1.1378299120234605
1.1368523949169111
1.1378299120234605
1.1397849462365592
1.1407624633431086
1.141739980449658
1.141739980449658
1.141739980449658
1.141739980449658
1.141739980449658
1.141739980449658
1.141739980449658
1.141739980449658
1.141739980449658
1.1436950146627567
1.1466275659824048
1.147605083088954
1.1466275659824048
1.1407624633431086
1.1329423264907137
1.1280547409579669
1.1270772238514175
1.1358748778103618
1.1652003910068427
1.2228739002932552
1.3196480938416422
1.457478005865103
1.603128054740958
1.761485826001955
1.9560117302052784
2.1652003910068425
2.367546432062561
2.547409579667644
2.695014662756598
2.807429130009776
2.884652981427175
2.930596285434995
2.948191593352884
2.9442815249266863
2.9257086999022484
2.900293255131965
2.8699902248289346
2.834799608993157
2.792766373411535
2.747800586510264
2.702834799608993
2.6578690127077222
2.6129032258064515
2.565982404692082
2.5161290322580645
2.464320625610948
2.407624633431085
2.3519061583577714
2.29227761485826
2.2218963831867056
2.146627565982405
2.065493646138808
1.9833822091886608
1.905180840664712
1.83088954056696
1.761485826001955
1.7008797653958945
1.6490713587487782
1.5913978494623655
1.5366568914956011
1.501466275659824
1.47702834799609
1.4633431085043989
1.458455522971652
1.4594330400782014
1.4594330400782014
1.456500488758553
1.4516129032258065
1.4428152492668622
1.4281524926686218
1.4105571847507332
1.3958944281524928
1.3812316715542523
1.364613880742913
1.346041055718475
1.327468230694037
1.3079178885630498
1.2883675464320623
1.2697947214076246
1.252199413489736
1.2336265884652982
1.2160312805474096
1.1994134897360704
1.1808406647116323
1.1671554252199414
1.1564027370478984
1.144672531769306
1.1319648093841643
1.1192570869990224
1.1065493646138806
1.0928641251221896
1.0811339198435972
1.072336265884653
1.064516129032258
1.0586510263929618
1.0557184750733135
1.0557184750733135
1.0557184750733135
1.0547409579667644
