ppg
1.126099706744868
1.2160312805474096
1.3343108504398826
1.478983382209189
1.6441837732160314
1.822091886608016
2.002932551319648
2.179863147605083
2.345063538611926
2.493646138807429
2.6236559139784945
2.732160312805474
2.8084066471163247
2.8611925708699903
2.90811339198436
2.9442815249266863
2.9687194525904204
2.9804496578690127
2.981427174975562
2.9716520039100685
2.952101661779081
2.9227761485826003
2.8836754643206257
2.834799608993157
2.782013685239492
2.7253176930596283
2.659824046920821
2.587487781036168
2.512218963831867
2.436950146627566
2.3626588465298144
2.291300097751711
2.2248289345063537
2.164222873900293
2.110459433040078
2.0635386119257086
2.022482893450636
1.989247311827957
1.9608993157380252
1.9335288367546437
1.90811339198436
1.8836754643206255
1.8602150537634408
1.835777126099707
1.8113391984359728
1.7859237536656891
1.7595307917888563
1.7302052785923754
1.699902248289345
1.672531769305963
1.6471163245356797
1.6177908113391983
1.5865102639296187
1.555229716520039
1.52297165200391
1.4916911045943304
1.4613880742913
1.4320625610948192
1.4037145650048877
1.3773216031280548
1.3519061583577712
1.3294232649071358
1.3128054740957966
1.2981427174975562
1.281524926686217
1.2639296187683284
1.24633431085044
1.2297165200391007
1.2140762463343109
1.1994134897360704
1.18475073313783
1.1720430107526882
1.160312805474096
1.1485826001955035
1.141739980449658
1.1378299120234605
1.1329423264907137
1.126099706744868
1.1192570869990224
1.1124144672531768
1.1055718475073313
1.099706744868035
1.093841642228739
1.0879765395894427
1.083088954056696
1.078201368523949
1.0772238514173995
1.078201368523949
1.0772238514173995
1.0762463343108504
1.075268817204301
1.0733137829912025
1.0703812316715542
1.0664711632453567
1.06158357771261
1.0557184750733135
1.0488758553274682
1.0439882697947214
1.0420332355816226
1.0469208211143697
1.0606060606060606
1.0879765395894427
1.133919843597263
1.206256109481916
1.3069403714565004
1.4349951124144673
1.58455522971652
1.7517106549364614
1.927663734115347
2.103616813294233
2.271749755620724
2.4086021505376345
2.520039100684262
2.63049853372434
2.727272727272727
2.807429130009776
2.8690127077223853
2.913000977517106
2.9423264907135875
2.9579667644183774
2.960899315738025
2.9530791788856305
2.9345063538611926
2.905180840664712
2.8690127077223853
2.8260019550342133
2.774193548387097
2.7126099706744866
2.644183773216031
2.570869990224829
2.4946236559139785
2.418377321603128
2.345063538611926
2.274682306940372
2.209188660801564
2.1495601173020527
2.1006842619745845
2.059628543499511
2.0195503421309877
1.9833822091886608
1.951124144672532
1.9227761485826005
1.8963831867057677
1.871945259042033
1.847507331378299
1.8240469208211143
1.7996089931573802
1.7741935483870968
1.7468230694037146
1.7204301075268815
1.6950146627565983
1.6666666666666667
1.635386119257087
1.603128054740958
1.5698924731182795
1.5366568914956011
1.5034213098729228
1.4711632453567938
1.4389051808406648
1.4076246334310851
1.3773216031280548
1.35386119257087
1.3333333333333333
1.3118279569892473
1.2903225806451613
1.2697947214076246
1.2502443792766371
1.2316715542521994
1.2130987292277615
1.195503421309873
1.1779081133919844
1.1622678396871946
1.1466275659824048
1.130987292277615
1.121212121212121
1.1143695014662756
1.1065493646138806
1.0977517106549364
1.0879765395894427
1.078201368523949
1.0684261974584557
1.0606060606060606
1.0547409579667644
1.0498533724340176
1.04594330400782
1.0420332355816226
1.0410557184750733
1.0420332355816226
1.0410557184750733
1.0381231671554252
1.035190615835777
1.0312805474095796
1.0283479960899315
1.024437927663734
1.0205278592375366
1.0156402737047898
1.0097751710654936
1.002932551319648
0.9960899315738024
0.9931573802541545
0.9951124144672532
1.0019550342130987
1.021505376344086
1.0606060606060606
1.1251221896383188
1.217008797653959
1.33822091886608
1.4838709677419355
1.6490713587487782
1.825024437927664
2.003910068426197
2.156402737047898
2.2883675464320627
2.426197458455523
2.555229716520039
2.668621700879765
2.763440860215054
2.8396871945259043
2.8993157380254155
2.9423264907135875
2.970674486803519
2.986314760508309
2.991202346041056
2.9853372434017595
2.967741935483871
2.941348973607038
2.9071358748778104
2.863147605083089
2.809384164222874
2.7468230694037143
2.677419354838709
2.6021505376344085
2.5249266862170088
2.447702834799609
2.372434017595308
2.300097751710655
2.2385141739980448
2.1847507331378297
2.132942326490713
2.085043988269794
2.043010752688172
2.004887585532747
1.9736070381231672
1.946236559139785
1.9188660801564028
1.89247311827957
1.866080156402737
1.8406647116324533
1.8142717497556209
1.7898338220918866
1.7663734115347018
1.739980449657869
1.710654936461388
1.6793743890518085
1.6471163245356797
1.6158357771260996
1.5835777126099706
1.5513196480938416
1.5190615835777126
1.4868035190615836
1.455522971652004
1.4301075268817205
1.4086021505376345
1.383186705767351
1.3577712609970674
1.332355816226784
1.3088954056695992
1.2864125122189638
1.2649071358748778
1.2443792766373412
1.224828934506354
1.2072336265884651
1.1906158357771262
1.1749755620723363
1.164222873900293
1.1564027370478984
1.147605083088954
1.1378299120234605
1.1290322580645162
1.1192570869990224
1.110459433040078
1.1016617790811338
1.093841642228739
1.0879765395894427
1.0821114369501466
1.0762463343108504
1.075268817204301
1.0762463343108504
1.0762463343108504
1.075268817204301
1.0733137829912025
1.072336265884653
1.0713587487781036
1.0684261974584557
1.0654936461388074
1.06158357771261
1.0586510263929618
1.053763440860215
1.0518084066471165
1.050830889540567
1.0478983382209188
1.04594330400782
1.0478983382209188
1.0596285434995112
1.0879765395894427
1.13880742913001
1.217008797653959
1.3235581622678396
1.458455522971652
1.6148582600195502
1.7849462365591398
1.9393939393939397
2.0821114369501466
2.236559139784946
2.3870967741935485
2.5239491691104594
2.6422287390029324
2.7419354838709675
2.822091886608016
2.884652981427175
2.930596285434995
2.961876832844575
2.979472140762464
2.9824046920821115
2.9745845552297165
2.960899315738025
2.93841642228739
2.9071358748778104
2.865102639296188
2.814271749755621
2.7536656891495603
2.6852394916911044
2.611925708699902
2.536656891495601
2.4613880742913
2.3870967741935485
2.3225806451612905
2.2658846529814274
2.209188660801564
2.157380254154448
2.1114369501466275
2.070381231671554
2.034213098729228
2.002932551319648
1.9745845552297163
1.948191593352884
1.9227761485826005
1.8983382209188664
1.8758553274682308
1.8543499511241448
1.828934506353861
1.801564027370479
1.7712609970674489
1.739980449657869
1.70772238514174
1.675464320625611
1.6422287390029326
1.6080156402737047
1.573802541544477
1.5405669599217986
1.509286412512219
1.4838709677419355
1.4623655913978495
1.4379276637341154
1.4115347018572826
1.3851417399804498
1.359726295210166
1.3343108504398826
1.3098729227761483
1.2873900293255132
1.2649071358748778
1.2453567937438903
1.2267839687194526
1.2140762463343109
1.203323558162268
1.1906158357771262
1.1779081133919844
1.1652003910068427
1.1534701857282503
1.142717497556207
1.1329423264907137
1.1231671554252198
1.1143695014662756
1.1055718475073313
1.0977517106549364
1.0909090909090908
1.0869990224828934
1.086021505376344
1.083088954056696
1.078201368523949
1.0742913000977516
1.0703812316715542
1.0664711632453567
1.06158357771261
1.056695992179863
1.0518084066471165
1.0478983382209188
1.0420332355816226
1.0391006842619743
1.0381231671554252
1.0342130987292275
1.0283479960899315
1.0263929618768328
1.0332355816226784
1.053763440860215
1.0948191593352885
1.1612903225806452
1.2551319648093842
1.3782991202346042
1.5249266862170088
1.689149560117302
1.839687194525904
1.981427174975562
2.1378299120234603
2.2932551319648096
2.4389051808406648
2.567937438905181
2.677419354838709
2.7673509286412514
2.838709677419355
2.89247311827957
2.9315738025415445
2.956989247311828
2.9667644183773216
2.963831867057673
2.95405669599218
2.935483870967742
2.9071358748778104
2.8690127077223853
2.822091886608016
2.766373411534702
2.701857282502444
2.631476050830889
2.557184750733138
2.4809384164222874
2.4056695992179864
2.3382209188660803
2.27761485826002
2.2160312805474094
2.157380254154448
2.104594330400782
2.056695992179863
2.0146627565982405
1.9765395894428155
1.943304007820137
1.913978494623656
1.8866080156402736
1.86119257086999
1.8387096774193548
1.818181818181818
1.7947214076246334
1.76930596285435
1.7429130009775171
1.7145650048875856
1.6852394916911049
1.653958944281525
1.6217008797653958
1.5884652981427174
1.555229716520039
1.52297165200391
1.490713587487781
1.4633431085043989
1.439882697947214
1.4134897360703813
1.3870967741935485
1.359726295210166
1.3333333333333333
1.3079178885630498
1.2834799608993157
1.2609970674486803
1.2394916911045943
1.2189638318670577
1.1994134897360704
1.1857282502443791
1.1759530791788857
1.163245356793744
1.1505376344086022
1.1378299120234605
1.126099706744868
1.115347018572825
1.1055718475073313
1.0957966764418376
1.0869990224828934
1.078201368523949
1.0713587487781036
1.0654936461388074
1.0635386119257086
1.0635386119257086
1.0606060606060606
1.0576735092864125
1.053763440860215
1.0498533724340176
1.04594330400782
1.0420332355816226
1.0381231671554252
1.035190615835777
1.0312805474095796
1.0254154447702837
1.018572825024438
1.010752688172043
1.002932551319648
0.9951124144672532
0.9902248289345064
0.9902248289345064
1.0009775171065494
1.0283479960899315
1.0772238514173995
1.152492668621701
1.2570869990224829
1.391006842619746
1.5483870967741935
1.696969696969697
1.842619745845552
2.0087976539589443
2.177908113391984
2.340175953079179
2.487781036168133
2.6158357771261
2.7223851417399803
2.8084066471163247
2.874877810361681
2.9237536656891496
2.956989247311828
2.972629521016618
2.9765395894428157
2.973607038123167
2.962854349951124
2.943304007820137
2.913000977517106
2.8729227761485827
2.823069403714565
2.764418377321604
2.696969696969697
2.6236559139784945
2.5464320625610948
2.474095796676442
2.406647116324536
2.337243401759531
2.269794721407625
2.206256109481916
2.1485826001955037
2.096774193548387
2.0498533724340176
2.0087976539589443
1.9726295210166176
1.9403714565004888
1.911045943304008
1.8856304985337244
1.8631476050830889
1.8416422287390029
1.818181818181818
1.7917888563049853
1.7644183773216031
1.7350928641251222
1.7038123167155426
1.6715542521994136
1.6392961876832846
1.607038123167155
1.5747800586510263
1.543499511241447
1.517106549364614
1.4936461388074291
1.4682306940371457
1.4418377321603129
1.414467253176931
1.3890518084066472
1.364613880742913
1.3401759530791788
1.316715542521994
1.2932551319648091
1.270772238514174
1.249266862170088
1.227761485826002
1.2121212121212122
1.198435972629521
1.1837732160312806
1.1691104594330402
1.1544477028347997
1.141739980449658
1.1300097751710656
1.1192570869990224
1.110459433040078
1.1036168132942326
1.0977517106549364
1.0918866080156402
1.088954056695992
1.0879765395894427
1.0850439882697946
1.0811339198435972
1.0762463343108504
1.0703812316715542
1.0654936461388074
1.06158357771261
1.0586510263929618
1.056695992179863
1.0557184750733135
1.0557184750733135
1.0547409579667644
1.0557184750733135
1.056695992179863
1.0547409579667644
1.050830889540567
1.04594330400782
1.040078201368524
1.0361681329423265
1.0391006842619743
1.053763440860215
1.0879765395894427
1.1456500488758554
1.23069403714565
1.3255131964809383
1.434017595307918
1.5747800586510263
1.7360703812316716
1.9100684261974583
2.086021505376344
2.2561094819159337
2.412512218963832
2.5513196480938416
2.668621700879765
2.7653958944281527
2.841642228739003
2.8993157380254155
2.9335288367546437
2.951124144672532
2.962854349951124
2.9657869012707723
2.9589442815249267
2.9423264907135875
2.9149560117302054
2.877810361681329
2.831867057673509
2.776148582600196
2.7116324535679373
2.641251221896383
2.573802541544477
2.50733137829912
2.4359726295210167
2.363636363636364
2.294232649071359
2.228739002932551
2.16911045943304
2.115347018572825
2.069403714565005
2.0283479960899315
1.9931573802541545
1.9618768328445748
1.9345063538611929
1.911045943304008
1.889540566959922
1.8670576735092863
1.8435972629521016
1.8191593352883677
1.793743890518084
1.7673509286412512
1.739980449657869
1.7096774193548387
1.678396871945259
1.6451612903225807
1.6109481915933528
1.5806451612903225
1.5542521994134897
1.5249266862170088
1.4936461388074291
1.4623655913978495
1.4320625610948192
1.401759530791789
1.3724340175953078
1.3450635386119256
1.3196480938416422
1.2961876832844574
1.273704789833822
1.2531769305962854
1.238514173998045
1.2258064516129032
1.2101661779081134
1.1935483870967742
1.1779081133919844
1.1622678396871946
1.147605083088954
1.1329423264907137
1.1202346041055715
1.1094819159335287
1.1016617790811338
1.0948191593352885
1.0918866080156402
1.0909090909090908
1.0869990224828934
1.083088954056696
1.078201368523949
1.072336265884653
1.067448680351906
1.0625610948191593
1.0576735092864125
1.0527859237536656
1.0488758553274682
1.0449657869012707
1.0410557184750733
1.040078201368524
1.0410557184750733
1.0391006842619743
1.035190615835777
1.029325513196481
1.0224828934506354
1.0156402737047898
1.0117302052785924
1.0175953079178883
1.0381231671554252
1.078201368523949
1.144672531769306
1.2228739002932552
1.3186705767350928
1.4486803519061584
1.6041055718475072
1.775171065493646
1.95405669599218
2.131964809384164
2.300097751710655
2.452590420332356
2.5865102639296187
2.7008797653958942
2.7947214076246336
2.8690127077223853
2.916911045943304
2.9472140762463344
2.970674486803519
2.9853372434017595
2.9902248289345064
2.9853372434017595
2.9696969696969697
2.9423264907135875
2.905180840664712
2.857282502443793
2.80058651026393
2.736070381231672
2.6715542521994133
2.6050830889540566
2.532746823069404
2.4574780058651027
2.3822091886608017
2.3088954056695994
2.241446725317693
2.1788856304985336
2.1221896383186705
2.072336265884653
2.0283479960899315
1.989247311827957
1.9560117302052784
1.9286412512218964
1.9012707722385145
1.8748778103616808
1.8484848484848484
1.823069403714565
1.7976539589442817
1.775171065493646
1.7526881720430108
1.726295210166178
1.6979472140762464
1.6666666666666667
1.6344086021505375
1.606060606060606
1.5796676441837731
1.5493646138807429
1.5180840664711632
1.4868035190615836
1.455522971652004
1.426197458455523
1.3988269794721409
1.3714565004887584
1.3450635386119256
1.3206256109481915
1.2971652003910068
1.278592375366569
1.2619745845552297
1.2443792766373412
1.224828934506354
1.206256109481916
1.187683284457478
1.1700879765395895
1.152492668621701
1.1368523949169111
1.1231671554252198
1.1114369501466277
1.1016617790811338
1.093841642228739
1.0899315738025417
1.088954056695992
1.0850439882697946
1.0791788856304985
1.072336265884653
1.0654936461388074
1.0586510263929618
1.053763440860215
1.0488758553274682
1.0449657869012707
1.0410557184750733
1.0381231671554252
1.0381231671554252
1.040078201368524
1.0391006842619743
1.0371456500488758
1.0342130987292275
1.0312805474095796
1.0273704789833822
1.021505376344086
1.0175953079178883
1.0175953079178883
1.0254154447702837
1.0469208211143697
1.0899315738025417
1.1466275659824048
1.2209188660801564
1.3294232649071358
1.466275659824047
1.6265884652981428
1.8005865102639296
1.9804496578690127
2.158357771260997
2.3255131964809386
2.47702834799609
2.608993157380254
2.719452590420332
2.7976539589442817
2.852394916911046
2.9012707722385143
2.9393939393939394
2.9657869012707723
2.981427174975562
2.986314760508309
2.981427174975562
2.9667644183773216
2.941348973607038
2.905180840664712
2.8582600195503423
2.80058651026393
2.740957966764418
2.678396871945259
2.6080156402737047
2.532746823069404
2.4565004887585533
2.3812316715542523
2.310850439882698
2.2453567937438903
2.1867057673509285
2.134897360703812
2.089931573802541
2.0518084066471163
2.0205278592375366
1.9951124144672527
1.9716520039100685
1.948191593352884
1.924731182795699
1.900293255131965
1.8758553274682308
1.8494623655913975
1.822091886608016
1.7927663734115349
1.7624633431085044
1.732160312805474
1.7008797653958945
1.672531769305963
1.64613880742913
1.6158357771260996
1.5835777126099706
1.5513196480938416
1.5190615835777126
1.487781036168133
1.457478005865103
1.4281524926686218
1.3998044965786902
1.3724340175953078
1.346041055718475
1.3255131964809383
1.3079178885630498
1.2883675464320623
1.2688172043010753
1.2502443792766371
1.2336265884652982
1.2189638318670577
1.2052785923753666
1.1925708699902249
1.1808406647116323
1.1691104594330402
1.1573802541544478
1.1466275659824048
1.1407624633431086
1.1358748778103618
1.1290322580645162
1.121212121212121
1.1133919843597262
1.1055718475073313
1.0987292277614855
1.0918866080156402
1.086021505376344
1.0801564027370478
1.075268817204301
1.0713587487781036
1.0694037145650048
1.0694037145650048
1.0684261974584557
1.0654936461388074
1.0606060606060606
1.0547409579667644
1.0478983382209188
1.0420332355816226
1.0381231671554252
1.040078201368524
1.053763440860215
1.0840664711632453
1.1368523949169111
1.2023460410557183
1.2854349951124144
1.401759530791789
1.5454545454545454
1.70772238514174
1.881720430107527
2.056695992179863
2.225806451612903
2.3822091886608017
2.5210166177908118
2.6392961876832843
2.73802541544477
2.806451612903226
2.8533724340175954
2.89345063538612
2.9227761485826003
2.9423264907135875
2.951124144672532
2.949169110459433
2.9374389051808407
2.9159335288367547
2.884652981427175
2.843597262952102
2.792766373411535
2.7331378299120237
2.6725317693059627
2.6099706744868034
2.5386119257087
2.463343108504399
2.388074291300098
2.314760508308896
2.2453567937438903
2.1818181818181817
2.124144672531769
2.0733137829912023
2.029325513196481
1.9902248289345064
1.9579667644183771
1.9315738025415443
1.9042033235581624
1.87683284457478
1.8484848484848484
1.8201368523949168
1.7917888563049853
1.7634408602150538
1.7350928641251222
1.7067448680351909
1.678396871945259
1.6490713587487782
1.6177908113391983
1.590420332355816
1.5650048875855327
1.5347018572825024
1.501466275659824
1.469208211143695
1.4379276637341154
1.4076246334310851
1.3782991202346042
1.3499511241446724
1.3225806451612905
1.2961876832844574
1.270772238514174
1.2512218963831867
1.2355816226783969
1.2179863147605083
1.1994134897360704
1.181818181818182
1.1652003910068427
1.1495601173020529
1.1348973607038124
1.1221896383186705
1.110459433040078
1.099706744868035
1.088954056695992
1.083088954056696
1.0791788856304985
1.072336265884653
1.0654936461388074
1.0586510263929618
1.053763440860215
1.0488758553274682
1.0449657869012707
1.0410557184750733
1.0381231671554252
1.0361681329423265
1.0332355816226784
1.029325513196481
1.029325513196481
1.0303030303030305
1.0273704789833822
1.0224828934506354
1.0156402737047898
1.007820136852395
0.9990224828934506
0.9921798631476052
0.9902248289345064
0.9990224828934506
1.0234604105571847
1.0694037145650048
1.1290322580645162
1.2111436950146628
1.327468230694037
1.4701857282502444
1.632453567937439
1.8064516129032255
1.9853372434017595
2.160312805474096
2.32355816226784
2.4711632453567938
2.5992179863147604
2.705767350928641
2.791788856304985
2.849462365591398
2.887585532746823
2.919843597262952
2.9423264907135875
2.956011730205278
2.9589442815249267
2.951124144672532
2.932551319648094
2.9042033235581624
2.866080156402737
2.817204301075269
2.758553274682307
2.697947214076246
2.635386119257087
2.565982404692082
2.49266862170088
2.419354838709677
2.347996089931574
2.280547409579668
2.217986314760508
2.161290322580645
2.1114369501466275
2.067448680351906
2.0283479960899315
1.994134897360704
1.9657869012707725
1.9413489736070384
1.916911045943304
1.89247311827957
1.868035190615836
1.8435972629521016
1.8191593352883677
1.793743890518084
1.7673509286412512
1.739980449657869
1.7116324535679377
1.6813294232649072
1.6549364613880744
1.6304985337243405
1.603128054740958
1.573802541544477
1.544477028347996
1.5161290322580645
1.4887585532746823
1.4613880742913
1.4330400782013686
1.4056695992179864
1.380254154447703
1.3558162267839686
1.332355816226784
1.3157380254154447
1.3020527859237536
1.2864125122189638
1.2697947214076246
1.2531769305962854
1.2365591397849462
1.2209188660801564
1.206256109481916
1.1935483870967742
1.181818181818182
1.1720430107526882
1.163245356793744
1.1583577712609971
1.155425219941349
1.1505376344086022
1.144672531769306
1.13880742913001
1.133919843597263
1.1290322580645162
1.126099706744868
1.1231671554252198
1.1192570869990224
1.1143695014662756
1.1094819159335287
1.104594330400782
1.1026392961876832
1.1016617790811338
1.0987292277614855
1.0948191593352885
1.088954056695992
1.083088954056696
1.0762463343108504
1.072336265884653
1.0733137829912025
1.086021505376344
1.115347018572825
1.1671554252199414
1.2316715542521994
1.3147605083088951
1.43108504398827
1.5747800586510263
1.737047898338221
1.9090909090909087
2.081133919843597
2.24633431085044
2.398826979472141
2.533724340175953
2.6480938416422286
2.740957966764418
2.814271749755621
2.8611925708699903
2.889540566959922
2.911045943304008
2.9237536656891496
2.9266862170087977
2.918866080156403
2.9012707722385143
2.873900293255132
2.8367546432062563
2.788856304985337
2.7331378299120237
2.6695992179863146
2.6070381231671558
2.5434995112414467
2.4731182795698925
2.401759530791789
2.3304007820136854
2.260997067448681
2.196480938416422
2.1378299120234603
2.085043988269794
2.040078201368524
2.0009775171065494
1.9667644183773216
1.9374389051808407
1.9130009775171064
1.8914956011730208
1.8699902248289344
1.8484848484848484
1.826001955034213
1.8025415444770283
1.7771260997067448
1.7487781036168133
1.7194525904203324
1.689149560117302
1.6578690127077225
1.6256109481915937
1.598240469208211
1.5728250244379276
1.543499511241447
1.5131964809384164
1.4819159335288368
1.4516129032258065
1.4222873900293256
1.392961876832845
1.3655913978494625
1.3411534701857282
1.3176930596285434
1.295210166177908
1.273704789833822
1.2570869990224829
1.2434017595307918
1.2267839687194526
1.209188660801564
1.1925708699902249
1.176930596285435
1.1622678396871946
1.1495601173020529
1.1378299120234605
1.1270772238514175
1.1163245356793745
1.1065493646138806
1.1006842619745845
1.0977517106549364
1.0928641251221896
1.0879765395894427
1.0840664711632453
1.0801564027370478
1.0762463343108504
1.0713587487781036
1.0654936461388074
1.0596285434995112
1.0547409579667644
1.0498533724340176
1.04594330400782
1.0449657869012707
1.04594330400782
1.0439882697947214
1.0391006842619743
1.0342130987292275
1.029325513196481
1.0254154447702837
1.0263929618768328
1.0371456500488758
1.0625610948191593
1.1094819159335287
1.1827956989247312
1.2668621700879763
1.367546432062561
1.500488758553275
1.6578690127077225
1.8299120234604105
2.006842619745845
2.179863147605083
2.3411534701857284
2.486803519061584
2.613880742913001
2.720430107526881
2.807429130009776
2.866080156402737
2.9042033235581624
2.936461388074292
2.959921798631476
2.973607038123167
2.9765395894428157
2.9687194525904204
2.9501466275659824
2.920821114369501
2.8826979472140764
2.834799608993157
2.776148582600196
2.7096774193548385
2.643206256109482
2.575757575757576
2.5004887585532747
2.423264907135875
2.347996089931574
2.274682306940372
2.207233626588465
2.145650048875855
2.090909090909091
2.043010752688172
2.0019550342130987
1.9667644183773216
1.93841642228739
1.913978494623656
1.8905180840664717
1.8670576735092863
