ppg
2.6715542521994133
2.736070381231672
2.787878787878788
2.8299120234604107
2.859237536656892
2.878787878787879
2.89247311827957
2.8993157380254155
2.898338220918866
2.8914956011730206
2.87683284457478
2.854349951124145
2.825024437927664
2.792766373411535
2.758553274682307
2.718475073313783
2.6715542521994133
2.621700879765396
2.572825024437928
2.52297165200391
2.474095796676442
2.4271749755620724
2.3812316715542523
2.3362658846529816
2.2981427174975564
2.269794721407625
2.24633431085044
2.2218963831867056
2.1955034213098727
2.16911045943304
2.1378299120234603
2.1094819159335287
2.086021505376344
2.065493646138808
2.050830889540567
2.043010752688172
2.0391006842619745
2.0332355816226784
2.0234604105571847
2.0117302052785924
1.997067448680352
1.9833822091886608
1.9716520039100685
1.9618768328445748
1.9521016617790807
1.943304007820137
1.9345063538611929
1.9257086999022484
1.916911045943304
1.9100684261974583
1.8993157380254155
1.8807429130009776
1.858260019550342
1.833822091886608
1.8103616813294232
1.7898338220918866
1.772238514173998
1.7575757575757576
1.7409579667644184
1.7253176930596286
1.7135874877810362
1.7057673509286413
1.7018572825024438
1.699902248289345
1.6989247311827955
1.699902248289345
1.704789833822092
1.7165200391006843
1.7409579667644184
1.780058651026393
1.8347996089931573
1.902248289345064
1.9804496578690127
2.070381231671554
2.15347018572825
2.23069403714565
2.318670576735093
2.409579667644184
2.4975562072336266
2.579667644183773
2.652003910068426
2.7126099706744866
2.760508308895406
2.793743890518084
2.814271749755621
2.825024437927664
2.8240469208211145
2.814271749755621
2.80058651026393
2.78494623655914
2.763440860215054
2.735092864125122
2.7008797653958942
2.658846529814272
2.608993157380254
2.5542521994134897
2.498533724340176
2.441837732160313
2.389051808406647
2.3421309872922778
2.2981427174975564
2.2561094819159337
2.2170087976539588
2.179863147605083
2.145650048875855
2.115347018572825
2.0869990224828934
2.06158357771261
2.040078201368524
2.0205278592375366
2.0019550342130987
1.916911045943304
1.801564027370479
1.7390029325513197
1.7008797653958945
1.6744868035190617
1.656891495601173
1.643206256109482
1.6314760508308896
1.6207233626588464
1.6109481915933528
1.6011730205278591
1.5913978494623655
1.581622678396872
1.5747800586510263
1.56891495601173
1.5610948191593352
1.547409579667644
1.5268817204301075
1.5024437927663734
1.4760508308895406
1.4535679374389052
1.4379276637341154
1.4252199413489737
1.4164222873900294
1.412512218963832
1.4105571847507332
1.4066471163245358
1.4027370478983383
1.4007820136852396
1.3998044965786902
1.3988269794721409
1.3988269794721409
1.3988269794721409
1.4007820136852396
1.4066471163245358
1.4213098729227762
1.452590420332356
1.4916911045943304
1.543499511241447
1.6187683284457477
1.7126099706744868
1.8211143695014664
1.9364613880742916
2.0557184750733137
2.16911045943304
2.270772238514174
2.361681329423265
2.439882697947214
2.505376344086021
2.557184750733138
2.590420332355816
2.608993157380254
2.6207233626588464
2.6236559139784945
2.618768328445748
2.6041055718475072
2.58455522971652
2.5610948191593352
2.530791788856305
2.496578690127077
2.4604105571847508
2.419354838709677
2.3743890518084068
2.3313782991202348
2.286412512218964
2.2404692082111435
2.193548387096774
2.146627565982405
2.099706744868035
2.0547409579667644
2.013685239491691
1.9736070381231672
1.935483870967742
1.8973607038123168
1.8592375366568916
1.828934506353861
1.8064516129032255
1.7859237536656891
1.7653958944281525
1.7458455522971652
1.7272727272727273
1.710654936461388
1.6979472140762464
1.689149560117302
1.6852394916911049
1.683284457478006
1.6793743890518085
1.675464320625611
1.6715542521994136
1.664711632453568
1.6559139784946235
1.6471163245356797
1.6383186705767352
1.6285434995112416
1.619745845552297
1.6099706744868034
1.6001955034213098
1.5913978494623655
1.5796676441837731
1.5669599217986314
1.555229716520039
1.5405669599217986
1.521016617790811
1.501466275659824
1.482893450635386
1.466275659824047
1.4535679374389052
1.4418377321603129
1.4320625610948192
1.4222873900293256
1.41544477028348
1.4115347018572826
1.4115347018572826
1.4164222873900294
1.43108504398827
1.4613880742913
1.5141739980449658
1.590420332355816
1.6823069403714566
1.7898338220918866
1.9071358748778104
2.026392961876833
2.1407624633431084
2.2453567937438903
2.3391984359726297
2.412512218963832
2.4701857282502444
2.52297165200391
2.563049853372434
2.590420332355816
2.6070381231671558
2.6129032258064515
2.6080156402737047
2.5962854349951123
2.5806451612903225
2.5640273704789838
2.541544477028348
2.5131964809384164
2.482893450635386
2.444770283479961
2.396871945259042
2.347018572825025
2.2991202346041058
2.249266862170088
2.1974584555229715
2.1485826001955037
2.0957966764418376
2.043010752688172
1.9980449657869013
1.956989247311828
1.921798631476051
1.8905180840664717
1.858260019550342
1.8299120234604105
1.8064516129032255
1.7859237536656891
1.7653958944281525
1.7458455522971652
1.7272727272727273
1.710654936461388
1.6979472140762464
1.689149560117302
1.6852394916911049
1.6803519061583578
1.6735092864125125
1.6656891495601174
1.656891495601173
1.6480938416422288
1.6383186705767352
1.6285434995112416
1.619745845552297
1.6099706744868034
1.6001955034213098
1.5913978494623655
1.576735092864125
1.560117302052786
1.542521994134897
1.5249266862170088
1.5083088954056696
1.4936461388074291
1.4809384164222874
1.4701857282502444
1.4604105571847508
1.447702834799609
1.4349951124144673
1.423264907135875
1.41544477028348
1.4115347018572826
1.409579667644184
1.4086021505376345
1.4086021505376345
1.4105571847507332
1.4203323558162269
1.444770283479961
1.4868035190615836
1.5503421309872922
1.6314760508308896
1.7282502443792769
1.8387096774193548
1.9550342130987293
2.0576735092864125
2.1495601173020527
2.244379276637341
2.334310850439883
2.412512218963832
2.4750733137829912
2.520039100684262
2.550342130987292
2.5698924731182795
2.582600195503421
2.5884652981427174
2.589442815249267
2.58455522971652
2.5747800586510263
2.5610948191593352
2.539589442815249
2.505376344086021
2.4604105571847508
2.409579667644184
2.357771260997068
2.3059628543499517
2.2521994134897363
2.19941348973607
2.1495601173020527
2.1006842619745845
2.0576735092864125
2.0195503421309877
1.981427174975562
1.943304007820137
1.906158357771261
1.868035190615836
1.83088954056696
1.7927663734115349
1.7575757575757576
1.7302052785923754
1.7126099706744868
1.6989247311827955
1.6901270772238517
1.683284457478006
1.675464320625611
1.6666666666666667
1.656891495601173
1.6480938416422288
1.6383186705767352
1.6265884652981428
1.608993157380254
1.585532746823069
1.560117302052786
1.5327468230694037
1.5034213098729228
1.47702834799609
1.4535679374389052
1.4301075268817205
1.409579667644184
1.3900293255131966
1.3724340175953078
1.3470185728250244
1.3206256109481915
1.3020527859237536
1.2825024437927663
1.262952101661779
1.2424242424242424
1.227761485826002
1.2150537634408602
1.195503421309873
1.1730205278592376
1.152492668621701
1.1319648093841643
1.1143695014662756
1.1026392961876832
1.1016617790811338
1.1133919843597262
1.142717497556207
1.195503421309873
1.260019550342131
1.335288367546432
1.43108504398827
1.5386119257087
1.6529814271749756
1.7712609970674489
1.8856304985337244
1.991202346041056
2.0869990224828934
2.1730205278592374
2.24633431085044
2.303030303030303
2.3440860215053765
2.367546432062561
2.376344086021505
2.378299120234604
2.3714565004887587
2.3528836754643208
2.3255131964809386
2.294232649071359
2.2561094819159337
2.212121212121212
2.164222873900293
2.115347018572825
2.065493646138808
2.0205278592375366
1.9775171065493649
1.9286412512218964
1.873900293255132
1.8162267839687196
1.7595307917888563
1.7057673509286413
1.653958944281525
1.603128054740958
1.5571847507331378
1.5190615835777126
1.4848484848484849
1.452590420332356
1.426197458455523
1.4056695992179864
1.3851417399804498
1.364613880742913
1.3440860215053765
1.3284457478005864
1.3206256109481915
1.3196480938416422
1.324535679374389
1.3294232649071358
1.3313782991202343
1.332355816226784
1.335288367546432
1.3343108504398826
1.3235581622678396
1.3079178885630498
1.2903225806451613
1.2717497556207231
1.2551319648093842
1.2443792766373412
1.2355816226783969
1.2287390029325511
1.2209188660801564
1.206256109481916
1.1886608015640274
1.1749755620723363
1.163245356793744
1.147605083088954
1.1319648093841643
1.1192570869990224
1.110459433040078
1.1055718475073313
1.0977517106549364
1.088954056695992
1.0821114369501466
1.0762463343108504
1.0762463343108504
1.083088954056696
1.1016617790811338
1.13880742913001
1.2003910068426198
1.284457478005865
1.3870967741935485
1.504398826979472
1.6265884652981428
1.747800586510264
1.8641251221896384
1.970674486803519
2.064516129032258
2.146627565982405
2.210166177908113
2.254154447702835
2.289345063538612
2.3118279569892475
2.32355816226784
2.32355816226784
2.3167155425219943
2.303030303030303
2.278592375366569
2.243401759530792
2.20039100684262
2.1485826001955037
2.0948191593352883
2.040078201368524
1.9775171065493649
1.90811339198436
1.8377321603128052
1.775171065493646
1.7165200391006843
1.656891495601173
1.5943304007820136
1.5268817204301075
1.4604105571847508
1.396871945259042
1.335288367546432
1.2834799608993157
1.2404692082111437
1.905180840664712
1.8807429130009776
1.8592375366568916
1.8387096774193548
1.822091886608016
1.8035190615835777
1.7878787878787878
1.780058651026393
1.7761485826001957
1.7673509286412512
1.7565982404692082
1.7517106549364614
1.7429130009775171
1.7253176930596286
1.7067448680351909
1.6911045943304008
1.6764418377321604
1.6627565982404693
1.6500488758553276
1.6334310850439884
1.611925708699902
1.5913978494623655
1.5786901270772238
1.56891495601173
1.5571847507331378
1.544477028347996
1.5317693059628543
1.5190615835777126
1.5063538611925709
1.4936461388074291
1.4809384164222874
1.4682306940371457
1.4545454545454546
1.4379276637341154
1.4203323558162269
1.4086021505376345
1.4027370478983383
1.4056695992179864
1.4242424242424243
1.4623655913978495
1.5268817204301075
1.6138807429130009
1.7253176930596286
1.8592375366568916
2.007820136852395
2.166177908113392
2.3274682306940373
2.463343108504399
2.576735092864125
2.6852394916911044
2.7751710654936463
2.8396871945259043
2.881720430107527
2.903225806451613
2.9071358748778104
2.8993157380254155
2.8826979472140764
2.8611925708699903
2.8377321603128056
2.806451612903226
2.7673509286412514
2.7253176930596283
2.675464320625611
2.6148582600195502
2.548387096774193
2.482893450635386
2.410557184750733
2.332355816226784
2.254154447702835
2.1788856304985336
2.1094819159335287
2.0449657869012707
1.9931573802541545
1.948191593352884
1.8993157380254155
1.855327468230694
1.8201368523949168
1.7898338220918866
1.7644183773216031
1.7487781036168133
1.7409579667644184
1.737047898338221
1.7350928641251222
1.7341153470185728
1.7341153470185728
1.7302052785923754
1.7223851417399805
1.7086999022482894
1.6920821114369502
1.6803519061583578
1.6715542521994136
1.6637341153470186
1.656891495601173
1.6471163245356797
1.635386119257087
1.6226783968719452
1.6099706744868034
1.6011730205278591
1.5933528836754642
1.5826001955034212
1.5708699902248289
1.5581622678396871
1.542521994134897
1.521016617790811
1.500488758553275
1.4838709677419355
1.469208211143695
1.455522971652004
1.4418377321603129
1.4291300097751711
1.4193548387096775
1.4105571847507332
1.3998044965786902
1.3919843597262953
1.3304007820136852
1.2570869990224829
1.2639296187683284
1.3313782991202343
1.444770283479961
1.5923753665689149
1.7595307917888563
1.9374389051808407
2.0948191593352883
2.231671554252199
2.36950146627566
2.495601173020528
2.6021505376344085
2.684261974584555
2.739980449657869
2.7722385141739982
2.7839687194525906
2.779081133919844
2.7624633431085046
2.739980449657869
2.7067448680351904
2.664711632453568
2.6177908113391983
2.565982404692082
2.5112414467253177
2.447702834799609
2.376344086021505
2.304007820136853
2.231671554252199
2.1593352883675463
2.083088954056696
2.005865102639296
1.9305962854349952
1.868035190615836
1.8142717497556209
1.758553274682307
1.7018572825024438
1.6480938416422288
1.603128054740958
1.565982404692082
1.5405669599217986
1.5278592375366569
1.521994134897361
1.5151515151515151
1.504398826979472
1.487781036168133
1.4721407624633431
1.4613880742913
1.4486803519061584
1.4389051808406648
1.434017595307918
1.4281524926686218
1.4252199413489737
1.423264907135875
1.41544477028348
1.4037145650048877
1.391006842619746
1.3773216031280548
1.367546432062561
1.3548387096774193
1.3372434017595307
1.3176930596285434
1.2971652003910068
1.2795698924731185
1.260019550342131
1.2394916911045943
1.2218963831867058
1.206256109481916
1.187683284457478
1.163245356793744
1.1329423264907137
1.1036168132942326
1.0821114369501466
1.0606060606060606
1.0381231671554252
1.0273704789833822
1.0361681329423265
1.0733137829912025
1.142717497556207
1.249266862170088
1.3890518084066472
1.5532746823069403
1.7331378299120237
1.8885630498533723
2.0234604105571847
2.163245356793744
2.2952101661779083
2.4115347018572826
2.506353861192571
2.578690127077224
2.633431085043988
2.675464320625611
2.7038123167155423
2.717497556207233
2.720430107526881
2.7116324535679373
2.69208211143695
2.664711632453568
2.625610948191593
2.5698924731182795
2.498533724340176
2.423264907135875
2.3489736070381237
2.275659824046921
2.203323558162268
2.1270772238514173
2.042033235581622
1.9560117302052784
1.8836754643206255
1.822091886608016
1.7624633431085044
1.7038123167155426
1.6529814271749756
1.6129032258064515
1.5786901270772238
1.5503421309872922
1.5327468230694037
1.517106549364614
1.501466275659824
1.4868035190615836
1.4721407624633431
1.4613880742913
1.4486803519061584
1.4349951124144673
1.4213098729227762
1.4066471163245358
1.3919843597262953
1.3782991202346042
1.3636363636363635
1.348973607038123
1.3343108504398826
1.3196480938416422
1.305962854349951
1.295210166177908
1.2864125122189638
1.2746823069403714
1.2609970674486803
1.2473118279569892
1.2365591397849462
1.2316715542521994
1.2258064516129032
1.2150537634408602
1.2023460410557183
1.1886608015640274
1.1749755620723363
1.160312805474096
1.1466275659824048
1.1290322580645162
1.1085043988269794
1.0909090909090908
1.0791788856304985
1.0762463343108504
1.0928641251221896
1.1378299120234605
1.2150537634408602
1.3255131964809383
1.4633431085043989
1.6265884652981428
1.7810361681329423
1.9266862170087975
2.086021505376344
2.2385141739980448
2.372434017595308
2.482893450635386
2.570869990224829
2.636363636363636
2.6803519061583576
2.705767350928641
2.718475073313783
2.721407624633431
2.7116324535679373
2.69208211143695
2.668621700879765
2.638318670576735
2.5972629521016617
2.548387096774193
2.4946236559139785
2.4389051808406648
2.378299120234604
2.3118279569892475
2.242424242424242
2.1681329423264906
2.0840664711632453
2.005865102639296
1.9345063538611929
1.8621700879765395
1.796676441837732
1.7350928641251222
1.675464320625611
1.624633431085044
1.58455522971652
1.5493646138807429
1.521016617790811
1.5034213098729228
1.4946236559139785
1.490713587487781
1.4887585532746823
1.487781036168133
1.4868035190615836
1.478983382209189
1.4643206256109482
1.4506353861192571
1.435972629521017
1.4213098729227762
1.4066471163245358
1.3919843597262953
1.3782991202346042
1.3636363636363635
1.3528836754643203
1.3440860215053765
1.332355816226784
1.3186705767350928
1.3049853372434017
1.2873900293255132
1.267839687194526
1.2434017595307918
1.217008797653959
1.1925708699902249
1.1691104594330402
1.1505376344086022
1.1378299120234605
1.1280547409579669
1.115347018572825
1.1016617790811338
1.0879765395894427
1.0772238514173995
1.075268817204301
1.086021505376344
1.1124144672531768
1.1622678396871946
1.2375366568914956
1.3401759530791788
1.4672531769305963
1.5923753665689149
1.7233626588465298
1.8797653958944285
2.0410557184750733
2.1974584555229715
2.3411534701857284
2.463343108504399
2.5650048875855327
2.644183773216031
2.701857282502444
2.73802541544477
2.7565982404692084
2.758553274682307
2.744868035190616
2.7233626588465296
2.697947214076246
2.6715542521994133
2.636363636363636
2.589442815249267
2.533724340175953
2.466275659824047
2.3919843597262958
2.315738025415445
2.2531769305962857
2.201368523949169
2.1436950146627565
2.0821114369501466
2.0195503421309877
1.9608993157380252
1.903225806451613
1.8455522971652003
1.7917888563049853
1.747800586510264
1.7116324535679377
1.6793743890518085
1.6490713587487782
1.6265884652981428
1.6158357771260996
1.607038123167155
1.595307917888563
1.585532746823069
1.573802541544477
1.5610948191593352
1.5513196480938416
1.5395894428152492
1.5268817204301075
1.5131964809384164
1.499511241446725
1.4887585532746823
1.4868035190615836
1.4936461388074291
1.500488758553275
1.5034213098729228
1.501466275659824
1.4936461388074291
1.482893450635386
1.4633431085043989
1.4320625610948192
1.3949169110459434
1.3626588465298142
1.335288367546432
1.3118279569892473
1.2961876832844574
1.281524926686217
1.2639296187683284
1.2473118279569892
1.2326490713587488
1.2179863147605083
1.2072336265884651
1.2052785923753666
1.2150537634408602
1.2404692082111437
1.2883675464320623
1.3587487781036167
1.435972629521017
1.5278592375366569
1.651026392961877
1.7976539589442817
1.9589442815249267
2.124144672531769
2.281524926686217
2.4271749755620724
2.5562072336265884
2.662756598240469
2.747800586510264
2.8084066471163247
2.8455522971652005
2.860215053763441
2.8611925708699903
2.8582600195503423
2.8455522971652005
2.825024437927664
2.80058651026393
2.774193548387097
2.739980449657869
2.6911045943304006
2.6285434995112413
2.5513196480938416
2.466275659824047
2.389051808406647
2.318670576735093
2.247311827956989
2.176930596285435
2.1065493646138806
2.0391006842619745
1.9775171065493649
1.921798631476051
1.8758553274682308
1.8387096774193548
1.8064516129032255
1.7761485826001957
1.7468230694037146
1.721407624633431
1.6979472140762464
1.6764418377321604
1.6578690127077225
1.6422287390029326
1.6265884652981428
1.611925708699902
1.5943304007820136
1.5747800586510263
1.5620723362658846
1.552297165200391
1.547409579667644
1.5483870967741935
1.5454545454545454
1.5366568914956011
1.5249266862170088
1.512218963831867
1.498533724340176
1.4848484848484849
1.4711632453567938
1.457478005865103
1.4428152492668622
1.4291300097751711
1.41544477028348
1.4007820136852396
1.3900293255131966
1.3743890518084063
1.3450635386119256
1.316715542521994
1.2913000977517106
1.2688172043010753
1.2502443792766371
1.2375366568914956
1.2346041055718475
1.2404692082111437
1.2531769305962854
1.281524926686217
1.3235581622678396
1.383186705767351
1.469208211143695
1.5826001955034212
1.7204301075268815
1.8748778103616808
2.040078201368524
2.203323558162268
2.3528836754643208
2.4838709677419355
2.595307917888563
2.686217008797654
2.7565982404692084
2.8025415444770285
2.8289345063538613
2.8455522971652005
2.8533724340175954
2.857282502443793
2.852394916911046
2.835777126099707
2.8103616813294234
2.7722385141739982
2.7253176930596283
2.6666666666666665
2.5943304007820136
2.52297165200391
2.455522971652004
2.3870967741935485
2.317693059628544
2.247311827956989
2.176930596285435
2.1065493646138806
2.0391006842619745
1.9775171065493649
1.921798631476051
1.8729227761485825
1.83088954056696
1.7956989247311828
1.7673509286412512
1.7458455522971652
1.732160312805474
1.7253176930596286
1.7174975562072337
1.7067448680351909
1.6979472140762464
1.6901270772238517
1.6793743890518085
1.6705767350928642
1.6588465298142718
1.6422287390029326
1.6265884652981428
1.6080156402737047
1.5884652981427174
1.5718475073313782
1.5571847507331378
1.542521994134897
1.5278592375366569
1.5141739980449658
1.499511241446725
1.4858260019550342
1.4711632453567938
1.457478005865103
1.4428152492668622
1.4320625610948192
1.423264907135875
1.412512218963832
1.3998044965786902
1.3861192570869991
1.3685239491691104
1.348973607038123
1.332355816226784
1.316715542521994
1.3020527859237536
1.2913000977517106
1.289345063538612
1.295210166177908
1.3088954056695992
1.3372434017595307
1.3870967741935485
1.4604105571847508
1.564027370478983
1.696969696969697
1.8523949169110456
2.021505376344086
2.190615835777126
2.3499511241446727
2.496578690127077
2.6265884652981426
2.7233626588465296
2.788856304985337
2.8396871945259043
2.875855327468231
2.89345063538612
2.895405669599218
2.8856304985337244
2.8670576735092865
2.843597262952102
2.8103616813294234
2.7653958944281527
2.7145650048875853
2.664711632453568
2.611925708699902
2.549364613880743
2.482893450635386
2.4144672531769307
2.345063538611926
2.274682306940372
2.204301075268817
2.133919843597263
2.067448680351906
2.0087976539589443
1.9589442815249267
1.9159335288367547
1.8836754643206255
1.857282502443793
1.833822091886608
1.818181818181818
1.8103616813294232
1.8064516129032255
1.7976539589442817
1.7790811339198436
1.758553274682307
1.7419354838709675
1.7223851417399805
1.7057673509286413
1.6979472140762464
1.694037145650049
1.6842619745845553
1.6695992179863148
1.651026392961877
1.6207233626588464
1.5835777126099706
1.555229716520039
1.5347018572825024
1.5180840664711632
1.5034213098729228
1.4897360703812317
1.4760508308895406
1.4652981427174976
1.456500488758553
1.4457478005865103
1.434017595307918
1.4173998044965788
1.3998044965786902
1.3841642228739004
1.3695014662756595
1.3558162267839686
1.3421309872922775
1.3284457478005864
1.3147605083088951
1.3049853372434017
1.2971652003910068
1.2864125122189638
1.2805474095796676
1.2873900293255132
1.3147605083088951
1.3685239491691104
1.4486803519061584
1.555229716520039
1.6842619745845553
1.828934506353861
1.978494623655914
2.1065493646138806
2.219941348973607
2.337243401759531
2.442815249266862
2.5288367546432062
2.5943304007820136
2.644183773216031
2.675464320625611
2.6911045943304006
2.69208211143695
2.679374389051808
2.6529814271749754
2.613880742913001
2.570869990224829
2.525904203323558
2.47702834799609
2.4222873900293256
2.361681329423265
2.2981427174975564
2.232649071358749
2.167155425219941
2.0977517106549364
2.0127077223851417
1.9403714565004888
1.8875855327468232
1.8377321603128052
1.7927663734115349
1.7468230694037146
1.7067448680351909
1.6735092864125125
1.6441837732160314
1.6158357771260996
1.5913978494623655
1.5728250244379276
1.5571847507331378
1.542521994134897
1.5288367546432062
1.5151515151515151
1.5053763440860215
1.4965786901270772
1.4858260019550342
1.474095796676442
1.4613880742913
1.4486803519061584
1.4389051808406648
1.434017595307918
1.4281524926686218
1.418377321603128
1.4066471163245358
1.393939393939394
1.3841642228739004
1.3763440860215057
1.3587487781036167
1.3372434017595307
1.3157380254154447
1.295210166177908
1.278592375366569
1.2639296187683284
1.249266862170088
1.2355816226783969
1.2218963831867058
1.2052785923753666
1.1798631476050832
1.1544477028347997
1.1348973607038124
1.118279569892473
1.1065493646138806
1.1006842619745845
1.1016617790811338
1.115347018572825
1.1515151515151516
1.217008797653959
1.3128054740957966
1.434017595307918
1.5708699902248289
1.7028347996089932
1.828934506353861
1.964809384164223
2.102639296187683
2.228739002932551
2.335288367546432
2.421309872922776
2.487781036168133
2.5347018572825024
2.5610948191593352
2.5747800586510263
2.5777126099706744
2.56891495601173
2.5513196480938416
2.5288367546432062
2.504398826979472
2.472140762463343
