ppg
2.8181818181818183
2.7839687194525906
2.7497556207233624
2.713587487781036
2.674486803519061
2.631476050830889
2.581622678396872
2.5239491691104594
2.458455522971652
2.383186705767351
2.2991202346041058
2.209188660801564
2.117302052785924
2.037145650048876
1.964809384164223
1.889540566959922
1.818181818181818
1.7565982404692082
1.7086999022482894
1.675464320625611
1.6559139784946235
1.6471163245356797
1.64613880742913
1.6480938416422288
1.6500488758553276
1.6500488758553276
1.6490713587487782
1.64613880742913
1.6373411534701858
1.6217008797653958
1.6001955034213098
1.5757575757575757
1.5503421309872922
1.5239491691104594
1.495601173020528
1.466275659824047
1.435972629521017
1.404692082111437
1.380254154447703
1.3587487781036167
1.3343108504398826
1.3088954056695992
1.2834799608993157
1.2580645161290325
1.2336265884652982
1.2101661779081134
1.187683284457478
1.166177908113392
1.147605083088954
1.130987292277615
1.1173020527859236
1.110459433040078
1.1065493646138806
1.1006842619745845
1.0948191593352885
1.0899315738025417
1.0869990224828934
1.086021505376344
1.0850439882697946
1.0850439882697946
1.0840664711632453
1.0811339198435972
1.0772238514173995
1.075268817204301
1.0713587487781036
1.06158357771261
1.0527859237536656
1.053763440860215
1.0733137829912025
1.1231671554252198
1.2121212121212122
1.3450635386119256
1.520039100684262
1.7272727272727273
1.9521016617790807
2.179863147605083
2.3704789833822093
2.527859237536657
2.677419354838709
2.8025415444770285
2.897360703812317
2.960899315738025
2.9980449657869013
3.013685239491691
3.013685239491691
3.003910068426197
2.986314760508309
2.962854349951124
2.936461388074292
2.9071358748778104
2.87683284457478
2.844574780058651
2.811339198435973
2.776148582600196
2.73802541544477
2.696969696969697
2.650048875855328
2.595307917888563
2.532746823069404
2.4613880742913
2.3812316715542523
2.304985337243402
2.2297165200391005
2.144672531769306
2.0576735092864125
1.975562072336266
1.902248289345064
1.8387096774193548
1.7888563049853372
1.7517106549364614
1.7243401759530792
1.70772238514174
1.6979472140762464
1.694037145650049
1.6920821114369502
1.689149560117302
1.686217008797654
1.6803519061583578
1.6715542521994136
1.6598240469208212
1.6451612903225807
1.6275659824046922
1.6050830889540566
1.5786901270772238
1.5503421309872922
1.520039100684262
1.4936461388074291
1.469208211143695
1.4418377321603129
1.41544477028348
1.3890518084066472
1.3616813294232648
1.3362658846529814
1.3118279569892473
1.2873900293255132
1.2649071358748778
1.241446725317693
1.219941348973607
1.206256109481916
1.1964809384164223
1.18475073313783
1.1730205278592376
1.163245356793744
1.1573802541544478
1.1544477028347997
1.1515151515151516
1.1495601173020529
1.147605083088954
1.1456500488758554
1.142717497556207
1.1397849462365592
1.1397849462365592
1.1397849462365592
1.1348973607038124
1.126099706744868
1.1133919843597262
1.1006842619745845
1.093841642228739
1.099706744868035
1.1300097751710656
1.1945259042033236
1.300097751710655
1.4486803519061584
1.606060606060606
1.7771260997067448
1.988269794721408
2.2130987292277613
2.429130009775171
2.622678396871945
2.78494623655914
2.9100684261974585
3.0019550342130987
3.064516129032258
3.101661779081134
3.118279569892473
3.120234604105572
3.110459433040078
3.09188660801564
3.069403714565005
3.0449657869012707
3.016617790811339
2.9853372434017595
2.951124144672532
2.8836754643206257
2.7996089931573804
2.7370478983382207
2.684261974584555
2.633431085043988
2.58455522971652
2.533724340175953
2.472140762463343
2.398826979472141
2.318670576735093
2.232649071358749
2.1436950146627565
2.056695992179863
1.9745845552297163
1.900293255131965
1.8377321603128052
1.7869012707722385
1.747800586510264
1.721407624633431
1.7057673509286413
1.6959921798631477
1.689149560117302
1.6842619745845553
1.6793743890518085
1.6744868035190617
1.667644183773216
1.6588465298142718
1.6451612903225807
1.6275659824046922
1.606060606060606
1.5865102639296187
1.5679374389051808
1.544477028347996
1.5190615835777126
1.4926686217008798
1.4643206256109482
1.4349951124144673
1.404692082111437
1.3763440860215057
1.3479960899315735
1.3196480938416422
1.29227761485826
1.2668621700879763
1.2473118279569892
1.2326490713587488
1.2160312805474096
1.1994134897360704
1.1827956989247312
1.1691104594330402
1.1593352883675463
1.1505376344086022
1.1436950146627567
1.13880742913001
1.1348973607038124
1.130987292277615
1.130987292277615
1.1319648093841643
1.1300097751710656
1.1270772238514175
1.1221896383186705
1.1163245356793745
1.110459433040078
1.1026392961876832
1.0928641251221896
1.0821114369501466
1.075268817204301
1.0791788856304985
1.0977517106549364
1.13880742913001
1.2140762463343109
1.3313782991202343
1.487781036168133
1.6793743890518085
1.8944281524926687
2.115347018572825
2.3274682306940373
2.517106549364614
2.675464320625611
2.7996089931573804
2.8905180840664717
2.946236559139785
2.9765395894428157
2.9960899315738025
3.002932551319648
3.0
2.991202346041056
2.9765395894428157
2.956011730205278
2.930596285434995
2.902248289345064
2.8719452590420333
2.838709677419355
2.803519061583578
2.7673509286412514
2.727272727272727
2.6832844574780057
2.634408602150537
2.578690127077224
2.5131964809384164
2.4389051808406648
2.357771260997068
2.269794721407625
2.1788856304985336
2.0879765395894427
2.0009775171065494
1.927663734115347
1.8670576735092863
1.8103616813294232
1.7624633431085044
1.7243401759530792
1.6979472140762464
1.6813294232649072
1.6715542521994136
1.664711632453568
1.6598240469208212
1.6549364613880744
1.6490713587487782
1.6422287390029326
1.6314760508308896
1.6158357771260996
1.5962854349951123
1.5728250244379276
1.5464320625610948
1.520039100684262
1.4936461388074291
1.4643206256109482
1.4349951124144673
1.404692082111437
1.3763440860215057
1.3479960899315735
1.324535679374389
1.3049853372434017
1.281524926686217
1.2570869990224829
1.2316715542521994
1.2072336265884651
1.1837732160312806
1.163245356793744
1.1456500488758554
1.130987292277615
1.1192570869990224
1.110459433040078
1.1055718475073313
1.1036168132942326
1.0987292277614855
1.093841642228739
1.088954056695992
1.0840664711632453
1.0791788856304985
1.0742913000977516
1.0684261974584557
1.06158357771261
1.0557184750733135
1.050830889540567
1.0439882697947214
1.0391006842619743
1.0361681329423265
1.0342130987292275
1.043010752688172
1.0742913000977516
1.1397849462365592
1.2473118279569892
1.3978494623655917
1.5865102639296187
1.801564027370479
2.027370478983382
2.2482893450635384
2.426197458455523
2.56891495601173
2.701857282502444
2.8103616813294234
2.8914956011730206
2.9472140762463344
2.9804496578690127
2.9960899315738025
2.9980449657869013
2.9902248289345064
2.975562072336266
2.9550342130987293
2.9286412512218964
2.900293255131965
2.8690127077223853
2.835777126099707
2.801564027370479
2.763440860215054
2.721407624633431
2.674486803519061
2.622678396871945
2.563049853372434
2.4946236559139785
2.420332355816227
2.3391984359726297
2.2629521016617797
2.187683284457478
2.102639296187683
2.0146627565982405
1.9305962854349952
1.8533724340175952
1.7869012707722385
1.7341153470185728
1.6950146627565983
1.6686217008797657
1.6529814271749756
1.6441837732160314
1.640273704789834
1.6383186705767352
1.6363636363636365
1.632453567937439
1.6256109481915937
1.6158357771260996
1.6021505376344083
1.58455522971652
1.563049853372434
1.5376344086021505
1.509286412512219
1.479960899315738
1.4496578690127078
1.423264907135875
1.4007820136852396
1.375366568914956
1.3479960899315735
1.3186705767350928
1.289345063538612
1.2619745845552297
1.2355816226783969
1.2111436950146628
1.187683284457478
1.1671554252199414
1.1495601173020529
1.133919843597263
1.1231671554252198
1.1163245356793745
1.10752688172043
1.0987292277614855
1.0909090909090908
1.0840664711632453
1.0772238514173995
1.0713587487781036
1.0664711632453567
1.06158357771261
3.016617790811339
3.007820136852395
2.9902248289345064
2.9657869012707723
2.93841642228739
2.9071358748778104
2.873900293255132
2.838709677419355
2.80058651026393
2.7614858260019552
2.719452590420332
2.674486803519061
2.624633431085044
2.567937438905181
2.5112414467253177
2.450635386119257
2.377321603128055
2.2952101661779083
2.2082111436950145
2.118279569892473
2.029325513196481
1.946236559139785
1.870967741935484
1.8074291300097751
1.7556207233626588
1.7165200391006843
1.6901270772238517
1.675464320625611
1.667644183773216
1.6637341153470186
1.66177908113392
1.6598240469208212
1.656891495601173
1.6520039100684265
1.6441837732160314
1.632453567937439
1.6158357771260996
1.595307917888563
1.5718475073313782
1.5503421309872922
1.5288367546432062
1.501466275659824
1.4721407624633431
1.4408602150537635
1.4086021505376345
1.375366568914956
1.343108504398827
1.3128054740957966
1.284457478005865
1.2580645161290325
1.2326490713587488
1.2082111436950147
1.1896383186705768
1.1759530791788857
1.160312805474096
1.1456500488758554
1.133919843597263
1.1251221896383188
1.1173020527859236
1.1114369501466277
1.10752688172043
1.1036168132942326
1.099706744868035
1.096774193548387
1.0957966764418376
1.0948191593352885
1.0909090909090908
1.086021505376344
1.0791788856304985
1.0694037145650048
1.0596285434995112
1.053763440860215
1.0576735092864125
1.0811339198435972
1.1358748778103618
1.2297165200391007
1.3665689149560116
1.5141739980449658
1.6774193548387095
1.8826979472140764
2.1055718475073317
2.3255131964809386
2.5288367546432062
2.7038123167155423
2.844574780058651
2.9501466275659824
3.022482893450636
3.067448680351906
3.089931573802541
3.0928641251221896
3.083088954056696
3.067448680351906
3.046920821114369
3.0205278592375366
2.991202346041056
2.960899315738025
2.927663734115347
2.89345063538612
2.8563049853372435
2.817204301075269
2.774193548387097
2.7253176930596283
2.67644183773216
2.622678396871945
2.557184750733138
2.4809384164222874
2.3958944281524928
2.304007820136853
2.2082111436950145
2.113391984359726
2.0234604105571847
1.9403714565004888
1.868035190615836
1.8093841642228736
1.7673509286412512
1.7380254154447703
1.7165200391006843
1.7028347996089932
1.6950146627565983
1.6911045943304008
1.6871945259042034
1.6813294232649072
1.672531769305963
1.6598240469208212
1.643206256109482
1.6217008797653958
1.5972629521016617
1.5747800586510263
1.5532746823069403
1.525904203323558
1.4965786901270772
1.4652981427174976
1.434017595307918
1.4027370478983383
1.3724340175953078
1.343108504398827
1.3147605083088951
1.2864125122189638
1.2590420332355816
1.238514173998045
1.2218963831867058
1.203323558162268
1.18475073313783
1.1671554252199414
1.1515151515151516
1.1407624633431086
1.1319648093841643
1.1241446725317692
1.1163245356793745
1.1085043988269794
1.1016617790811338
1.0948191593352885
1.0909090909090908
1.088954056695992
1.0850439882697946
1.078201368523949
1.067448680351906
1.053763440860215
1.0381231671554252
1.0234604105571847
1.0156402737047898
1.021505376344086
1.0527859237536656
1.1221896383186705
1.2121212121212122
1.3313782991202343
1.500488758553275
1.7086999022482894
1.9403714565004888
2.175953079178885
2.40078201368524
2.5992179863147604
2.7624633431085046
2.8905180840664717
2.9853372434017595
3.048875855327468
3.0879765395894427
3.102639296187683
3.1006842619745845
3.090909090909091
3.075268817204301
3.053763440860215
3.026392961876833
2.995112414467253
2.960899315738025
2.924731182795699
2.887585532746823
2.8475073313782997
2.803519061583578
2.7565982404692084
2.70772238514174
2.6510263929618767
2.5855327468230693
2.5131964809384164
2.4330400782013686
2.347018572825025
2.2561094819159337
2.161290322580645
2.0664711632453567
1.9765395894428155
1.895405669599218
1.825024437927664
1.7712609970674489
1.7311827956989247
1.696969696969697
1.672531769305963
1.656891495601173
1.6471163245356797
1.640273704789834
1.635386119257087
1.629521016617791
1.6207233626588464
1.6099706744868034
1.5943304007820136
1.5796676441837731
1.5650048875855327
1.544477028347996
1.5190615835777126
1.490713587487781
1.4613880742913
1.4291300097751711
1.3949169110459434
1.359726295210166
1.316715542521994
1.2795698924731185
1.2531769305962854
1.2258064516129032
1.2043010752688172
1.1867057673509287
1.1671554252199414
1.1485826001955035
1.1319648093841643
1.1173020527859236
1.1026392961876832
1.0879765395894427
1.0742913000977516
1.0635386119257086
1.0527859237536656
1.0420332355816226
1.0371456500488758
1.0342130987292275
1.0303030303030305
1.0263929618768328
1.0224828934506354
1.0156402737047898
1.0068426197458455
0.997067448680352
0.989247311827957
0.9843597262952102
0.9804496578690128
0.989247311827957
1.0127077223851415
1.0596285434995112
1.144672531769306
1.273704789833822
1.4428152492668622
1.6441837732160314
1.8641251221896384
2.086021505376344
2.294232649071359
2.4789833822091887
2.632453567937439
2.752688172043011
2.8396871945259043
2.89247311827957
2.920821114369501
2.93841642228739
2.9442815249266863
2.940371456500489
2.9266862170087977
2.906158357771261
2.881720430107527
2.8533724340175954
2.822091886608016
2.788856304985337
2.7536656891495603
2.717497556207233
2.679374389051808
2.6373411534701856
2.589442815249267
2.535679374389052
2.4731182795698925
2.40078201368524
2.3196480938416424
2.231671554252199
2.139784946236559
2.047898338220919
1.9579667644183771
1.873900293255132
1.804496578690127
1.747800586510264
1.6959921798631477
1.6549364613880744
1.6236559139784943
1.6021505376344083
1.5884652981427174
1.581622678396872
1.576735092864125
1.5728250244379276
1.5679374389051808
1.5610948191593352
1.5542521994134897
1.5464320625610948
1.5347018572825024
1.517106549364614
1.495601173020528
1.4711632453567938
1.4437927663734116
1.414467253176931
1.3841642228739004
1.3528836754643203
1.3206256109481915
1.2903225806451613
1.2619745845552297
1.2394916911045943
1.219941348973607
1.1964809384164223
1.1730205278592376
1.1515151515151516
1.130987292277615
1.1114369501466277
1.0928641251221896
1.078201368523949
1.0664711632453567
1.0576735092864125
1.050830889540567
1.0478983382209188
1.0469208211143697
1.0449657869012707
1.043010752688172
1.040078201368524
1.0371456500488758
1.0332355816226784
1.0273704789833822
1.0195503421309873
1.0087976539589445
0.9951124144672532
0.9824046920821116
0.9775171065493646
0.9833822091886608
1.0068426197458455
1.0586510263929618
1.1495601173020529
1.2825024437927663
1.4535679374389052
1.6559139784946235
1.87683284457478
2.1006842619745845
2.3118279569892475
2.4975562072336266
2.6510263929618767
2.7702834799608995
2.8484848484848486
2.8944281524926687
2.9266862170087977
2.9423264907135875
2.946236559139785
2.941348973607038
2.927663734115347
2.9071358748778104
2.881720430107527
2.852394916911046
2.820136852394917
2.7869012707722387
2.7536656891495603
2.718475073313783
2.6803519061583576
2.6373411534701856
2.589442815249267
2.535679374389052
2.4731182795698925
2.401759530791789
2.32355816226784
2.2375366568914954
2.147605083088954
2.056695992179863
1.9775171065493649
1.9071358748778104
1.8347996089931573
1.7683284457478006
1.7126099706744868
1.6695992179863148
1.6383186705767352
1.6187683284457477
1.607038123167155
1.6011730205278591
1.5992179863147604
1.5972629521016617
1.5943304007820136
1.5913978494623655
1.585532746823069
1.5747800586510263
1.560117302052786
1.541544477028348
1.517106549364614
1.4897360703812317
1.4613880742913
1.4330400782013686
1.401759530791789
1.370478983382209
1.3391984359726294
1.3128054740957966
1.2913000977517106
1.2668621700879763
1.241446725317693
1.217008797653959
1.1935483870967742
1.1710654936461389
1.1515151515151516
1.1329423264907137
1.1163245356793745
1.1016617790811338
1.0879765395894427
1.075268817204301
1.0684261974584557
1.064516129032258
1.0596285434995112
1.053763440860215
1.0488758553274682
1.04594330400782
1.043010752688172
1.040078201368524
1.0371456500488758
1.0342130987292275
1.029325513196481
1.021505376344086
1.0156402737047898
1.0127077223851415
1.013685239491691
1.0283479960899315
1.067448680351906
1.142717497556207
1.260019550342131
1.4193548387096775
1.6158357771260996
1.835777126099707
2.0635386119257086
2.2844574780058653
2.4838709677419355
2.633431085043988
2.744868035190616
2.841642228739003
2.916911045943304
2.9687194525904204
3.0
3.0146627565982405
3.0146627565982405
3.002932551319648
2.98435972629521
2.959921798631476
2.9315738025415445
2.9012707722385143
2.8690127077223853
2.834799608993157
2.7996089931573804
2.7614858260019552
2.719452590420332
2.673509286412512
2.621700879765396
2.5620723362658846
2.49266862170088
2.4134897360703813
2.324535679374389
2.2297165200391005
2.142717497556207
2.060606060606061
1.9736070381231672
1.8885630498533723
1.8113391984359728
1.7458455522971652
1.6950146627565983
1.6608015640273706
1.6392961876832846
1.6285434995112416
1.6256109481915937
1.6265884652981428
1.6285434995112416
1.6304985337243405
1.629521016617791
1.619745845552297
1.607038123167155
1.5943304007820136
1.576735092864125
1.5562072336265884
1.5317693059628543
1.504398826979472
1.474095796676442
1.4418377321603129
1.4134897360703813
1.388074291300098
1.359726295210166
1.3294232649071358
1.2991202346041055
1.2717497556207231
1.2473118279569892
1.2228739002932552
1.1994134897360704
1.1779081133919844
1.1573802541544478
1.13880742913001
1.1241446725317692
1.115347018572825
1.1114369501466277
1.1133919843597262
1.118279569892473
1.1173020527859236
1.1143695014662756
1.1094819159335287
1.1036168132942326
1.0987292277614855
1.093841642228739
1.0879765395894427
1.0811339198435972
1.0762463343108504
1.0703812316715542
1.0606060606060606
1.0518084066471165
1.050830889540567
1.0664711632453567
1.1094819159335287
1.1906158357771262
1.3128054740957966
1.4760508308895406
1.6735092864125125
1.8905180840664717
2.112414467253177
2.2991202346041058
2.4565004887585533
2.608993157380254
2.7419354838709675
2.8455522971652005
2.920821114369501
2.9696969696969697
2.997067448680352
3.006842619745845
3.003910068426197
2.992179863147605
2.972629521016618
2.9472140762463344
2.917888563049853
2.887585532746823
2.855327468230694
2.822091886608016
2.788856304985337
2.752688172043011
2.7126099706744866
2.667644183773216
2.6158357771261
2.5562072336265884
2.487781036168133
2.410557184750733
2.3362658846529816
2.26197458455523
2.176930596285435
2.0869990224828934
1.9980449657869013
1.913978494623656
1.8377321603128052
1.7732160312805474
1.7204301075268815
1.6803519061583578
1.651026392961877
1.632453567937439
1.6217008797653958
1.6158357771260996
1.6129032258064515
1.6109481915933528
1.607038123167155
1.5992179863147604
1.587487781036168
1.5718475073313782
1.5532746823069403
1.530791788856305
1.5053763440860215
1.478005865102639
1.4496578690127078
1.4242424242424243
1.401759530791789
1.375366568914956
1.3470185728250244
1.316715542521994
1.2864125122189638
1.2570869990224829
1.2287390029325511
1.2023460410557183
1.1798631476050832
1.1593352883675463
1.1397849462365592
1.1251221896383188
1.1143695014662756
1.1016617790811338
1.0899315738025417
1.0791788856304985
1.0703812316715542
1.064516129032258
1.0596285434995112
1.0557184750733135
1.0527859237536656
1.0498533724340176
1.04594330400782
1.043010752688172
1.043010752688172
1.0449657869012707
1.0420332355816226
1.035190615835777
1.0254154447702837
1.0127077223851415
1.0097751710654936
1.0146627565982405
1.032258064516129
1.0821114369501466
1.1700879765395895
1.3010752688172045
1.444770283479961
1.603128054740958
1.801564027370479
2.018572825024438
2.232649071358749
2.429130009775171
2.598240469208211
2.735092864125122
2.838709677419355
2.9120234604105573
2.959921798631476
2.9872922776148583
2.99902248289345
2.9960899315738025
2.983382209188661
2.9657869012707723
2.9442815249266863
2.919843597262952
2.8914956011730206
2.86217008797654
2.83088954056696
2.795698924731183
2.7565982404692084
2.713587487781036
2.664711632453568
2.613880742913001
2.5591397849462365
2.49266862170088
2.4173998044965788
2.334310850439883
2.2453567937438903
2.1524926686217007
2.060606060606061
1.9716520039100685
1.889540566959922
1.8172043010752688
1.7565982404692082
1.7096774193548387
1.6764418377321604
1.653958944281525
1.6392961876832846
1.6304985337243405
1.6256109481915937
1.6217008797653958
1.6177908113391983
1.611925708699902
1.6021505376344083
1.5884652981427174
1.5698924731182795
1.5493646138807429
1.5298142717497556
1.509286412512219
1.482893450635386
1.452590420332356
1.4203323558162269
1.388074291300098
1.3558162267839686
1.324535679374389
1.2932551319648091
1.2639296187683284
1.2346041055718475
1.2072336265884651
1.181818181818182
1.163245356793744
1.1495601173020529
1.133919843597263
1.118279569892473
1.1036168132942326
1.0909090909090908
1.0791788856304985
1.0694037145650048
1.0596285434995112
1.050830889540567
1.0439882697947214
1.0391006842619743
1.0371456500488758
1.0361681329423265
1.0332355816226784
1.0303030303030305
1.0273704789833822
1.0234604105571847
1.0175953079178883
1.0087976539589445
0.9980449657869012
0.9882697947214076
0.9833822091886608
0.9921798631476052
1.0166177908113392
1.0654936461388074
1.1505376344086022
1.2766373411534702
1.4428152492668622
1.643206256109482
1.8641251221896384
2.090909090909091
2.30791788856305
2.5024437927663734
2.665689149560117
2.793743890518084
2.8885630498533725
2.946236559139785
2.9765395894428157
2.995112414467253
3.0009775171065494
2.9960899315738025
2.983382209188661
2.962854349951124
2.93841642228739
2.909090909090909
2.877810361681329
2.844574780058651
2.809384164222874
2.7722385141739982
2.7341153470185726
2.69208211143695
2.644183773216031
2.589442815249267
2.5268817204301075
2.455522971652004
2.375366568914956
2.2883675464320627
2.1955034213098727
2.0772238514174
1.9726295210166176
1.9012707722385145
1.8377321603128052
1.7839687194525904
1.7341153470185728
1.6920821114369502
1.6588465298142718
1.6363636363636365
1.6236559139784943
1.616813294232649
1.6129032258064515
1.608993157380254
1.6050830889540566
1.598240469208211
1.590420332355816
1.5796676441837731
1.564027370478983
1.544477028347996
1.521016617790811
1.4936461388074291
1.466275659824047
1.4379276637341154
1.409579667644184
1.3841642228739004
1.3616813294232648
1.3362658846529814
1.3088954056695992
1.2864125122189638
1.267839687194526
1.2453567937438903
1.2228739002932552
1.2023460410557183
1.1827956989247312
1.164222873900293
1.1485826001955035
1.133919843597263
1.1202346041055715
1.1085043988269794
1.0987292277614855
1.093841642228739
1.0918866080156402
1.0899315738025417
1.0869990224828934
1.0840664711632453
1.0811339198435972
1.078201368523949
1.0742913000977516
1.0684261974584557
1.0606060606060606
1.0498533724340176
1.0391006842619743
1.0332355816226784
1.0371456500488758
1.0557184750733135
1.1006842619745845
1.1827956989247312
1.305962854349951
1.4701857282502444
1.667644183773216
1.8856304985337244
2.110459433040078
2.324535679374389
2.515151515151515
2.675464320625611
2.789833822091887
2.8670576735092865
2.927663734115347
2.9687194525904204
2.991202346041056
3.0
2.9980449657869013
2.988269794721408
2.970674486803519
2.9472140762463344
2.919843597262952
2.8914956011730206
2.8611925708699903
2.8289345063538613
2.7947214076246336
2.758553274682307
2.717497556207233
2.670576735092864
2.6158357771261
2.552297165200391
2.479960899315738
2.39980449657869
2.3118279569892475
2.218963831867057
2.124144672531769
2.0410557184750733
1.9657869012707725
