ppg
1.23069403714565
1.23069403714565
1.2297165200391007
1.227761485826002
1.2267839687194526
1.2258064516129032
1.224828934506354
1.2228739002932552
1.2209188660801564
1.2189638318670577
1.217008797653959
1.2160312805474096
1.2160312805474096
1.2189638318670577
1.2228739002932552
1.2326490713587488
1.252199413489736
1.2873900293255132
1.343108504398827
1.4213098729227762
1.521994134897361
1.643206256109482
1.7781036168132942
1.920821114369501
2.0449657869012707
2.15347018572825
2.2658846529814274
2.3685239491691106
2.4565004887585533
2.525904203323558
2.576735092864125
2.611925708699902
2.633431085043988
2.686217008797654
2.7517106549364616
2.7751710654936463
2.774193548387097
2.758553274682307
2.7341153470185726
2.7008797653958942
2.659824046920821
2.610948191593353
2.5532746823069403
2.484848484848485
2.4086021505376345
2.3255131964809386
2.2404692082111435
2.157380254154448
2.0791788856304985
2.0146627565982405
1.9608993157380252
1.9120234604105573
1.870967741935484
1.8377321603128052
1.8113391984359728
1.7917888563049853
1.7761485826001957
1.7644183773216031
1.75366568914956
1.7419354838709675
1.7282502443792769
1.7165200391006843
1.7028347996089932
1.6842619745845553
1.6627565982404693
1.6383186705767352
1.6109481915933528
1.5806451612903225
1.547409579667644
1.5112414467253177
1.4731182795698925
1.4330400782013686
1.3919843597262953
1.3499511241446724
1.3147605083088951
1.2834799608993157
1.2482893450635386
1.2111436950146628
1.173998044965787
1.1378299120234605
1.104594330400782
1.0742913000977516
1.0488758553274682
1.0283479960899315
1.0146627565982405
1.0068426197458455
1.0058651026392962
1.0097751710654936
1.0156402737047898
1.0234604105571847
1.0342130987292275
1.0478983382209188
1.0625610948191593
1.0791788856304985
1.096774193548387
1.1133919843597262
1.1270772238514175
1.13880742913001
1.147605083088954
1.155425219941349
1.1622678396871946
1.1652003910068427
1.1652003910068427
1.1612903225806452
1.155425219941349
1.1466275659824048
1.1358748778103618
1.1231671554252198
1.1094819159335287
1.0948191593352885
1.0791788856304985
1.0684261974584557
1.0596285434995112
1.0488758553274682
1.0371456500488758
1.024437927663734
1.013685239491691
1.0058651026392962
0.9990224828934506
0.9941348973607038
0.9941348973607038
1.0009775171065494
1.0205278592375366
1.0586510263929618
1.1085043988269794
1.1749755620723363
1.2717497556207231
1.3978494623655917
1.5483870967741935
1.7174975562072337
1.8963831867057677
2.074291300097752
2.242424242424242
2.3949169110459434
2.525904203323558
2.632453567937439
2.705767350928641
2.7536656891495603
2.792766373411535
2.822091886608016
2.8426197458455524
2.8563049853372435
2.863147605083089
2.8641251221896384
2.860215053763441
2.8514173998044967
2.835777126099707
2.8132942326490715
2.782991202346041
2.745845552297165
2.701857282502444
2.6480938416422286
2.5855327468230693
2.5161290322580645
2.4408602150537635
2.363636363636364
2.286412512218964
2.2140762463343107
2.1495601173020527
2.0948191593352883
2.0498533724340176
2.0146627565982405
1.9872922776148585
1.963831867057673
1.9442815249266865
1.9266862170087975
1.9100684261974583
1.89247311827957
1.8729227761485825
1.8514173998044965
1.827956989247312
1.8025415444770283
1.7761485826001957
1.747800586510264
1.721407624633431
1.6959921798631477
1.6666666666666667
1.6344086021505375
1.6021505376344083
1.5718475073313782
1.542521994134897
1.5141739980449658
1.4868035190615836
1.4604105571847508
1.4349951124144673
1.4115347018572826
1.393939393939394
1.380254154447703
1.3655913978494625
1.3509286412512218
1.33822091886608
1.327468230694037
1.3176930596285434
1.3088954056695992
1.3020527859237536
1.295210166177908
1.2883675464320623
1.2825024437927663
1.2766373411534702
1.2727272727272727
1.270772238514174
1.267839687194526
1.2639296187683284
1.2590420332355816
1.2541544477028348
1.2482893450635386
1.2424242424242424
1.2365591397849462
1.2297165200391007
1.2238514173998043
1.2179863147605083
1.2140762463343109
1.2121212121212122
1.2072336265884651
1.2023460410557183
1.198435972629521
1.195503421309873
1.1915933528836755
1.1886608015640274
1.1867057673509287
1.1857282502443791
1.1857282502443791
1.1857282502443791
1.1857282502443791
1.187683284457478
1.1906158357771262
1.1925708699902249
1.1935483870967742
1.1974584555229717
1.209188660801564
1.2346041055718475
1.2795698924731185
1.348973607038123
1.4457478005865103
1.5679374389051808
1.7126099706744868
1.8504398826979471
1.986314760508309
2.1407624633431084
2.2961876832844577
2.441837732160313
2.5698924731182795
2.677419354838709
2.7624633431085046
2.827956989247312
2.875855327468231
2.9100684261974585
2.932551319648094
2.946236559139785
2.948191593352884
2.943304007820137
2.9393939393939394
2.932551319648094
2.920821114369501
2.903225806451613
2.877810361681329
2.8426197458455524
2.7976539589442817
2.742913000977517
2.677419354838709
2.603128054740958
2.529814271749756
2.4574780058651027
2.377321603128055
2.294232649071359
2.21505376344086
2.142717497556207
2.0791788856304985
2.024437927663734
1.9775171065493649
1.93841642228739
1.905180840664712
1.8758553274682308
1.8523949169110456
1.83088954056696
1.8084066471163245
1.7849462365591398
1.758553274682307
1.729227761485826
1.6979472140762464
1.664711632453568
1.629521016617791
1.5933528836754642
1.5571847507331378
1.521016617790811
1.4858260019550342
1.456500488758553
1.43108504398827
1.4027370478983383
1.3763440860215057
1.3519061583577712
1.3255131964809383
1.2981427174975562
1.2717497556207231
1.2473118279569892
1.224828934506354
1.2043010752688172
1.1857282502443791
1.1720430107526882
1.1612903225806452
1.1485826001955035
1.1358748778103618
1.1231671554252198
1.1124144672531768
1.1016617790811338
1.0909090909090908
1.0811339198435972
1.072336265884653
1.064516129032258
1.0576735092864125
1.0498533724340176
1.04594330400782
1.0439882697947214
1.040078201368524
1.0342130987292275
1.0273704789833822
1.0195503421309873
1.0127077223851415
1.0058651026392962
1.0
0.9931573802541545
0.9872922776148584
0.9833822091886608
0.9833822091886608
0.9853372434017597
0.9843597262952102
0.981427174975562
0.9775171065493646
0.9726295210166178
0.9667644183773216
0.9618768328445748
0.956989247311828
0.9530791788856304
0.9501466275659824
0.9491691104594332
0.9521016617790812
0.9608993157380256
0.978494623655914
1.0087976539589445
1.0586510263929618
1.133919843597263
1.2355816226783969
1.3626588465298142
1.5112414467253177
1.675464320625611
1.8465298142717497
2.01564027370479
2.1739980449657867
2.2991202346041058
2.398826979472141
2.4916911045943304
2.5698924731182795
2.63049853372434
2.673509286412512
2.7008797653958942
2.716520039100684
2.7233626588465296
2.7233626588465296
2.718475073313783
2.7096774193548385
2.6959921798631474
2.677419354838709
2.652003910068426
2.619745845552297
2.579667644183773
2.529814271749756
2.4701857282502444
2.401759530791789
2.3274682306940373
2.2502443792766376
2.1739980449657867
2.102639296187683
2.038123167155425
1.9872922776148585
1.946236559139785
1.9100684261974583
1.8807429130009776
1.8563049853372435
1.836754643206256
1.8191593352883677
1.8025415444770283
1.7859237536656891
1.7663734115347018
1.7429130009775171
1.7165200391006843
1.6871945259042034
1.6598240469208212
1.6344086021505375
1.6041055718475072
1.5718475073313782
1.5376344086021505
1.5034213098729228
1.469208211143695
1.435972629521017
1.404692082111437
1.375366568914956
1.3470185728250244
1.3206256109481915
1.3010752688172045
1.2854349951124144
1.2688172043010753
1.252199413489736
1.2365591397849462
1.2228739002932552
1.2121212121212122
1.2023460410557183
1.1945259042033236
1.1886608015640274
1.1837732160312806
1.1808406647116323
1.1798631476050832
1.1808406647116323
1.1837732160312806
1.18475073313783
1.1857282502443791
1.1867057673509287
1.1886608015640274
1.1906158357771262
1.1925708699902249
1.1945259042033236
1.195503421309873
1.1964809384164223
1.1964809384164223
1.198435972629521
1.2023460410557183
1.2043010752688172
1.2052785923753666
1.2052785923753666
1.206256109481916
1.2082111436950147
1.2101661779081134
1.2121212121212122
1.2130987292277615
1.2140762463343109
1.2140762463343109
1.2140762463343109
1.2160312805474096
1.2189638318670577
1.2189638318670577
1.2189638318670577
1.2189638318670577
1.2218963831867058
1.2336265884652982
1.2570869990224829
1.2981427174975562
1.3626588465298142
1.4545454545454546
1.5728250244379276
1.694037145650049
1.822091886608016
1.978494623655914
2.147605083088954
2.315738025415445
2.4731182795698925
2.611925708699902
2.7282502443792764
2.822091886608016
2.89247311827957
2.9442815249266863
2.979472140762464
3.0019550342130987
3.0087976539589443
3.005865102639296
3.0019550342130987
2.995112414467253
2.9853372434017595
2.9716520039100685
2.951124144672532
2.9227761485826003
2.886608015640274
2.841642228739003
2.78494623655914
2.717497556207233
2.649071358748778
2.578690127077224
2.501466275659824
2.421309872922776
2.343108504398827
2.269794721407625
2.203323558162268
2.144672531769306
2.0928641251221896
2.050830889540567
2.01564027370479
1.9853372434017595
1.959921798631476
1.93841642228739
1.9159335288367547
1.89247311827957
1.869012707722385
1.8435972629521016
1.81524926686217
1.7849462365591398
1.7517106549364614
1.7165200391006843
1.678396871945259
1.640273704789834
1.6021505376344083
1.5698924731182795
1.542521994134897
1.512218963831867
1.4809384164222874
1.4506353861192571
1.4213098729227762
1.392961876832845
1.3665689149560116
1.343108504398827
1.321603128054741
1.303030303030303
1.2864125122189638
1.2746823069403714
1.2668621700879763
1.2580645161290325
1.2482893450635386
1.238514173998045
1.23069403714565
1.2228739002932552
1.2160312805474096
1.2082111436950147
1.2003910068426198
1.1925708699902249
1.1837732160312806
1.1759530791788857
1.1720430107526882
1.1700879765395895
1.166177908113392
1.1612903225806452
1.1573802541544478
1.152492668621701
1.1485826001955035
1.1456500488758554
1.141739980449658
1.1378299120234605
1.133919843597263
1.1300097751710656
1.1300097751710656
1.130987292277615
1.1300097751710656
1.1280547409579669
1.1251221896383188
1.1221896383186705
1.1192570869990224
1.1163245356793745
1.1143695014662756
1.1114369501466277
1.121212121212121
1.1368523949169111
1.144672531769306
1.1515151515151516
1.1593352883675463
1.1700879765395895
1.1886608015640274
1.2209188660801564
1.270772238514174
1.343108504398827
1.4379276637341154
1.555229716520039
1.6881720430107527
1.83088954056696
1.9745845552297163
2.0948191593352883
2.1955034213098727
2.2961876832844577
2.3870967741935485
2.463343108504399
2.525904203323558
2.575757575757576
2.6158357771261
2.649071358748778
2.678396871945259
2.7038123167155423
2.7253176930596283
2.7419354838709675
2.748778103616813
2.747800586510264
2.7419354838709675
2.727272727272727
2.702834799608993
2.6666666666666665
2.619745845552297
2.5620723362658846
2.496578690127077
2.426197458455523
2.35386119257087
2.283479960899316
2.222873900293255
2.16911045943304
2.117302052785924
2.072336265884653
2.0332355816226784
2.0
1.9726295210166176
1.948191593352884
1.924731182795699
1.9012707722385145
1.87683284457478
1.8494623655913975
1.8201368523949168
1.7927663734115349
1.7663734115347018
1.7360703812316716
1.7038123167155426
1.6695992179863148
1.6344086021505375
1.5992179863147604
1.564027370478983
1.5298142717497556
1.4965786901270772
1.4643206256109482
1.4349951124144673
1.4115347018572826
1.3919843597262953
1.3695014662756595
1.3470185728250244
1.3255131964809383
1.305962854349951
1.2873900293255132
1.270772238514174
1.2570869990224829
1.24633431085044
1.2375366568914956
1.2287390029325511
1.2209188660801564
1.217008797653959
1.2150537634408602
1.2101661779081134
1.2043010752688172
1.1974584555229717
1.1915933528836755
1.1867057673509287
1.1827956989247312
1.1788856304985338
1.1759530791788857
1.1759530791788857
1.1759530791788857
1.1759530791788857
1.1759530791788857
1.1759530791788857
1.1759530791788857
1.1759530791788857
1.1759530791788857
1.1964809384164223
1.2336265884652982
1.2903225806451613
1.370478983382209
1.4731182795698925
1.595307917888563
1.732160312805474
1.8563049853372435
1.9726295210166176
2.1006842619745845
2.2248289345063537
2.3362658846529816
2.43108504398827
2.5083088954056696
2.565982404692082
2.6050830889540566
2.6295210166177907
2.6422287390029324
2.6471163245356792
2.643206256109482
2.634408602150537
2.6236559139784945
2.608993157380254
2.5884652981427174
2.5610948191593352
2.525904203323558
2.479960899315738
2.4242424242424243
2.358748778103617
2.286412512218964
2.209188660801564
2.129032258064516
2.0576735092864125
1.994134897360704
1.9305962854349952
1.870967741935484
1.8172043010752688
1.7702834799608993
1.7311827956989247
1.6959921798631477
1.6637341153470186
1.6334310850439884
1.6041055718475072
1.573802541544477
1.5483870967741935
1.525904203323558
1.500488758553275
1.474095796676442
1.4486803519061584
1.423264907135875
1.3978494623655917
1.3734115347018572
1.3499511241446724
1.3294232649071358
1.3098729227761483
1.29227761485826
1.2776148582600195
1.2688172043010753
1.2639296187683284
1.260019550342131
1.2570869990224829
1.2561094819159335
1.2570869990224829
1.2580645161290325
1.260019550342131
1.2619745845552297
1.262952101661779
1.2619745845552297
1.2590420332355816
1.2561094819159335
1.252199413489736
1.2434017595307918
1.2297165200391007
1.2111436950146628
1.1886608015640274
1.1612903225806452
1.1319648093841643
1.099706744868035
1.067448680351906
1.0361681329423265
1.0058651026392962
0.9833822091886608
0.9657869012707724
0.9472140762463344
0.9305962854349952
0.916911045943304
0.9090909090909092
0.9071358748778104
0.9110459433040078
0.9208211143695014
0.9364613880742912
0.956989247311828
0.981427174975562
1.0087976539589445
1.0361681329423265
1.0635386119257086
1.0918866080156402
1.1192570869990224
1.1456500488758554
1.1700879765395895
1.1915933528836755
1.2101661779081134
1.2238514173998043
1.2326490713587488
1.2375366568914956
1.238514173998045
1.238514173998045
1.2365591397849462
1.2297165200391007
1.7126099706744868
1.6803519061583578
1.6471163245356797
1.611925708699902
1.576735092864125
1.541544477028348
1.5073313782991202
1.4750733137829912
1.447702834799609
1.423264907135875
1.396871945259042
1.3695014662756595
1.343108504398827
1.3176930596285434
1.2932551319648091
1.2717497556207231
1.252199413489736
1.2355816226783969
1.2228739002932552
1.2111436950146628
1.2043010752688172
1.2013685239491692
1.1964809384164223
1.1906158357771262
1.18475073313783
1.1788856304985338
1.1720430107526882
1.164222873900293
1.1583577712609971
1.1534701857282503
1.1495601173020529
1.1466275659824048
1.1456500488758554
1.1466275659824048
1.1495601173020529
1.1495601173020529
1.147605083088954
1.144672531769306
1.141739980449658
1.1378299120234605
1.133919843597263
1.1300097751710656
1.126099706744868
1.1231671554252198
1.1202346041055715
1.1202346041055715
1.121212121212121
1.1192570869990224
1.1163245356793745
1.1133919843597262
1.0840664711632453
1.0420332355816226
1.021505376344086
1.010752688172043
1.0058651026392962
1.0039100684261977
1.0048875855327468
1.010752688172043
1.0234604105571847
1.04594330400782
1.0850439882697946
1.1466275659824048
1.2326490713587488
1.3450635386119256
1.482893450635386
1.640273704789834
1.8093841642228736
1.9804496578690127
2.145650048875855
2.2961876832844577
2.4115347018572826
2.4995112414467253
2.579667644183773
2.644183773216031
2.6930596285435
2.7262952101661777
2.747800586510264
2.758553274682307
2.7614858260019552
2.7595307917888565
2.7517106549364616
2.7390029325513194
2.718475073313783
2.69208211143695
2.659824046920821
2.6207233626588464
2.5718475073313782
2.5141739980449658
2.449657869012708
2.3792766373411536
2.304985337243402
2.231671554252199
2.163245356793744
2.102639296187683
2.0498533724340176
2.0087976539589443
1.9765395894428155
1.948191593352884
1.924731182795699
1.903225806451613
1.8836754643206255
1.8641251221896384
1.844574780058651
1.8240469208211143
1.8005865102639296
1.775171065493646
1.7468230694037146
1.7204301075268815
1.6950146627565983
1.6656891495601174
1.6334310850439884
1.6001955034213098
1.565982404692082
1.5317693059628543
1.499511241446725
1.4682306940371457
1.4389051808406648
1.4115347018572826
1.3870967741935485
1.364613880742913
1.3479960899315735
1.3343108504398826
1.3186705767350928
1.3049853372434017
1.29227761485826
1.2795698924731185
1.267839687194526
1.2580645161290325
1.2502443792766371
1.2453567937438903
1.2424242424242424
1.241446725317693
1.2434017595307918
1.2453567937438903
1.24633431085044
1.2473118279569892
1.2473118279569892
1.2473118279569892
1.2473118279569892
1.24633431085044
1.2443792766373412
1.2424242424242424
1.2404692082111437
1.238514173998045
1.2355816226783969
1.2346041055718475
1.2336265884652982
1.2316715542521994
1.2297165200391007
1.227761485826002
1.2258064516129032
1.224828934506354
1.2287390029325511
1.2404692082111437
1.2639296187683284
1.3040078201368523
1.3665689149560116
1.4379276637341154
1.5249266862170088
1.6441837732160314
1.7869012707722385
1.9442815249266865
2.1055718475073317
2.2629521016617797
2.407624633431085
2.5347018572825024
2.641251221896383
2.7262952101661777
2.789833822091887
2.835777126099707
2.860215053763441
2.870967741935484
2.878787878787879
2.881720430107527
2.8807429130009776
2.875855327468231
2.8670576735092865
2.8533724340175954
2.833822091886608
2.806451612903226
2.76930596285435
2.721407624633431
2.668621700879765
2.6099706744868034
2.539589442815249
2.4613880742913
2.3792766373411536
2.297165200391007
2.217986314760508
2.1436950146627565
2.0762463343108504
2.018572825024438
1.9696969696969695
1.9286412512218964
1.8944281524926687
1.8670576735092863
1.844574780058651
1.823069403714565
1.801564027370479
1.7790811339198436
1.7546432062561097
1.7282502443792769
1.6989247311827955
1.667644183773216
1.635386119257087
1.6011730205278591
1.565982404692082
1.5347018572825024
1.5073313782991202
1.4760508308895406
1.4437927663734116
1.4115347018572826
1.3792766373411536
1.348973607038123
1.3206256109481915
1.2932551319648091
1.267839687194526
1.2453567937438903
1.224828934506354
1.2052785923753666
1.1915933528836755
1.1808406647116323
1.1691104594330402
1.1564027370478984
1.144672531769306
1.1329423264907137
1.1221896383186705
1.1143695014662756
1.10752688172043
1.1006842619745845
1.0948191593352885
1.0899315738025417
1.0879765395894427
1.0879765395894427
1.086021505376344
1.083088954056696
1.0791788856304985
1.075268817204301
1.0713587487781036
1.0664711632453567
1.0625610948191593
1.0576735092864125
1.0527859237536656
1.0498533724340176
1.0469208211143697
1.04594330400782
1.0469208211143697
1.04594330400782
1.0449657869012707
1.0449657869012707
1.0449657869012707
1.0449657869012707
1.0449657869012707
1.0449657869012707
1.0449657869012707
1.04594330400782
1.0478983382209188
1.0518084066471165
1.056695992179863
1.0606060606060606
1.0635386119257086
1.0664711632453567
1.0684261974584557
1.0703812316715542
1.0713587487781036
1.0713587487781036
1.0703812316715542
1.0684261974584557
1.0664711632453567
1.0664711632453567
1.072336265884653
1.086021505376344
1.110459433040078
1.1544477028347997
1.224828934506354
1.3255131964809383
1.455522971652004
1.6138807429130009
1.7927663734115349
1.981427174975562
2.1700879765395893
2.3489736070381237
2.4916911045943304
2.6050830889540566
2.7116324535679373
2.801564027370479
2.8729227761485827
2.9257086999022484
2.961876832844575
2.9853372434017595
3.0
3.005865102639296
3.005865102639296
3.0019550342130987
2.9931573802541545
2.9765395894428157
2.952101661779081
2.9227761485826003
2.886608015640274
2.8406647116324537
2.78494623655914
2.719452590420332
2.6451612903225805
2.5650048875855327
2.4819159335288368
2.398826979472141
2.3167155425219943
2.2453567937438903
2.1847507331378297
2.1270772238514173
2.075268817204301
2.0303030303030303
1.992179863147605
1.9579667644183771
1.9266862170087975
1.895405669599218
1.865102639296188
1.833822091886608
1.801564027370479
1.772238514173998
1.7448680351906158
1.7126099706744868
1.678396871945259
1.6422287390029326
1.6041055718475072
1.5650048875855327
1.5249266862170088
1.4858260019550342
1.4467253176930597
1.4105571847507332
1.3763440860215057
1.3440860215053765
1.3186705767350928
1.2981427174975562
1.2756598240469208
1.2531769305962854
1.23069403714565
1.2082111436950147
1.1886608015640274
1.1700879765395895
1.1534701857282503
1.1378299120234605
1.1251221896383188
1.1133919843597262
1.1065493646138806
1.1026392961876832
1.0977517106549364
1.0918866080156402
1.086021505376344
1.0801564027370478
1.0742913000977516
1.0684261974584557
1.06158357771261
1.0557184750733135
1.050830889540567
1.04594330400782
1.0420332355816226
1.0410557184750733
1.043010752688172
1.043010752688172
1.0410557184750733
1.0391006842619743
1.0371456500488758
1.0342130987292275
1.0303030303030305
1.0273704789833822
1.0254154447702837
1.0234604105571847
1.0224828934506354
1.024437927663734
1.0283479960899315
1.0303030303030305
1.0312805474095796
1.0332355816226784
1.0381231671554252
1.0498533724340176
1.0742913000977516
1.1163245356793745
1.1798631476050832
1.2688172043010753
1.383186705767351
1.520039100684262
1.651026392961877
1.7810361681329423
1.9296187683284456
2.080156402737048
2.222873900293255
2.3499511241446727
2.4565004887585533
2.5405669599217986
2.6041055718475072
2.649071358748778
2.679374389051808
2.6989247311827955
2.704789833822092
2.7038123167155423
2.701857282502444
2.696969696969697
2.687194525904203
2.673509286412512
2.6529814271749754
2.6236559139784945
2.5855327468230693
2.5376344086021505
2.479960899315738
2.4134897360703813
2.3421309872922778
2.275659824046921
2.2130987292277613
2.147605083088954
2.085043988269794
2.029325513196481
1.981427174975562
1.9423264907135875
1.911045943304008
1.8866080156402736
1.8670576735092863
1.8504398826979471
1.833822091886608
1.8191593352883677
1.8035190615835777
1.7849462365591398
1.7634408602150538
1.7380254154447703
1.7096774193548387
1.678396871945259
1.64613880742913
1.6129032258064515
1.5796676441837731
1.5464320625610948
1.5131964809384164
1.4809384164222874
1.4545454545454546
1.4320625610948192
1.4076246334310851
1.383186705767351
1.359726295210166
1.3372434017595307
1.3176930596285434
1.2991202346041055
1.281524926686217
1.2649071358748778
1.249266862170088
1.2355816226783969
1.2267839687194526
1.219941348973607
1.2130987292277615
1.206256109481916
1.1994134897360704
1.1925708699902249
1.1857282502443791
1.1798631476050832
1.173998044965787
1.1681329423264908
1.163245356793744
1.1583577712609971
1.1544477028347997
1.152492668621701
1.1515151515151516
1.147605083088954
1.142717497556207
1.1368523949169111
1.130987292277615
1.126099706744868
1.121212121212121
1.1173020527859236
1.1143695014662756
1.1124144672531768
1.110459433040078
1.110459433040078
1.1114369501466277
1.1114369501466277
1.1114369501466277
1.1124144672531768
1.1124144672531768
1.1124144672531768
1.1124144672531768
1.1124144672531768
1.1124144672531768
1.1124144672531768
1.1124144672531768
1.1124144672531768
1.1143695014662756
1.118279569892473
1.1202346041055715
1.121212121212121
1.1251221896383188
1.1358748778103618
1.1583577712609971
1.1974584555229717
1.2590420332355816
1.3450635386119256
1.4545454545454546
1.585532746823069
1.7116324535679377
1.836754643206256
1.9804496578690127
2.1251221896383186
2.260019550342131
2.3792766373411536
