ppg
1.878787878787879
1.825024437927664
1.7771260997067448
1.7341153470185728
1.6950146627565983
1.6637341153470186
1.6392961876832846
1.6148582600195502
1.5913978494623655
1.56891495601173
1.5483870967741935
1.5298142717497556
1.5141739980449658
1.498533724340176
1.4819159335288368
1.466275659824047
1.4516129032258065
1.435972629521017
1.4242424242424243
1.4134897360703813
1.4007820136852396
1.3870967741935485
1.3734115347018572
1.3607038123167154
1.348973607038123
1.3391984359726294
1.3304007820136852
1.3225806451612905
1.3147605083088951
1.3088954056695992
1.3079178885630498
1.3118279569892473
1.3264907135874875
1.3616813294232648
1.4222873900293256
1.512218963831867
1.632453567937439
1.7781036168132942
1.9393939393939397
2.1055718475073317
2.2668621700879767
2.4144672531769307
2.5434995112414467
2.6402737047898337
2.713587487781036
2.777126099706745
2.8269794721407626
2.8611925708699903
2.8797653958944283
2.8856304985337244
2.8807429130009776
2.8641251221896384
2.8377321603128056
2.801564027370479
2.7565982404692084
2.7067448680351904
2.652003910068426
2.587487781036168
2.515151515151515
2.4349951124144678
2.347996089931574
2.254154447702835
2.156402737047898
2.058651026392962
1.9618768328445748
1.869012707722385
1.780058651026393
1.6979472140762464
1.6314760508308896
1.564027370478983
1.504398826979472
1.4643206256109482
1.4252199413489737
1.3900293255131966
1.3587487781036167
1.332355816226784
1.3098729227761483
1.2903225806451613
1.2727272727272727
1.2580645161290325
1.249266862170088
1.241446725317693
1.2316715542521994
1.2189638318670577
1.2043010752688172
1.1896383186705768
1.1759530791788857
1.163245356793744
1.1544477028347997
1.155425219941349
1.1759530791788857
1.2228739002932552
1.2991202346041055
1.3861192570869991
1.4887585532746823
1.624633431085044
1.7810361681329423
1.943304007820137
2.101661779081134
2.247311827956989
2.376344086021505
2.4858260019550342
2.573802541544477
2.641251221896383
2.69208211143695
2.721407624633431
2.735092864125122
2.7419354838709675
2.739980449657869
2.7282502443792764
2.705767350928641
2.6725317693059627
2.6295210166177907
2.5777126099706744
2.5161290322580645
2.4457478005865103
2.3685239491691106
2.2844574780058653
2.206256109481916
2.129032258064516
2.043010752688172
1.9550342130987293
1.8670576735092863
1.782991202346041
1.7038123167155426
1.629521016617791
1.563049853372434
1.504398826979472
1.444770283479961
1.396871945259042
1.3626588465298142
1.3362658846529814
1.310850439882698
1.2864125122189638
1.2688172043010753
1.2502443792766371
1.227761485826002
1.209188660801564
1.195503421309873
1.1808406647116323
1.160312805474096
1.1348973607038124
1.1173020527859236
1.1055718475073313
1.0957966764418376
1.096774193548387
1.118279569892473
1.1671554252199414
1.24633431085044
1.3558162267839686
1.4916911045943304
1.6021505376344083
1.7409579667644184
1.9296187683284456
2.074291300097752
2.188660801564027
2.2952101661779083
2.388074291300098
2.464320625610948
2.5219941348973607
2.5620723362658846
2.5865102639296187
2.5992179863147604
2.5972629521016617
2.579667644183773
2.552297165200391
2.515151515151515
2.4750733137829912
2.429130009775171
2.3734115347018574
2.3088954056695994
2.236559139784946
2.156402737047898
2.070381231671554
1.9804496578690127
1.889540566959922
1.8005865102639296
1.715542521994135
1.635386119257087
1.5698924731182795
1.5151515151515151
1.4594330400782014
1.4066471163245358
1.3587487781036167
1.316715542521994
1.2795698924731185
1.2473118279569892
1.217008797653959
1.1896383186705768
1.1652003910068427
1.1407624633431086
1.1221896383186705
1.1085043988269794
1.0928641251221896
1.075268817204301
1.0576735092864125
1.040078201368524
1.021505376344086
1.0019550342130987
0.9833822091886608
0.9648093841642228
0.9472140762463344
0.9296187683284456
0.9120234604105572
0.9002932551319648
0.8914956011730205
0.8778103616813294
0.8611925708699902
0.8435972629521017
0.8250244379276638
0.8064516129032258
0.7898338220918866
0.7751710654936461
0.7624633431085044
0.750733137829912
0.7409579667644184
0.7409579667644184
0.7409579667644184
0.7409579667644184
0.7409579667644184
0.7409579667644184
0.7243401759530792
0.7253176930596286
0.7360703812316716
0.7634408602150538
0.8152492668621701
0.8973607038123167
1.0127077223851415
1.1612903225806452
1.310850439882698
1.4643206256109482
1.6422287390029326
1.823069403714565
1.9951124144672527
2.1495601173020527
2.2795698924731185
2.3822091886608017
2.458455522971652
2.5102639296187683
2.539589442815249
2.549364613880743
2.5425219941348973
2.52297165200391
2.4916911045943304
2.449657869012708
2.398826979472141
2.3411534701857284
2.275659824046921
2.203323558162268
2.1251221896383186
2.0439882697947214
1.959921798631476
1.87683284457478
1.7976539589442817
1.7302052785923754
1.672531769305963
1.6138807429130009
1.5581622678396871
1.5083088954056696
1.4652981427174976
1.4301075268817205
1.401759530791789
1.3792766373411536
1.3607038123167154
1.3479960899315735
1.3391984359726294
1.335288367546432
1.3343108504398826
1.3333333333333333
1.332355816226784
1.332355816226784
1.332355816226784
1.3333333333333333
1.3343108504398826
1.3343108504398826
1.3343108504398826
1.3343108504398826
1.3333333333333333
1.332355816226784
1.332355816226784
1.3333333333333333
1.3343108504398826
1.3343108504398826
1.3343108504398826
1.3343108504398826
1.3343108504398826
1.3343108504398826
1.3343108504398826
1.3343108504398826
1.3343108504398826
1.3343108504398826
1.335288367546432
1.3362658846529814
1.335288367546432
1.335288367546432
1.335288367546432
1.335288367546432
1.335288367546432
1.392961876832845
1.4809384164222874
1.5268817204301075
1.552297165200391
1.5679374389051808
1.576735092864125
1.5826001955034212
1.5865102639296187
1.5884652981427174
1.5894428152492668
1.595307917888563
1.6138807429130009
1.6529814271749756
1.7204301075268815
1.8191593352883677
1.948191593352884
2.102639296187683
2.272727272727273
2.4252199413489737
2.563049853372434
2.708699902248289
2.8455522971652005
2.962854349951124
3.058651026392962
3.131964809384164
3.1847507331378297
3.2160312805474094
3.2297165200391005
3.2267839687194524
3.2111436950146626
3.1837732160312804
3.1485826001955037
3.1065493646138806
3.0547409579667644
2.9931573802541545
2.924731182795699
2.849462365591398
2.768328445747801
2.681329423264907
2.589442815249267
2.495601173020528
2.40078201368524
2.30791788856305
2.2277614858260018
2.155425219941349
2.0791788856304985
2.006842619745845
1.9393939393939397
1.878787878787879
1.826001955034213
1.7810361681329423
1.7429130009775171
1.7096774193548387
1.6813294232649072
1.656891495601173
1.6363636363636365
1.6217008797653958
1.6099706744868034
1.5962854349951123
1.5835777126099706
1.5708699902248289
1.5581622678396871
1.5454545454545454
1.533724340175953
1.521016617790811
1.5073313782991202
1.4936461388074291
1.479960899315738
1.469208211143695
1.4604105571847508
1.4486803519061584
1.4349951124144673
1.4213098729227762
1.4086021505376345
1.396871945259042
1.3870967741935485
1.3782991202346042
1.370478983382209
1.3616813294232648
1.3528836754643203
1.3450635386119256
1.3401759530791788
1.3391984359726294
1.3411534701857282
1.3528836754643203
1.383186705767351
1.4389051808406648
1.52297165200391
1.6363636363636365
1.775171065493646
1.932551319648094
2.096774193548387
2.2561094819159337
2.3870967741935485
2.493646138807429
2.5962854349951123
2.6832844574780057
2.7517106549364616
2.801564027370479
2.833822091886608
2.849462365591398
2.8514173998044967
2.841642228739003
2.820136852394917
2.788856304985337
2.7517106549364616
2.708699902248289
2.6559139784946235
2.595307917888563
2.527859237536657
2.452590420332356
2.3714565004887587
2.2873900293255134
2.2023460410557183
2.1163245356793743
2.03128054740958
1.9501466275659824
1.873900293255132
1.8113391984359728
1.758553274682307
1.7057673509286413
1.6559139784946235
1.611925708699902
1.5747800586510263
1.543499511241447
1.517106549364614
1.4946236559139785
1.4760508308895406
1.4613880742913
1.4486803519061584
1.4408602150537635
1.4349951124144673
1.4281524926686218
1.4222873900293256
1.4164222873900294
1.4115347018572826
1.4066471163245358
1.401759530791789
1.396871945259042
1.3900293255131966
1.383186705767351
1.3763440860215057
1.3695014662756595
1.364613880742913
1.3616813294232648
1.356793743890518
1.3509286412512218
1.3470185728250244
1.343108504398827
1.3401759530791788
1.3372434017595307
1.3343108504398826
1.3304007820136852
1.3264907135874875
1.324535679374389
1.327468230694037
1.3401759530791788
1.3655913978494625
1.412512218963832
1.4858260019550342
1.5894428152492668
1.721407624633431
1.8748778103616808
2.0410557184750733
2.209188660801564
2.3685239491691106
2.5112414467253177
2.631476050830889
2.718475073313783
2.780058651026393
2.83088954056696
2.866080156402737
2.886608015640274
2.89247311827957
2.884652981427175
2.8641251221896384
2.832844574780059
2.791788856304985
2.742913000977517
2.686217008797654
2.6285434995112413
2.56891495601173
2.4975562072336266
2.418377321603128
2.332355816226784
2.242424242424242
2.150537634408602
2.06158357771261
1.9765395894428155
1.895405669599218
1.8201368523949168
1.7517106549364614
1.6901270772238517
1.6422287390029326
1.6021505376344083
1.563049853372434
1.5278592375366569
1.4965786901270772
1.4701857282502444
1.447702834799609
1.4281524926686218
1.412512218963832
1.3978494623655917
1.3851417399804498
1.3734115347018572
1.3655913978494625
1.3616813294232648
1.3558162267839686
1.348973607038123
1.3411534701857282
1.3343108504398826
1.3255131964809383
1.3157380254154447
1.305962854349951
1.2961876832844574
1.2864125122189638
1.2766373411534702
1.267839687194526
1.262952101661779
1.260019550342131
1.2570869990224829
1.2541544477028348
1.2512218963831867
1.2482893450635386
1.2434017595307918
1.238514173998045
1.2336265884652982
1.2336265884652982
1.2424242424242424
1.267839687194526
1.305962854349951
1.3626588465298142
1.4506353861192571
1.5698924731182795
1.7126099706744868
1.871945259042033
2.037145650048876
2.198435972629521
2.347018572825025
2.47702834799609
2.58455522971652
2.668621700879765
2.7311827956989245
2.7673509286412514
2.7859237536656893
2.7947214076246336
2.793743890518084
2.7810361681329425
2.757575757575758
2.724340175953079
2.6823069403714563
2.632453567937439
2.573802541544477
2.50733137829912
2.434017595307918
2.364613880742913
2.236559139784946
2.069403714565005
1.9423264907135875
1.836754643206256
1.7438905180840665
1.6598240469208212
1.5826001955034212
1.5131964809384164
1.4496578690127078
1.3949169110459434
1.348973607038123
1.310850439882698
1.2825024437927663
1.2619745845552297
1.241446725317693
1.2238514173998043
1.2082111436950147
1.195503421309873
1.1857282502443791
1.1798631476050832
1.1749755620723363
1.1720430107526882
1.1691104594330402
1.166177908113392
1.166177908113392
1.1671554252199414
1.166177908113392
1.1652003910068427
1.163245356793744
1.1612903225806452
1.1583577712609971
1.1564027370478984
1.1544477028347997
1.1544477028347997
1.155425219941349
1.1583577712609971
1.163245356793744
1.1710654936461389
1.1788856304985338
1.18475073313783
1.1896383186705768
1.1945259042033236
1.1994134897360704
1.209188660801564
1.2297165200391007
1.2688172043010753
1.3313782991202343
1.4222873900293256
1.5405669599217986
1.6608015640273706
1.7869012707722385
1.9374389051808407
2.0948191593352883
2.24633431085044
2.383186705767351
2.501466275659824
2.598240469208211
2.6725317693059627
2.727272727272727
2.763440860215054
2.7839687194525906
2.790811339198436
2.782991202346041
2.7653958944281527
2.7390029325513194
2.7038123167155423
2.6608015640273703
2.6099706744868034
2.552297165200391
2.486803519061584
2.4164222873900294
2.3421309872922778
2.2639296187683287
2.182795698924731
2.10850439882698
2.040078201368524
1.9657869012707725
1.8914956011730208
1.8191593352883677
1.750733137829912
1.6881720430107527
1.632453567937439
1.58455522971652
1.542521994134897
1.5063538611925709
1.474095796676442
1.4496578690127078
1.43108504398827
1.412512218963832
1.393939393939394
1.3773216031280548
1.3626588465298142
1.348973607038123
1.3372434017595307
1.3255131964809383
1.313782991202346
1.3020527859237536
1.289345063538612
1.2766373411534702
1.2668621700879763
1.2580645161290325
1.24633431085044
1.2336265884652982
1.219941348973607
1.2072336265884651
1.1964809384164223
1.187683284457478
1.1798631476050832
1.1730205278592376
1.166177908113392
1.1583577712609971
1.1544477028347997
1.1515151515151516
1.1485826001955035
1.1505376344086022
1.163245356793744
1.1945259042033236
1.252199413489736
1.3401759530791788
1.458455522971652
1.6011730205278591
1.7595307917888563
1.9237536656891496
2.083088954056696
2.212121212121212
2.3167155425219943
2.4173998044965788
2.5034213098729228
2.572825024437928
2.624633431085044
2.6578690127077222
2.674486803519061
2.67644183773216
2.6666666666666665
2.6451612903225805
2.613880742913001
2.576735092864125
2.5347018572825024
2.482893450635386
2.4242424242424243
2.357771260997068
2.283479960899316
2.204301075268817
2.121212121212121
2.035190615835777
1.948191593352884
1.8621700879765395
1.7790811339198436
1.699902248289345
1.635386119257087
1.5806451612903225
1.5239491691104594
1.4711632453567938
1.423264907135875
1.3812316715542523
1.3450635386119256
1.3147605083088951
1.2903225806451613
1.2697947214076246
1.252199413489736
1.2375366568914956
1.2267839687194526
1.2179863147605083
1.2082111436950147
1.198435972629521
1.187683284457478
1.1779081133919844
1.1681329423264908
1.1583577712609971
1.147605083088954
1.1378299120234605
1.1280547409579669
1.1192570869990224
1.1114369501466277
1.10752688172043
1.1055718475073313
1.1006842619745845
1.0957966764418376
1.0909090909090908
1.0869990224828934
1.0821114369501466
1.0772238514173995
1.072336265884653
1.067448680351906
1.0635386119257086
1.0635386119257086
1.0703812316715542
1.088954056695992
1.1241446725317692
1.18475073313783
1.2756598240469208
1.396871945259042
1.543499511241447
1.70772238514174
1.8778103616813293
2.0439882697947214
2.1955034213098727
2.3284457478005867
2.439882697947214
2.5180840664711632
2.570869990224829
2.6148582600195502
2.64613880742913
2.66177908113392
2.662756598240469
2.6510263929618767
2.627565982404692
2.593352883675464
2.549364613880743
2.496578690127077
2.4359726295210167
2.376344086021505
2.314760508308896
2.243401759530792
2.164222873900293
2.0791788856304985
1.991202346041056
1.903225806451613
1.818181818181818
1.7380254154447703
1.6627565982404693
1.5943304007820136
1.530791788856305
1.4750733137829912
1.4320625610948192
1.396871945259042
1.3616813294232648
1.3284457478005864
1.2991202346041055
1.273704789833822
1.2512218963831867
1.2326490713587488
1.2160312805474096
1.2013685239491692
1.1896383186705768
1.1788856304985338
1.1710654936461389
1.1652003910068427
1.1564027370478984
1.147605083088954
1.1378299120234605
1.1280547409579669
1.118279569892473
1.1085043988269794
1.0987292277614855
1.088954056695992
1.0801564027370478
1.0703812316715542
1.0606060606060606
1.0547409579667644
1.0518084066471165
1.0478983382209188
1.043010752688172
1.0361681329423265
1.029325513196481
1.0224828934506354
1.0127077223851415
1.0048875855327468
1.0087976539589445
1.0303030303030305
1.0772238514173995
1.1397849462365592
1.2238514173998043
1.346041055718475
1.499511241446725
1.6744868035190617
1.8602150537634408
2.04594330400782
2.219941348973607
2.3743890518084068
2.505376344086021
2.6099706744868034
2.689149560117302
2.745845552297165
2.777126099706745
2.787878787878788
2.789833822091887
2.780058651026393
2.757575757575758
2.7233626588465296
2.678396871945259
2.6236559139784945
2.5591397849462365
2.486803519061584
2.406647116324536
2.3196480938416424
2.2385141739980448
2.158357771260997
2.069403714565005
1.9765395894428155
1.8836754643206255
1.7947214076246334
1.710654936461388
1.6314760508308896
1.5591397849462365
1.495601173020528
1.439882697947214
1.391006842619746
1.348973607038123
1.3176930596285434
1.2942326490713587
1.2727272727272727
1.2531769305962854
1.2355816226783969
1.2209188660801564
1.2082111436950147
1.1974584555229717
1.1886608015640274
1.181818181818182
1.176930596285435
1.1730205278592376
1.1730205278592376
1.173998044965787
1.1730205278592376
1.1710654936461389
1.1681329423264908
1.164222873900293
1.160312805474096
1.1564027370478984
1.1534701857282503
1.1505376344086022
1.1485826001955035
1.1485826001955035
1.152492668621701
1.1593352883675463
1.1671554252199414
1.1749755620723363
1.1827956989247312
1.1896383186705768
1.2003910068426198
1.2218963831867058
1.2619745845552297
1.3264907135874875
1.4222873900293256
1.5503421309872922
1.70772238514174
1.8602150537634408
2.010752688172043
2.182795698924731
2.357771260997068
2.5210166177908118
2.6637341153470184
2.782013685239492
2.875855327468231
2.946236559139785
2.995112414467253
3.024437927663734
3.037145650048876
3.0332355816226784
3.0175953079178885
2.994134897360704
2.961876832844575
2.920821114369501
2.8699902248289346
2.8103616813294234
2.742913000977517
2.6695992179863146
2.589442815249267
2.504398826979472
2.41544477028348
2.3255131964809386
2.2453567937438903
2.172043010752688
2.093841642228739
2.0175953079178885
1.945259042033236
1.8797653958944285
1.8201368523949168
1.7673509286412512
1.721407624633431
1.6813294232649072
1.6451612903225807
1.6138807429130009
1.5894428152492668
1.5698924731182795
1.5503421309872922
1.530791788856305
1.5131964809384164
1.4975562072336266
1.482893450635386
1.4672531769305963
1.4516129032258065
1.435972629521017
1.4203323558162269
1.4037145650048877
1.3870967741935485
1.3743890518084063
1.364613880742913
1.3509286412512218
1.3343108504398826
1.316715542521994
1.2991202346041055
1.2834799608993157
1.270772238514174
1.2590420332355816
1.2473118279569892
1.2365591397849462
1.2258064516129032
1.219941348973607
1.2179863147605083
1.219941348973607
1.2355816226783969
1.2717497556207231
1.335288367546432
1.43108504398827
1.5591397849462365
1.7145650048875856
1.889540566959922
2.0733137829912023
2.2521994134897363
2.4164222873900294
2.5425219941348973
2.6392961876832843
2.7262952101661777
2.795698924731183
2.8475073313782997
2.8807429130009776
2.897360703812317
2.898338220918866
2.886608015640274
2.863147605083089
2.8269794721407626
2.7810361681329425
2.730205278592375
2.67644183773216
2.6129032258064515
2.5405669599217986
2.4613880742913
2.375366568914956
2.2844574780058653
2.188660801564027
2.090909090909091
1.994134897360704
1.8993157380254155
1.8103616813294232
1.7272727272727273
1.6598240469208212
1.603128054740958
1.5464320625610948
1.4946236559139785
1.447702834799609
1.4056695992179864
1.3685239491691104
1.3362658846529814
1.3079178885630498
1.284457478005865
1.2639296187683284
1.24633431085044
1.2346041055718475
1.2267839687194526
1.2160312805474096
1.2043010752688172
1.1925708699902249
1.1779081133919844
1.1612903225806452
1.1436950146627567
1.1270772238514175
1.1173020527859236
1.1202346041055715
1.142717497556207
1.1915933528836755
1.2570869990224829
1.3440860215053765
1.4672531769305963
1.6177908113391983
1.7849462365591398
1.9560117302052784
2.120234604105572
2.269794721407625
2.39980449657869
2.50733137829912
2.591397849462365
2.653958944281525
2.69208211143695
2.7126099706744866
2.724340175953079
2.7262952101661777
2.718475073313783
2.702834799608993
2.677419354838709
2.6422287390029324
2.598240469208211
2.5434995112414467
2.4789833822091887
2.406647116324536
2.3274682306940373
2.251221896383187
2.175953079178885
2.089931573802541
1.9990224828934504
1.90811339198436
1.8211143695014664
1.7380254154447703
1.66177908113392
1.5933528836754642
1.5317693059628543
1.478005865102639
1.4320625610948192
1.3978494623655917
1.3714565004887584
1.346041055718475
1.321603128054741
1.2981427174975562
1.2756598240469208
1.2531769305962854
1.23069403714565
1.209188660801564
1.1896383186705768
1.1700879765395895
1.1505376344086022
1.1319648093841643
1.1192570869990224
1.1094819159335287
1.096774193548387
1.083088954056696
1.0684261974584557
1.0527859237536656
1.0381231671554252
1.0234604105571847
1.0097751710654936
0.9960899315738024
0.9833822091886608
0.9696969696969696
0.959921798631476
0.9530791788856304
0.9413489736070382
0.9286412512218964
0.916911045943304
0.906158357771261
0.895405669599218
0.8856304985337243
0.8787878787878788
0.8719452590420332
0.8641251221896383
0.8563049853372434
0.8543499511241447
0.855327468230694
0.8572825024437928
0.8680351906158358
0.8944281524926686
0.946236559139785
1.0303030303030305
1.1485826001955035
1.3010752688172045
1.4809384164222874
1.6774193548387095
1.878787878787879
2.074291300097752
2.233626588465298
2.3626588465298144
2.486803519061584
2.593352883675464
2.679374389051808
2.744868035190616
2.787878787878788
2.8103616813294234
2.8152492668621703
2.8054740957966766
2.782013685239492
2.7438905180840663
2.6989247311827955
2.6471163245356792
2.5835777126099706
2.5112414467253177
2.432062561094819
2.345063538611926
2.2521994134897363
2.1544477028347995
2.0547409579667644
1.956989247311828
1.8621700879765395
1.7712609970674489
1.6871945259042034
1.6187683284457477
1.5610948191593352
1.504398826979472
1.4516129032258065
1.404692082111437
1.3636363636363635
1.327468230694037
1.2961876832844574
1.2697947214076246
1.2453567937438903
1.2238514173998043
1.2052785923753666
1.1925708699902249
1.1837732160312806
1.1730205278592376
1.1612903225806452
1.1515151515151516
1.142717497556207
1.1329423264907137
1.1231671554252198
1.1133919843597262
1.104594330400782
1.0957966764418376
1.0869990224828934
1.0791788856304985
1.0762463343108504
1.075268817204301
1.072336265884653
1.067448680351906
1.06158357771261
1.0547409579667644
1.0488758553274682
1.0439882697947214
1.043010752688172
1.053763440860215
1.0840664711632453
1.1397849462365592
1.209188660801564
1.2991202346041055
1.4252199413489737
1.5806451612903225
1.7546432062561097
1.935483870967742
2.1114369501466275
2.274682306940372
2.419354838709677
2.5405669599217986
2.6373411534701856
2.710654936461388
2.7614858260019552
2.788856304985337
2.7996089931573804
2.801564027370479
2.791788856304985
2.773216031280548
2.744868035190616
2.7067448680351904
2.659824046920821
2.6050830889540566
2.5425219941348973
2.474095796676442
2.39980449657869
2.3284457478005867
2.260019550342131
2.1837732160312804
2.103616813294233
2.0254154447702835
1.9501466275659824
1.8807429130009776
1.8172043010752688
1.7605083088954057
1.7116324535679377
1.6695992179863148
1.6334310850439884
1.6041055718475072
1.581622678396872
1.5650048875855327
1.5483870967741935
1.5347018572825024
1.5239491691104594
1.5141739980449658
1.5053763440860215
1.4965786901270772
1.4887585532746823
1.482893450635386
1.47702834799609
1.469208211143695
1.4633431085043989
1.458455522971652
1.4516129032258065
1.4428152492668622
1.4330400782013686
1.423264907135875
1.4134897360703813
1.4027370478983383
1.3919843597262953
1.3812316715542523
1.370478983382209
1.359726295210166
1.3509286412512218
1.3450635386119256
1.3401759530791788
1.3343108504398826
1.3284457478005864
1.324535679374389
1.3206256109481915
1.316715542521994
1.3118279569892473
1.305962854349951
1.3020527859237536
1.3020527859237536
1.3128054740957966
1.332355816226784
1.3685239491691104
1.434017595307918
1.5327468230694037
1.6637341153470186
1.825024437927664
2.005865102639296
2.1945259042033234
2.377321603128055
2.544477028347996
2.689149560117302
