ppg
1.2228739002932552
1.2238514173998043
1.2218963831867058
1.217008797653959
1.2082111436950147
1.1974584555229717
1.1886608015640274
1.1886608015640274
1.2052785923753666
1.2365591397849462
1.289345063538612
1.3782991202346042
1.504398826979472
1.6656891495601174
1.8533724340175952
2.056695992179863
2.260997067448681
2.452590420332356
2.621700879765396
2.760508308895406
2.865102639296188
2.9345063538611926
2.967741935483871
2.972629521016618
2.9589442815249267
2.9286412512218964
2.8836754643206257
2.8269794721407626
2.7614858260019552
2.689149560117302
2.611925708699902
2.5317693059628543
2.450635386119257
2.3685239491691106
2.294232649071359
2.2238514173998043
2.147605083088954
2.069403714565005
1.992179863147605
1.9159335288367547
1.8416422287390029
1.76930596285435
1.699902248289345
1.6334310850439884
1.5698924731182795
1.509286412512219
1.4516129032258065
1.404692082111437
1.364613880742913
1.3235581622678396
1.2834799608993157
1.24633431085044
1.2130987292277615
1.1837732160312806
1.1583577712609971
1.1368523949169111
1.1202346041055715
1.10752688172043
1.0987292277614855
1.0957966764418376
1.096774193548387
1.0987292277614855
1.1026392961876832
1.1085043988269794
1.115347018572825
1.1221896383186705
1.1290322580645162
1.1368523949169111
1.1436950146627567
1.1505376344086022
1.155425219941349
1.160312805474096
1.1652003910068427
1.1700879765395895
1.1720430107526882
1.1730205278592376
1.173998044965787
1.173998044965787
1.1720430107526882
1.1691104594330402
1.1652003910068427
1.1593352883675463
1.152492668621701
1.1436950146627567
1.1358748778103618
1.1290322580645162
1.1192570869990224
1.1094819159335287
1.1065493646138806
1.118279569892473
1.152492668621701
1.2179863147605083
1.3186705767350928
1.455522971652004
1.6265884652981428
1.822091886608016
2.0303030303030303
2.210166177908113
2.367546432062561
2.525904203323558
2.6666666666666665
2.7781036168132944
2.857282502443793
2.9042033235581624
2.921798631476051
2.913978494623656
2.886608015640274
2.844574780058651
2.789833822091887
2.7311827956989245
2.6695992179863146
2.60019550342131
2.525904203323558
2.4486803519061584
2.36950146627566
2.289345063538612
2.209188660801564
2.1300097751710654
2.050830889540567
1.9736070381231672
1.8973607038123168
1.823069403714565
1.758553274682307
1.699902248289345
1.6373411534701858
1.573802541544477
1.5102639296187683
1.4496578690127078
1.392961876832845
1.3401759530791788
1.29227761485826
1.2473118279569892
1.2072336265884651
1.1700879765395895
1.142717497556207
1.1202346041055715
1.096774193548387
1.0742913000977516
1.0557184750733135
1.040078201368524
1.0283479960899315
1.0205278592375366
1.0166177908113392
1.0166177908113392
1.018572825024438
1.0234604105571847
1.0312805474095796
1.0410557184750733
1.0527859237536656
1.0635386119257086
1.0742913000977516
1.0850439882697946
1.0957966764418376
1.1055718475073313
1.1143695014662756
1.121212121212121
1.126099706744868
1.1290322580645162
1.130987292277615
1.133919843597263
1.1358748778103618
1.1348973607038124
1.1329423264907137
1.1290322580645162
1.1251221896383188
1.1202346041055715
1.1143695014662756
1.1065493646138806
1.0977517106549364
1.088954056695992
1.0850439882697946
1.0918866080156402
1.1114369501466277
1.1485826001955035
1.2150537634408602
1.313782991202346
1.444770283479961
1.6050830889540566
1.7859237536656891
1.9765395894428155
2.163245356793744
2.335288367546432
2.484848484848485
2.6041055718475072
2.6832844574780057
2.730205278592375
2.7595307917888565
2.7673509286412514
2.755620723362659
2.7262952101661777
2.6832844574780057
2.6285434995112413
2.5650048875855327
2.4946236559139785
2.420332355816227
2.343108504398827
2.271749755620724
2.203323558162268
2.129032258064516
2.0518084066471163
1.9745845552297163
1.8983382209188664
1.8240469208211143
1.7517106549364614
1.6823069403714566
1.6158357771260996
1.552297165200391
1.4926686217008798
1.436950146627566
1.391006842619746
1.3499511241446724
1.305962854349951
1.2649071358748778
1.227761485826002
1.1945259042033236
1.166177908113392
1.1407624633431086
1.1192570869990224
1.1016617790811338
1.088954056695992
1.0791788856304985
1.075268817204301
1.0762463343108504
1.078201368523949
1.0821114369501466
1.0879765395894427
1.0948191593352885
1.1026392961876832
1.1114369501466277
1.1221896383186705
1.1319648093841643
1.141739980449658
1.1515151515151516
1.160312805474096
1.1681329423264908
1.1759530791788857
1.1827956989247312
1.1886608015640274
1.1915933528836755
1.1935483870967742
1.1945259042033236
1.1945259042033236
1.1935483870967742
1.1915933528836755
1.1886608015640274
1.1837732160312806
1.1798631476050832
1.1759530791788857
1.1681329423264908
1.160312805474096
1.1564027370478984
1.163245356793744
1.1886608015640274
1.2404692082111437
1.3264907135874875
1.4506353861192571
1.6099706744868034
1.7976539589442817
2.002932551319648
2.1837732160312804
2.3440860215053765
2.5112414467253177
2.6637341153470184
2.789833822091887
2.8826979472140764
2.9423264907135875
2.970674486803519
2.9716520039100685
2.951124144672532
2.913000977517106
2.8611925708699903
2.8044965786901277
2.742913000977517
2.673509286412512
2.5992179863147604
2.5210166177908118
2.4408602150537635
2.360703812316716
2.280547409579668
2.201368523949169
2.12316715542522
2.04594330400782
1.9696969696969695
1.8944281524926687
1.828934506353861
1.76930596285435
1.7057673509286413
1.6422287390029326
1.5806451612903225
1.521016617790811
1.4652981427174976
1.412512218963832
1.364613880742913
1.3196480938416422
1.278592375366569
1.2404692082111437
1.2121212121212122
1.1886608015640274
1.1652003910068427
1.1436950146627567
1.126099706744868
1.1114369501466277
1.1006842619745845
1.093841642228739
1.0909090909090908
1.0909090909090908
1.093841642228739
1.0987292277614855
1.104594330400782
1.1124144672531768
1.121212121212121
1.1290322580645162
1.1368523949169111
1.1436950146627567
1.1495601173020529
1.1544477028347997
1.1583577712609971
1.1612903225806452
1.163245356793744
1.164222873900293
1.164222873900293
1.164222873900293
1.164222873900293
1.1622678396871946
1.1593352883675463
1.1544477028347997
1.147605083088954
1.1407624633431086
1.130987292277615
1.1192570869990224
1.1085043988269794
1.1006842619745845
1.1026392961876832
1.1231671554252198
1.1593352883675463
1.2189638318670577
1.316715542521994
1.4545454545454546
1.6265884652981428
1.8240469208211143
2.034213098729228
2.243401759530792
2.4389051808406648
2.608993157380254
2.745845552297165
2.84652981427175
2.906158357771261
2.932551319648094
2.9393939393939394
2.9257086999022484
2.895405669599218
2.849462365591398
2.791788856304985
2.7262952101661777
2.654936461388074
2.579667644183773
2.501466275659824
2.4222873900293256
2.3421309872922778
2.269794721407625
2.201368523949169
2.1280547409579667
2.0527859237536656
1.9775171065493649
1.9042033235581624
1.8318670576735088
1.7605083088954057
1.6911045943304008
1.624633431085044
1.5610948191593352
1.500488758553275
1.4506353861192571
1.4086021505376345
1.3636363636363635
1.3196480938416422
1.278592375366569
1.2404692082111437
1.2072336265884651
1.1779081133919844
1.152492668621701
1.130987292277615
1.1143695014662756
1.1016617790811338
1.0928641251221896
1.088954056695992
1.088954056695992
1.0909090909090908
1.093841642228739
1.0987292277614855
1.104594330400782
1.1114369501466277
1.1192570869990224
1.1280547409579669
1.1358748778103618
1.1436950146627567
1.1505376344086022
1.1564027370478984
1.1622678396871946
1.1652003910068427
1.1652003910068427
1.1652003910068427
1.1652003910068427
1.1652003910068427
1.164222873900293
1.1612903225806452
1.1583577712609971
1.1534701857282503
1.1466275659824048
1.13880742913001
1.1319648093841643
1.1241446725317692
1.1133919843597262
1.1016617790811338
1.093841642228739
1.0977517106549364
1.1202346041055715
1.1700879765395895
1.2531769305962854
1.370478983382209
1.521016617790811
1.696969696969697
1.86119257086999
2.016617790811339
2.187683284457478
2.35386119257087
2.501466275659824
2.621700879765396
2.710654936461388
2.768328445747801
2.795698924731183
2.7976539589442817
2.7781036168132944
2.740957966764418
2.695014662756598
2.6422287390029324
2.578690127077224
2.509286412512219
2.4349951124144678
2.358748778103617
2.281524926686217
2.204301075268817
2.126099706744868
2.048875855327468
1.9726295210166176
1.8973607038123168
1.8240469208211143
1.7605083088954057
1.7028347996089932
1.640273704789834
1.576735092864125
1.5141739980449658
1.4545454545454546
1.396871945259042
1.3421309872922775
1.2913000977517106
1.2453567937438903
1.203323558162268
1.1652003910068427
1.1358748778103618
1.1124144672531768
1.0879765395894427
1.064516129032258
1.043010752688172
1.024437927663734
1.0097751710654936
0.9990224828934506
0.9960899315738024
0.9990224828934506
1.0019550342130987
1.0058651026392962
1.0117302052785924
1.021505376344086
1.032258064516129
1.0439882697947214
1.056695992179863
1.0694037145650048
1.0811339198435972
1.0918866080156402
1.1016617790811338
1.110459433040078
1.118279569892473
1.1251221896383188
1.1300097751710656
1.1348973607038124
1.13880742913001
1.1397849462365592
1.13880742913001
1.1358748778103618
1.1329423264907137
1.1280547409579669
1.1231671554252198
1.1163245356793745
1.10752688172043
1.0987292277614855
1.0928641251221896
1.0957966764418376
1.110459433040078
1.1407624633431086
1.1974584555229717
1.2854349951124144
1.4066471163245358
1.5591397849462365
1.7341153470185728
1.920821114369501
2.10850439882698
2.286412512218964
2.443792766373412
2.573802541544477
2.662756598240469
2.718475073313783
2.755620723362659
2.76930596285435
2.7614858260019552
2.7331378299120237
2.6881720430107525
2.631476050830889
2.5640273704789838
2.489736070381232
2.410557184750733
2.329423264907136
2.24633431085044
2.172043010752688
2.102639296187683
1.9902248289345064
1.913978494623656
1.8377321603128052
1.694037145650049
1.6265884652981428
1.563049853372434
1.4731182795698925
1.4193548387096775
1.375366568914956
1.33822091886608
1.2795698924731185
1.2424242424242424
1.2082111436950147
1.164222873900293
1.1397849462365592
1.1192570869990224
1.1026392961876832
1.0899315738025417
1.0801564027370478
1.0733137829912025
1.072336265884653
1.0742913000977516
1.0772238514173995
1.0811339198435972
1.0869990224828934
1.0948191593352885
1.1036168132942326
1.1124144672531768
1.121212121212121
1.1300097751710656
1.13880742913001
1.147605083088954
1.1564027370478984
1.1652003910068427
1.1710654936461389
1.1749755620723363
1.1779081133919844
1.1808406647116323
1.1827956989247312
1.1837732160312806
1.1837732160312806
1.1827956989247312
1.1808406647116323
1.176930596285435
1.1710654936461389
1.1671554252199414
1.164222873900293
1.1622678396871946
1.1671554252199414
1.2101661779081134
1.2717497556207231
1.367546432062561
1.5728250244379276
1.7517106549364614
1.9521016617790807
2.161290322580645
2.3391984359726297
2.490713587487781
2.6422287390029324
2.774193548387097
2.87683284457478
2.946236559139785
2.98435972629521
2.9931573802541545
2.9775171065493646
2.941348973607038
2.8905180840664717
2.8299120234604107
2.7624633431085046
2.695014662756598
2.6265884652981426
2.5513196480938416
2.472140762463343
2.391006842619746
2.3088954056695994
2.2267839687194524
2.146627565982405
2.067448680351906
1.989247311827957
1.913978494623656
1.8406647116324533
1.7771260997067448
1.7204301075268815
1.66177908113392
1.6021505376344083
1.543499511241447
1.4868035190615836
1.4330400782013686
1.3822091886608017
1.335288367546432
1.29227761485826
1.2541544477028348
1.219941348973607
1.1906158357771262
1.1691104594330402
1.152492668621701
1.1368523949169111
1.1231671554252198
1.1124144672531768
1.1055718475073313
1.1026392961876832
1.1036168132942326
1.10752688172043
1.1133919843597262
1.1192570869990224
1.126099706744868
1.1348973607038124
1.144672531769306
1.152492668621701
1.160312805474096
1.1671554252199414
1.1720430107526882
1.1759530791788857
1.1788856304985338
1.1808406647116323
1.1808406647116323
1.1798631476050832
1.1788856304985338
1.1788856304985338
1.1798631476050832
1.1779081133919844
1.1730205278592376
1.166177908113392
1.1573802541544478
1.1466275659824048
1.1358748778103618
1.1290322580645162
1.1319648093841643
1.152492668621701
1.198435972629521
1.2756598240469208
1.3665689149560116
1.478005865102639
1.629521016617791
1.8074291300097751
1.9990224828934504
2.1915933528836757
2.3704789833822093
2.525904203323558
2.6529814271749754
2.745845552297165
2.8044965786901277
2.831867057673509
2.832844574780059
2.8132942326490715
2.7781036168132944
2.729227761485826
2.6715542521994133
2.606060606060606
2.535679374389052
2.4613880742913
2.3851417399804498
2.3088954056695994
2.231671554252199
2.155425219941349
2.080156402737048
2.013685239491691
1.951124144672532
1.884652981427175
1.8162267839687196
1.7468230694037146
1.6793743890518085
1.6148582600195502
1.552297165200391
1.4936461388074291
1.4379276637341154
1.3841642228739004
1.3343108504398826
1.2942326490713587
1.2609970674486803
1.2258064516129032
1.1915933528836755
1.1593352883675463
1.130987292277615
1.1055718475073313
1.0840664711632453
1.0664711632453567
1.0527859237536656
1.0420332355816226
1.035190615835777
1.0312805474095796
1.032258064516129
1.0361681329423265
1.0410557184750733
1.0478983382209188
1.056695992179863
1.0654936461388074
1.075268817204301
1.0850439882697946
1.0948191593352885
1.104594330400782
1.1133919843597262
1.121212121212121
1.1290322580645162
1.1358748778103618
1.1397849462365592
1.142717497556207
1.1436950146627567
1.1436950146627567
1.1407624633431086
1.1368523949169111
1.1319648093841643
1.126099706744868
1.1192570869990224
1.1124144672531768
1.1036168132942326
1.0987292277614855
1.0957966764418376
1.0957966764418376
1.104594330400782
1.1300097751710656
1.1788856304985338
1.2580645161290325
1.3695014662756595
1.5102639296187683
1.6735092864125125
1.8514173998044965
2.03128054740958
2.182795698924731
2.3098729227761488
2.4330400782013686
2.535679374389052
2.6129032258064515
2.662756598240469
2.6852394916911044
2.684261974584555
2.66177908113392
2.622678396871945
2.5718475073313782
2.512218963831867
2.4457478005865103
2.3822091886608017
2.318670576735093
2.247311827956989
2.1730205278592374
2.0977517106549364
2.022482893450636
1.9472140762463344
1.8748778103616808
1.8035190615835777
1.7341153470185728
1.6686217008797657
1.606060606060606
1.5532746823069403
1.5053763440860215
1.4535679374389052
1.4027370478983383
1.3548387096774193
1.3098729227761483
1.2688172043010753
1.2316715542521994
1.198435972629521
1.1691104594330402
1.1436950146627567
1.1231671554252198
1.1065493646138806
1.0957966764418376
1.0899315738025417
1.086021505376344
1.0840664711632453
1.0840664711632453
1.0879765395894427
1.093841642228739
1.1016617790811338
1.1124144672531768
1.1241446725317692
1.1368523949169111
1.1505376344086022
1.164222873900293
1.1779081133919844
1.1906158357771262
1.2023460410557183
1.2140762463343109
1.2238514173998043
1.2316715542521994
1.238514173998045
1.2424242424242424
1.2453567937438903
1.24633431085044
1.2473118279569892
1.2473118279569892
1.2473118279569892
1.24633431085044
1.241446725317693
1.2326490713587488
1.2228739002932552
1.2160312805474096
1.2150537634408602
1.2287390029325511
1.2649071358748778
1.3304007820136852
1.4291300097751711
1.563049853372434
1.699902248289345
1.844574780058651
2.0205278592375366
2.207233626588465
2.389051808406647
2.552297165200391
2.6881720430107525
2.791788856304985
2.863147605083089
2.903225806451613
2.9149560117302054
2.902248289345064
2.8699902248289346
2.8269794721407626
2.7751710654936463
2.7126099706744866
2.643206256109482
2.56891495601173
2.4916911045943304
2.412512218963832
2.332355816226784
2.251221896383187
2.172043010752688
2.0928641251221896
2.0146627565982405
1.946236559139785
1.8836754643206255
1.8172043010752688
1.7497556207233629
1.6842619745845553
1.6207233626588464
1.5591397849462365
1.499511241446725
1.4437927663734116
1.3919843597262953
1.3450635386119256
1.3020527859237536
1.2619745845552297
1.23069403714565
1.2052785923753666
1.1798631476050832
1.155425219941349
1.133919843597263
1.1173020527859236
1.104594330400782
1.0948191593352885
1.088954056695992
1.086021505376344
1.086021505376344
1.088954056695992
1.0948191593352885
1.1026392961876832
1.1094819159335287
1.1173020527859236
1.1241446725317692
1.1300097751710656
1.1348973607038124
1.13880742913001
1.142717497556207
1.1466275659824048
1.1495601173020529
1.1515151515151516
1.1544477028347997
1.1583577712609971
1.160312805474096
1.160312805474096
1.1593352883675463
1.1564027370478984
1.152492668621701
1.1466275659824048
1.1368523949169111
1.126099706744868
1.118279569892473
1.118279569892473
1.133919843597263
1.163245356793744
1.2140762463343109
1.3010752688172045
1.4242424242424243
1.581622678396872
1.7673509286412512
1.9687194525904204
2.1739980449657867
2.36950146627566
2.5425219941348973
2.686217008797654
2.7966764418377323
2.865102639296188
2.900293255131965
2.9159335288367547
2.911045943304008
2.886608015640274
2.84652981427175
2.793743890518084
2.7331378299120237
2.665689149560117
2.5943304007820136
2.520039100684262
2.443792766373412
2.366568914956012
2.2961876832844577
2.2297165200391005
2.158357771260997
2.085043988269794
2.0117302052785924
1.93841642228739
1.8670576735092863
1.7976539589442817
1.7302052785923754
1.6656891495601174
1.603128054740958
1.544477028347996
1.495601173020528
1.4516129032258065
1.4056695992179864
1.359726295210166
1.316715542521994
1.2766373411534702
1.2404692082111437
1.2082111436950147
1.181818181818182
1.1583577712609971
1.1397849462365592
1.1251221896383188
1.1143695014662756
1.1094819159335287
1.1085043988269794
1.10752688172043
1.1085043988269794
1.1114369501466277
1.115347018572825
1.121212121212121
1.1280547409579669
1.1358748778103618
1.142717497556207
1.1505376344086022
1.1573802541544478
1.164222873900293
1.1700879765395895
1.1730205278592376
1.173998044965787
1.173998044965787
1.173998044965787
1.173998044965787
1.1730205278592376
1.1710654936461389
1.1671554252199414
1.1612903225806452
1.152492668621701
1.1407624633431086
1.1319648093841643
1.1251221896383188
1.121212121212121
1.126099706744868
1.1505376344086022
1.2013685239491692
1.2864125122189638
1.4066471163245358
1.552297165200391
1.7253176930596286
1.924731182795699
2.132942326490713
2.30791788856305
2.4545454545454546
2.5972629521016617
2.717497556207233
2.806451612903226
2.86217008797654
2.8856304985337244
2.8807429130009776
2.8533724340175954
2.8084066471163247
2.7497556207233624
2.681329423264907
2.606060606060606
2.532746823069404
2.4604105571847508
2.3822091886608017
2.300097751710655
2.2170087976539588
2.132942326490713
2.0498533724340176
1.9667644183773216
1.8856304985337244
1.8074291300097751
1.7331378299120237
1.6608015640273706
1.6001955034213098
1.5454545454545454
1.4868035190615836
1.4281524926686218
1.3714565004887584
1.316715542521994
1.2639296187683284
1.2160312805474096
1.1720430107526882
1.1319648093841643
1.0957966764418376
1.0625610948191593
1.0332355816226784
1.0127077223851415
0.9980449657869012
0.9833822091886608
0.9696969696969696
0.9579667644183774
0.9491691104594332
0.9433040078201368
0.9403714565004888
0.9393939393939394
0.9413489736070382
0.9452590420332356
0.9511241446725318
0.959921798631476
0.9687194525904204
0.9765395894428152
0.9833822091886608
0.989247311827957
0.9931573802541545
0.9960899315738024
0.9990224828934506
1.0009775171065494
1.002932551319648
1.0048875855327468
1.0068426197458455
1.0068426197458455
1.0087976539589445
1.010752688172043
1.0097751710654936
1.0058651026392962
1.0
0.9921798631476052
0.9833822091886608
0.9775171065493646
0.9794721407624634
0.9951124144672532
1.0332355816226784
1.099706744868035
1.1808406647116323
1.2834799608993157
1.426197458455523
1.5992179863147604
1.7917888563049853
1.9902248289345064
2.1818181818181817
2.355816226783969
2.5034213098729228
2.618768328445748
2.699902248289345
2.748778103616813
2.766373411534702
2.7595307917888565
2.7341153470185726
2.6930596285435
2.6392961876832843
2.575757575757576
2.504398826979472
2.4271749755620724
2.347018572825025
2.264907135874878
2.1818181818181817
2.0987292277614857
2.016617790811339
1.943304007820137
1.8758553274682308
1.8035190615835777
1.729227761485826
1.6549364613880744
1.5835777126099706
1.5131964809384164
1.4457478005865103
1.383186705767351
1.3235581622678396
1.2688172043010753
1.2189638318670577
1.1720430107526882
1.1358748778103618
1.10752688172043
1.0772238514173995
1.0478983382209188
1.021505376344086
0.9980449657869012
0.978494623655914
0.9618768328445748
0.9481915933528836
0.9393939393939394
0.9345063538611924
0.9325513196480938
0.9364613880742912
0.9442815249266864
0.9530791788856304
0.9628543499511242
0.9745845552297164
0.9863147605083088
0.9990224828934506
1.0117302052785924
1.024437927663734
1.0342130987292275
1.043010752688172
1.0518084066471165
1.0606060606060606
1.0694037145650048
1.0762463343108504
1.0821114369501466
1.086021505376344
1.0879765395894427
1.088954056695992
1.088954056695992
1.0869990224828934
1.083088954056696
1.0772238514173995
1.0713587487781036
1.0684261974584557
1.0703812316715542
1.0821114369501466
1.1085043988269794
1.1573802541544478
1.2365591397849462
1.3479960899315735
1.4916911045943304
1.66177908113392
1.8504398826979471
2.0449657869012707
2.231671554252199
2.40078201368524
2.5288367546432062
2.621700879765396
2.7008797653958942
2.755620723362659
2.7839687194525906
2.7859237536656893
2.766373411534702
2.729227761485826
2.678396871945259
2.616813294232649
2.547409579667644
2.472140762463343
2.3929618768328447
2.318670576735093
2.247311827956989
2.1700879765395893
2.089931573802541
2.0087976539589443
1.9286412512218964
1.8504398826979471
1.7741935483870968
1.7008797653958945
1.6304985337243405
1.564027370478983
1.499511241446725
1.4457478005865103
1.3978494623655917
1.3479960899315735
1.2991202346041055
1.2531769305962854
1.2111436950146628
1.1730205278592376
1.1378299120234605
1.10752688172043
1.0821114369501466
1.0606060606060606
1.043010752688172
1.0303030303030305
1.024437927663734
1.0234604105571847
1.0234604105571847
1.0263929618768328
1.0332355816226784
1.0420332355816226
1.0547409579667644
1.0703812316715542
1.0869990224828934
1.104594330400782
1.1221896383186705
1.13880742913001
1.1534701857282503
1.1671554252199414
1.1788856304985338
1.1886608015640274
1.1964809384164223
1.2023460410557183
1.2052785923753666
1.2072336265884651
1.2072336265884651
1.206256109481916
1.203323558162268
1.198435972629521
1.1915933528836755
1.18475073313783
1.1779081133919844
1.1681329423264908
1.160312805474096
1.1593352883675463
1.1730205278592376
1.2101661779081134
1.2766373411534702
1.3763440860215057
1.509286412512219
1.6705767350928642
1.8523949169110456
2.016617790811339
2.1681329423264906
2.3304007820136854
2.4819159335288368
2.611925708699902
2.7145650048875853
2.7869012707722387
2.8299120234604107
2.84652981427175
2.8406647116324537
2.81622678396872
2.776148582600196
2.7233626588465296
2.665689149560117
2.6050830889540566
2.557184750733138
2.5141739980449658
2.452590420332356
2.380254154447703
2.304007820136853
2.2248289345063537
2.146627565982405
2.069403714565005
1.9931573802541545
1.919843597262952
1.8563049853372435
1.7986314760508308
1.7380254154447703
1.678396871945259
1.6207233626588464
1.565982404692082
1.5141739980449658
1.4652981427174976
1.4213098729227762
1.3812316715542523
