ppg
1.4516129032258065
1.4486803519061584
1.444770283479961
1.439882697947214
1.434017595307918
1.4291300097751711
1.4252199413489737
1.4164222873900294
1.401759530791789
1.3841642228739004
1.3655913978494625
1.346041055718475
1.3294232649071358
1.3176930596285434
1.3088954056695992
1.3010752688172045
1.2932551319648091
1.2864125122189638
1.281524926686217
1.2756598240469208
1.2658846529814272
1.2541544477028348
1.241446725317693
1.2297165200391007
1.2209188660801564
1.2111436950146628
1.203323558162268
1.1974584555229717
1.1935483870967742
1.1094819159335287
1.110459433040078
1.1124144672531768
1.1133919843597262
1.1143695014662756
1.1124144672531768
1.110459433040078
1.10752688172043
1.1026392961876832
1.0791788856304985
1.0498533724340176
1.0410557184750733
1.0469208211143697
1.072336265884653
1.115347018572825
1.18475073313783
1.300097751710655
1.457478005865103
1.6490713587487782
1.8592375366568916
2.072336265884653
2.275659824046921
2.455522971652004
2.6041055718475072
2.718475073313783
2.801564027370479
2.8514173998044967
2.874877810361681
2.8797653958944283
2.868035190615836
2.8426197458455524
2.8054740957966766
2.7624633431085046
2.717497556207233
2.670576735092864
2.622678396871945
2.576735092864125
2.5317693059628543
2.484848484848485
2.439882697947214
2.3929618768328447
2.343108504398827
2.29227761485826
2.236559139784946
2.174975562072336
2.10850439882698
2.0391006842619745
1.967741935483871
1.895405669599218
1.828934506353861
1.7702834799608993
1.7204301075268815
1.6774193548387095
1.6363636363636365
1.5992179863147604
1.56891495601173
1.5483870967741935
1.533724340175953
1.52297165200391
1.5131964809384164
1.504398826979472
1.495601173020528
1.487781036168133
1.478983382209189
1.4731182795698925
1.4682306940371457
1.4613880742913
1.452590420332356
1.4379276637341154
1.418377321603128
1.396871945259042
1.3734115347018572
1.3499511241446724
1.3264907135874875
1.305962854349951
1.29227761485826
1.2834799608993157
1.2746823069403714
1.2619745845552297
1.2482893450635386
1.2326490713587488
1.217008797653959
1.2013685239491692
1.1857282502443791
1.1691104594330402
1.1534701857282503
1.1378299120234605
1.126099706744868
1.1202346041055715
1.1192570869990224
1.118279569892473
1.1163245356793745
1.1124144672531768
1.1065493646138806
1.1016617790811338
1.0957966764418376
1.088954056695992
1.083088954056696
1.078201368523949
1.075268817204301
1.0742913000977516
1.075268817204301
1.078201368523949
1.0801564027370478
1.0811339198435972
1.0811339198435972
1.0791788856304985
1.0742913000977516
1.0654936461388074
1.0576735092864125
1.0518084066471165
1.0469208211143697
1.0439882697947214
1.043010752688172
1.0439882697947214
1.0469208211143697
1.0478983382209188
1.0469208211143697
1.0439882697947214
1.043010752688172
1.0420332355816226
1.0420332355816226
1.0391006842619743
1.0342130987292275
1.029325513196481
1.029325513196481
1.035190615835777
1.0518084066471165
1.0928641251221896
1.1691104594330402
1.2873900293255132
1.4467253176930597
1.6392961876832846
1.8543499511241448
2.074291300097752
2.2825024437927666
2.469208211143695
2.622678396871945
2.727272727272727
2.80058651026393
2.859237536656892
2.8944281524926687
2.90811339198436
2.902248289345064
2.881720430107527
2.849462365591398
2.809384164222874
2.766373411534702
2.7253176930596283
2.684261974584555
2.644183773216031
2.6041055718475072
2.5640273704789838
2.52297165200391
2.4789833822091887
2.4271749755620724
2.3685239491691106
2.304985337243402
2.2355816226783967
2.160312805474096
2.0821114369501466
2.002932551319648
1.921798631476051
1.8504398826979471
1.790811339198436
1.729227761485826
1.6695992179863148
1.6177908113391983
1.576735092864125
1.543499511241447
1.5190615835777126
1.5034213098729228
1.4936461388074291
1.4887585532746823
1.4858260019550342
1.482893450635386
1.4809384164222874
1.479960899315738
1.4750733137829912
1.469208211143695
1.4623655913978495
1.4506353861192571
1.436950146627566
1.4213098729227762
1.4056695992179864
1.3900293255131966
1.3724340175953078
1.3528836754643203
1.335288367546432
1.3186705767350928
1.300097751710655
1.2834799608993157
1.2668621700879763
1.2502443792766371
1.2336265884652982
1.2179863147605083
1.2013685239491692
1.1857282502443791
1.1720430107526882
1.1583577712609971
1.1456500488758554
1.1397849462365592
1.1368523949169111
1.1329423264907137
1.1290322580645162
1.1251221896383188
1.1231671554252198
1.1202346041055715
1.1143695014662756
1.1055718475073313
1.0928641251221896
1.0791788856304985
1.064516129032258
1.0527859237536656
1.0469208211143697
1.0439882697947214
1.043010752688172
1.0420332355816226
1.0420332355816226
1.0420332355816226
1.0420332355816226
1.0420332355816226
1.0420332355816226
1.0420332355816226
1.0420332355816226
1.0420332355816226
1.0439882697947214
1.0449657869012707
1.043010752688172
1.0420332355816226
1.0420332355816226
1.0420332355816226
1.0420332355816226
1.0420332355816226
1.0420332355816226
1.0420332355816226
1.0420332355816226
1.0391006842619743
1.0381231671554252
1.040078201368524
1.0449657869012707
1.0625610948191593
1.1055718475073313
1.1837732160312806
1.3010752688172045
1.458455522971652
1.6471163245356797
1.8523949169110456
2.059628543499511
2.2551319648093844
2.429130009775171
2.558162267839687
2.6510263929618767
2.730205278592375
2.7859237536656893
2.8152492668621703
2.822091886608016
2.811339198435973
2.789833822091887
2.758553274682307
2.719452590420332
2.675464320625611
2.6295210166177907
2.5865102639296187
2.5464320625610948
2.5190615835777126
2.493646138807429
2.450635386119257
2.39980449657869
2.343108504398827
2.280547409579668
2.212121212121212
2.1378299120234603
2.0625610948191597
1.9872922776148585
1.913978494623656
1.8523949169110456
1.7986314760508308
1.7438905180840665
1.6930596285434996
1.6490713587487782
1.6129032258064515
1.5835777126099706
1.563049853372434
1.5483870967741935
1.5376344086021505
1.5278592375366569
1.5180840664711632
1.5112414467253177
1.5063538611925709
1.499511241446725
1.4916911045943304
1.4838709677419355
1.4731182795698925
1.4613880742913
1.447702834799609
1.4320625610948192
1.4164222873900294
1.3978494623655917
1.380254154447703
1.3607038123167154
1.3421309872922775
1.324535679374389
1.3049853372434017
1.2873900293255132
1.2717497556207231
1.260019550342131
1.2482893450635386
1.2336265884652982
1.2179863147605083
1.203323558162268
1.1925708699902249
1.1808406647116323
1.1710654936461389
1.1612903225806452
1.1505376344086022
1.1407624633431086
1.1319648093841643
1.1251221896383188
1.1221896383186705
1.1202346041055715
1.1192570869990224
1.1192570869990224
1.1192570869990224
1.1192570869990224
1.1163245356793745
1.1133919843597262
1.1114369501466277
1.1085043988269794
1.104594330400782
1.1026392961876832
1.099706744868035
1.096774193548387
1.0928641251221896
1.0869990224828934
1.0821114369501466
1.0772238514173995
1.072336265884653
1.072336265884653
1.0742913000977516
1.075268817204301
1.0762463343108504
1.0742913000977516
1.0713587487781036
1.0694037145650048
1.0684261974584557
1.0684261974584557
1.0684261974584557
1.0654936461388074
1.0606060606060606
1.0576735092864125
1.0586510263929618
1.0654936461388074
1.0899315738025417
1.141739980449658
1.2326490713587488
1.3685239491691104
1.543499511241447
1.7468230694037146
1.9687194525904204
2.1945259042033234
2.410557184750733
2.601173020527859
2.73802541544477
2.8406647116324537
2.9315738025415445
3.0
3.0449657869012707
3.067448680351906
3.070381231671554
3.058651026392962
3.0361681329423265
3.003910068426197
2.9667644183773216
2.9257086999022484
2.8836754643206257
2.841642228739003
2.7996089931573804
2.757575757575758
2.7116324535679373
2.662756598240469
2.610948191593353
2.5532746823069403
2.4887585532746823
2.4173998044965788
2.3391984359726297
2.2580645161290325
2.177908113391984
2.10752688172043
2.043010752688172
1.9736070381231672
1.903225806451613
1.835777126099707
1.775171065493646
1.7233626588465298
1.683284457478006
1.6529814271749756
1.6285434995112416
1.6080156402737047
1.5913978494623655
1.5796676441837731
1.56891495601173
1.560117302052786
1.5513196480938416
1.542521994134897
1.5347018572825024
1.5239491691104594
1.5102639296187683
1.4975562072336266
1.4868035190615836
1.4750733137829912
1.4604105571847508
1.4428152492668622
1.4252199413489737
1.4086021505376345
1.3870967741935485
1.364613880742913
1.3401759530791788
1.3176930596285434
1.300097751710655
1.289345063538612
1.2834799608993157
1.278592375366569
1.2717497556207231
1.2668621700879763
1.2639296187683284
1.262952101661779
1.260019550342131
1.2561094819159335
1.252199413489736
1.2482893450635386
1.2443792766373412
1.238514173998045
1.2287390029325511
1.2179863147605083
1.2082111436950147
1.198435972629521
1.1896383186705768
1.1857282502443791
1.1837732160312806
1.1808406647116323
1.1749755620723363
1.1681329423264908
1.160312805474096
1.1495601173020529
1.1397849462365592
1.1329423264907137
1.1280547409579669
1.121212121212121
1.115347018572825
1.1143695014662756
1.1143695014662756
1.1124144672531768
1.1114369501466277
1.110459433040078
1.110459433040078
1.110459433040078
1.110459433040078
1.110459433040078
1.110459433040078
1.110459433040078
1.110459433040078
1.110459433040078
1.1124144672531768
1.1173020527859236
1.1319648093841643
1.1691104594330402
1.2346041055718475
1.3343108504398826
1.4760508308895406
1.6559139784946235
1.8641251221896384
2.086021505376344
2.3059628543499517
2.5131964809384164
2.673509286412512
2.795698924731183
2.9071358748778104
2.9960899315738025
3.0557184750733137
3.083088954056696
3.086021505376344
3.069403714565005
3.0332355816226784
2.986314760508309
2.932551319648094
2.878787878787879
2.8269794721407626
2.777126099706745
2.727272727272727
2.675464320625611
2.621700879765396
2.565982404692082
2.5083088954056696
2.4457478005865103
2.376344086021505
2.302052785923754
2.222873900293255
2.142717497556207
2.0635386119257086
1.992179863147605
1.9266862170087975
1.8602150537634408
1.7996089931573802
1.7468230694037146
1.7008797653958945
1.6637341153470186
1.6344086021505375
1.6109481915933528
1.5933528836754642
1.5826001955034212
1.576735092864125
1.573802541544477
1.5728250244379276
1.5698924731182795
1.5620723362658846
1.552297165200391
1.541544477028348
1.5278592375366569
1.512218963831867
1.4936461388074291
1.456500488758553
1.409579667644184
1.3734115347018572
1.343108504398827
1.3206256109481915
1.3010752688172045
1.278592375366569
1.260019550342131
1.2443792766373412
1.227761485826002
1.2121212121212122
1.195503421309873
1.181818181818182
1.1700879765395895
1.160312805474096
1.1515151515151516
1.1456500488758554
1.144672531769306
1.1456500488758554
1.144672531769306
1.1397849462365592
1.1329423264907137
1.1241446725317692
1.1133919843597262
1.1036168132942326
1.096774193548387
1.093841642228739
1.0918866080156402
1.0909090909090908
1.0928641251221896
1.0957966764418376
1.096774193548387
1.0977517106549364
1.0977517106549364
1.0977517106549364
1.0977517106549364
1.0977517106549364
1.0977517106549364
1.0957966764418376
1.0928641251221896
1.0918866080156402
1.088954056695992
1.0879765395894427
1.088954056695992
1.0879765395894427
1.0850439882697946
1.0840664711632453
1.083088954056696
1.0801564027370478
1.0772238514173995
1.0713587487781036
1.0606060606060606
1.050830889540567
1.04594330400782
1.0478983382209188
1.0625610948191593
1.104594330400782
1.18475073313783
1.3040078201368523
1.4652981427174976
1.6637341153470186
1.8875855327468232
2.121212121212121
2.347996089931574
2.552297165200391
2.7282502443792764
2.854349951124145
2.9423264907135875
3.0146627565982405
3.0635386119257086
3.089931573802541
3.0987292277614857
3.090909090909091
3.0684261974584555
3.037145650048876
3.0009775171065494
2.960899315738025
2.9159335288367547
2.8670576735092865
2.8181818181818183
2.771260997067449
2.7233626588465296
2.675464320625611
2.622678396871945
2.5640273704789838
2.4995112414467253
2.43108504398827
2.355816226783969
2.275659824046921
2.190615835777126
2.101661779081134
2.022482893450636
1.948191593352884
1.866080156402737
1.7869012707722385
1.7145650048875856
1.6500488758553276
1.5972629521016617
1.5562072336265884
1.525904203323558
1.5053763440860215
1.4926686217008798
1.4848484848484849
1.47702834799609
1.4711632453567938
1.466275659824047
1.4594330400782014
1.4496578690127078
1.4349951124144673
1.41544477028348
1.392961876832845
1.3695014662756595
1.3440860215053765
1.316715542521994
1.2903225806451613
1.2649071358748778
1.24633431085044
1.2336265884652982
1.2189638318670577
1.203323558162268
1.187683284457478
1.1710654936461389
1.155425219941349
1.1407624633431086
1.1300097751710656
1.1221896383186705
1.1202346041055715
1.1270772238514175
1.147605083088954
1.1759530791788857
1.2121212121212122
1.2590420332355816
1.3147605083088951
1.375366568914956
1.4320625610948192
1.4848484848484849
1.530791788856305
1.565982404692082
1.5884652981427174
1.595307917888563
1.5884652981427174
1.5747800586510263
1.5532746823069403
1.52297165200391
1.487781036168133
1.2297165200391007
1.2228739002932552
1.2082111436950147
1.2003910068426198
1.2003910068426198
1.2023460410557183
1.2013685239491692
1.1974584555229717
1.1915933528836755
1.1867057673509287
1.1837732160312806
1.1867057673509287
1.2052785923753666
1.2541544477028348
1.3470185728250244
1.4887585532746823
1.6735092864125125
1.8934506353861196
2.134897360703812
2.3792766373411536
2.6099706744868034
2.8132942326490715
2.981427174975562
3.0957966764418376
3.166177908113392
3.218963831867057
3.251221896383187
3.26197458455523
3.251221896383187
3.2218963831867056
3.179863147605083
3.1300097751710654
3.0733137829912023
3.013685239491691
2.95405669599218
2.89345063538612
2.831867057673509
2.76930596285435
2.704789833822092
2.641251221896383
2.573802541544477
2.5004887585532747
2.423264907135875
2.3411534701857284
2.259042033235582
2.1788856304985336
2.099706744868035
2.022482893450636
1.9560117302052784
1.8973607038123168
1.8387096774193548
1.7839687194525904
1.7350928641251222
1.6950146627565983
1.664711632453568
1.6422287390029326
1.6265884652981428
1.6187683284457477
1.6148582600195502
1.608993157380254
1.598240469208211
1.587487781036168
1.5757575757575757
1.560117302052786
1.5386119257087
1.5161290322580645
1.4936461388074291
1.4701857282502444
1.4486803519061584
1.426197458455523
1.4037145650048877
1.380254154447703
1.356793743890518
1.3391984359726294
1.3264907135874875
1.310850439882698
1.2913000977517106
1.2697947214076246
1.2473118279569892
1.2238514173998043
1.2043010752688172
1.1906158357771262
1.181818181818182
1.1749755620723363
1.1681329423264908
1.160312805474096
1.1564027370478984
1.152492668621701
1.144672531769306
1.1368523949169111
1.1270772238514175
1.1163245356793745
1.10752688172043
1.0987292277614855
1.0909090909090908
1.0850439882697946
1.0801564027370478
1.075268817204301
1.075268817204301
1.0772238514173995
1.078201368523949
1.078201368523949
1.078201368523949
1.078201368523949
1.078201368523949
1.078201368523949
1.078201368523949
1.078201368523949
1.078201368523949
1.078201368523949
1.078201368523949
1.078201368523949
1.078201368523949
1.078201368523949
1.078201368523949
1.078201368523949
1.078201368523949
1.078201368523949
1.0762463343108504
1.0713587487781036
1.067448680351906
1.0635386119257086
1.0596285434995112
1.06158357771261
1.0742913000977516
1.1055718475073313
1.164222873900293
1.2570869990224829
1.3890518084066472
1.5591397849462365
1.7575757575757576
1.9687194525904204
2.176930596285435
2.36950146627566
2.535679374389052
2.670576735092864
2.7614858260019552
2.820136852394917
2.8611925708699903
2.8797653958944283
2.8797653958944283
2.868035190615836
2.84652981427175
2.81622678396872
2.7810361681329425
2.7438905180840663
2.7038123167155423
2.659824046920821
2.616813294232649
2.573802541544477
2.5288367546432062
2.479960899315738
2.4281524926686218
2.375366568914956
2.317693059628544
2.2531769305962857
2.1837732160312804
2.1094819159335287
2.0332355816226784
1.9579667644183771
1.884652981427175
1.8211143695014664
1.761485826001955
1.6979472140762464
1.6373411534701858
1.581622678396872
1.533724340175953
1.4965786901270772
1.4682306940371457
1.447702834799609
1.435972629521017
1.4301075268817205
1.4252199413489737
1.4203323558162269
1.418377321603128
1.41544477028348
1.4115347018572826
1.4076246334310851
1.401759530791789
1.3949169110459434
1.388074291300098
1.3782991202346042
1.3636363636363635
1.3450635386119256
1.3235581622678396
1.3010752688172045
1.284457478005865
1.2717497556207231
1.2561094819159335
1.238514173998045
1.2218963831867058
1.2052785923753666
1.1886608015640274
1.176930596285435
1.1671554252199414
1.1544477028347997
1.1436950146627567
1.1368523949169111
1.1329423264907137
1.130987292277615
1.126099706744868
1.1221896383186705
1.118279569892473
1.1124144672531768
1.10752688172043
1.1026392961876832
1.096774193548387
1.0918866080156402
1.0869990224828934
1.083088954056696
1.0791788856304985
1.0772238514173995
1.078201368523949
1.078201368523949
1.078201368523949
1.078201368523949
1.078201368523949
1.078201368523949
1.078201368523949
1.078201368523949
1.078201368523949
1.078201368523949
1.078201368523949
1.0801564027370478
1.083088954056696
1.0850439882697946
1.086021505376344
1.086021505376344
1.086021505376344
1.086021505376344
1.086021505376344
1.0821114369501466
1.0762463343108504
1.0713587487781036
1.067448680351906
1.0694037145650048
1.0801564027370478
1.104594330400782
1.1544477028347997
1.238514173998045
1.356793743890518
1.5053763440860215
1.6803519061583578
1.868035190615836
2.053763440860215
2.222873900293255
2.366568914956012
2.4819159335288368
2.5591397849462365
2.6050830889540566
2.634408602150537
2.6451612903225805
2.6402737047898337
2.622678396871945
2.592375366568915
2.5532746823069403
2.5083088954056696
2.4144672531769307
2.2991202346041058
2.2218963831867056
2.167155425219941
2.120234604105572
2.072336265884653
2.0254154447702835
1.9775171065493649
1.9257086999022484
1.869012707722385
1.8093841642228736
1.747800586510264
1.6852394916911049
1.6236559139784943
1.5650048875855327
1.5073313782991202
1.4594330400782014
1.4193548387096775
1.3822091886608017
1.3509286412512218
1.3255131964809383
1.3049853372434017
1.2913000977517106
1.2834799608993157
1.2795698924731185
1.2776148582600195
1.2766373411534702
1.273704789833822
1.270772238514174
1.267839687194526
1.2619745845552297
1.2561094819159335
1.249266862170088
1.2424242424242424
1.2355816226783969
1.224828934506354
1.209188660801564
1.1906158357771262
1.1710654936461389
1.1505376344086022
1.1319648093841643
1.1192570869990224
1.1085043988269794
1.096774193548387
1.0869990224828934
1.078201368523949
1.0684261974584557
1.0606060606060606
1.0547409579667644
1.0498533724340176
1.0439882697947214
1.0381231671554252
1.0312805474095796
1.0263929618768328
1.0234604105571847
1.0205278592375366
1.0175953079178883
1.0156402737047898
1.0146627565982405
1.0146627565982405
1.0127077223851415
1.0097751710654936
1.0068426197458455
1.0039100684261977
1.0019550342130987
0.9990224828934506
0.9980449657869012
0.997067448680352
0.9951124144672532
0.9902248289345064
0.9843597262952102
0.9794721407624634
0.9736070381231672
0.9696969696969696
0.967741935483871
0.9667644183773216
0.9657869012707724
0.9657869012707724
0.9667644183773216
0.9696969696969696
0.9706744868035192
0.9716520039100685
0.9696969696969696
0.9638318670576737
0.95405669599218
0.9452590420332356
0.9413489736070382
0.9442815249266864
0.9628543499511242
1.0058651026392962
1.078201368523949
1.164222873900293
1.270772238514174
1.4134897360703813
1.5757575757575757
1.7468230694037146
1.9159335288367547
2.0684261974584555
2.198435972629521
2.300097751710655
2.375366568914956
2.4271749755620724
2.4565004887585533
2.464320625610948
2.455522971652004
2.4389051808406648
2.4164222873900294
2.391006842619746
2.360703812316716
2.3284457478005867
2.2981427174975564
2.264907135874878
2.232649071358749
2.2023460410557183
2.1700879765395893
2.132942326490713
2.0928641251221896
2.0518084066471163
2.004887585532747
1.951124144672532
1.8905180840664717
1.8269794721407624
1.7634408602150538
1.699902248289345
1.6383186705767352
1.5796676441837731
1.521994134897361
1.4682306940371457
1.4252199413489737
1.3900293255131966
1.3587487781036167
1.3343108504398826
1.316715542521994
1.3040078201368523
1.2942326490713587
1.2883675464320623
1.2864125122189638
1.2854349951124144
1.281524926686217
1.2766373411534702
1.270772238514174
1.2658846529814272
1.2609970674486803
1.2551319648093842
1.249266862170088
1.2424242424242424
1.2355816226783969
1.2267839687194526
1.217008797653959
1.2052785923753666
1.1886608015640274
1.1700879765395895
1.1515151515151516
1.13880742913001
1.1290322580645162
1.1192570869990224
1.1124144672531768
1.1094819159335287
1.10752688172043
1.1065493646138806
1.1065493646138806
1.1065493646138806
1.1065493646138806
1.1065493646138806
1.1065493646138806
1.104594330400782
1.1036168132942326
1.1026392961876832
1.1006842619745845
1.0977517106549364
1.0948191593352885
1.0928641251221896
1.0918866080156402
1.0899315738025417
1.0869990224828934
1.086021505376344
1.0850439882697946
1.0850439882697946
1.086021505376344
1.088954056695992
1.093841642228739
1.1016617790811338
1.10752688172043
1.110459433040078
1.1114369501466277
1.1124144672531768
1.1124144672531768
1.1124144672531768
1.1124144672531768
1.1124144672531768
1.1124144672531768
1.1124144672531768
1.1143695014662756
1.115347018572825
1.1143695014662756
1.1133919843597262
1.1133919843597262
1.1143695014662756
1.1202346041055715
1.1397849462365592
1.1827956989247312
1.2551319648093842
1.3577712609970674
1.4652981427174976
1.5806451612903225
1.7253176930596286
1.881720430107527
2.038123167155425
2.182795698924731
2.3059628543499517
2.4027370478983383
2.472140762463343
2.5141739980449658
2.5317693059628543
2.5317693059628543
2.5190615835777126
2.4975562072336266
2.469208211143695
2.436950146627566
2.403714565004888
2.36950146627566
2.332355816226784
2.2932551319648096
2.254154447702835
2.2170087976539588
2.176930596285435
2.131964809384164
2.0821114369501466
2.032258064516129
1.9843597262952104
1.9286412512218964
1.866080156402737
1.8005865102639296
1.7360703812316716
1.6744868035190617
1.6187683284457477
1.5698924731182795
1.5278592375366569
1.4946236559139785
1.469208211143695
1.4506353861192571
1.4379276637341154
1.4301075268817205
1.426197458455523
1.4242424242424243
1.4213098729227762
1.4164222873900294
1.4105571847507332
1.401759530791789
1.391006842619746
1.3782991202346042
1.364613880742913
1.3509286412512218
1.3391984359726294
1.3264907135874875
1.310850439882698
1.332355816226784
1.3724340175953078
1.388074291300098
1.388074291300098
1.3792766373411536
1.3655913978494625
1.3479960899315735
1.3304007820136852
1.310850439882698
1.29227761485826
1.278592375366569
1.267839687194526
1.2580645161290325
1.2482893450635386
1.2394916911045943
1.23069403714565
1.2238514173998043
1.2209188660801564
1.2189638318670577
1.2179863147605083
1.2179863147605083
1.2179863147605083
1.2179863147605083
1.2179863147605083
1.2179863147605083
1.2179863147605083
1.2179863147605083
1.2179863147605083
1.2160312805474096
1.2130987292277615
1.2111436950146628
1.2082111436950147
1.2043010752688172
1.2023460410557183
1.203323558162268
1.206256109481916
1.2082111436950147
1.209188660801564
1.209188660801564
1.2111436950146628
1.2140762463343109
1.2160312805474096
