ppg
1.8866080156402736
1.873900293255132
1.858260019550342
1.8435972629521016
1.8299120234604105
1.818181818181818
1.8064516129032255
1.7956989247311828
1.7849462365591398
1.7702834799608993
1.7546432062561097
1.7380254154447703
1.7194525904203324
1.699902248289345
1.6813294232649072
1.664711632453568
1.6490713587487782
1.6334310850439884
1.6207233626588464
1.6080156402737047
1.5992179863147604
1.5913978494623655
1.581622678396872
1.5708699902248289
1.560117302052786
1.5503421309872922
1.542521994134897
1.5356793743890518
1.5288367546432062
1.52297165200391
1.517106549364614
1.509286412512219
1.5024437927663734
1.4965786901270772
1.487781036168133
1.47702834799609
1.466275659824047
1.457478005865103
1.4545454545454546
1.4623655913978495
1.487781036168133
1.5386119257087
1.6177908113391983
1.726295210166178
1.8387096774193548
1.9560117302052784
2.0928641251221896
2.232649071358749
2.3655913978494625
2.482893450635386
2.581622678396872
2.658846529814272
2.7145650048875853
2.7546432062561097
2.779081133919844
2.789833822091887
2.788856304985337
2.7781036168132944
2.7614858260019552
2.739980449657869
2.7116324535679373
2.673509286412512
2.6285434995112413
2.578690127077224
2.5210166177908118
2.458455522971652
2.393939393939394
2.3284457478005867
2.264907135874878
2.2111436950146626
2.1652003910068425
2.1192570869990224
2.074291300097752
2.035190615835777
2.0009775171065494
1.9687194525904204
1.9393939393939397
1.9149560117302051
1.8934506353861196
1.870967741935484
1.8465298142717497
1.823069403714565
1.8054740957966764
1.790811339198436
1.7732160312805474
1.7556207233626588
1.739980449657869
1.726295210166178
1.710654936461388
1.694037145650049
1.678396871945259
1.6627565982404693
1.6490713587487782
1.6363636363636365
1.6275659824046922
1.619745845552297
1.608993157380254
1.595307917888563
1.5796676441837731
1.564027370478983
1.5493646138807429
1.5542521994134897
1.5708699902248289
1.5728250244379276
1.5679374389051808
1.5591397849462365
1.5483870967741935
1.541544477028348
1.5356793743890518
1.5268817204301075
1.5161290322580645
1.504398826979472
1.490713587487781
1.4750733137829912
1.4613880742913
1.452590420332356
1.458455522971652
1.4848484848484849
1.541544477028348
1.6158357771260996
1.7126099706744868
1.8435972629521016
1.997067448680352
2.161290322580645
2.3255131964809386
2.4789833822091887
2.6148582600195502
2.729227761485826
2.822091886608016
2.8905180840664717
2.9374389051808407
2.9687194525904204
2.98435972629521
2.986314760508309
2.9804496578690127
2.9687194525904204
2.9501466275659824
2.9257086999022484
2.8944281524926687
2.8533724340175954
2.803519061583578
2.748778103616813
2.686217008797654
2.618768328445748
2.557184750733138
2.4995112414467253
2.4349951124144678
2.36950146627566
2.304985337243402
2.243401759530792
2.188660801564027
2.139784946236559
2.0957966764418376
2.059628543499511
2.0303030303030303
2.005865102639296
1.9843597262952104
1.9667644183773216
1.9521016617790807
1.935483870967742
1.9159335288367547
1.8934506353861196
1.870967741935484
1.8494623655913975
1.827956989247312
1.8074291300097751
1.7888563049853372
1.7702834799608993
1.7517106549364614
1.737047898338221
1.7253176930596286
1.7096774193548387
1.6920821114369502
1.675464320625611
1.6608015640273706
1.6471163245356797
1.635386119257087
1.624633431085044
1.6129032258064515
1.6021505376344083
1.5933528836754642
1.5865102639296187
1.5826001955034212
1.5806451612903225
1.576735092864125
1.5718475073313782
1.565982404692082
1.5581622678396871
1.547409579667644
1.5356793743890518
1.5239491691104594
1.5112414467253177
1.5034213098729228
1.509286412512219
1.5278592375366569
1.5650048875855327
1.6314760508308896
1.7302052785923754
1.857282502443793
2.007820136852395
2.1700879765395893
2.3313782991202348
2.4819159335288368
2.616813294232649
2.729227761485826
2.8181818181818183
2.8856304985337244
2.927663734115347
2.951124144672532
2.967741935483871
2.9745845552297165
2.970674486803519
2.956989247311828
2.935483870967742
2.906158357771261
2.865102639296188
2.814271749755621
2.757575757575758
2.6959921798631474
2.636363636363636
2.5777126099706744
2.5131964809384164
2.4457478005865103
2.378299120234604
2.315738025415445
2.259042033235582
2.206256109481916
2.1593352883675463
2.118279569892473
2.085043988269794
2.058651026392962
2.0361681329423265
2.018572825024438
2.003910068426197
1.9833822091886608
1.959921798631476
1.9393939393939397
1.920821114369501
1.905180840664712
1.8905180840664717
1.87683284457478
1.8621700879765395
1.8455522971652003
1.8269794721407624
1.8113391984359728
1.7976539589442817
1.7790811339198436
1.758553274682307
1.7390029325513197
1.7194525904203324
1.699902248289345
1.6813294232649072
1.66177908113392
1.6441837732160314
1.6304985337243405
1.6187683284457477
1.6099706744868034
1.6041055718475072
1.598240469208211
1.5913978494623655
1.585532746823069
1.5786901270772238
1.5728250244379276
1.565982404692082
1.560117302052786
1.552297165200391
1.541544477028348
1.5298142717497556
1.521016617790811
1.5190615835777126
1.5268817204301075
1.5464320625610948
1.5884652981427174
1.6588465298142718
1.761485826001955
1.89247311827957
2.0439882697947214
2.206256109481916
2.3655913978494625
2.512218963831867
2.641251221896383
2.739980449657869
2.8132942326490715
2.874877810361681
2.920821114369501
2.951124144672532
2.967741935483871
2.9716520039100685
2.963831867057673
2.9472140762463344
2.9227761485826003
2.8885630498533725
2.8426197458455524
2.7859237536656893
2.729227761485826
2.6695992179863146
2.60019550342131
2.5268817204301075
2.455522971652004
2.386119257086999
2.3225806451612905
2.264907135874878
2.212121212121212
2.167155425219941
2.129032258064516
2.093841642228739
2.0664711632453567
2.0449657869012707
2.021505376344086
1.9951124144672527
1.967741935483871
1.9413489736070384
1.9149560117302051
1.889540566959922
1.8641251221896384
1.8387096774193548
1.8093841642228736
1.7790811339198436
1.750733137829912
1.729227761485826
1.7116324535679377
1.6920821114369502
1.6695992179863148
1.6471163245356797
1.6256109481915937
1.6050830889540566
1.585532746823069
1.5679374389051808
1.5513196480938416
1.5327468230694037
1.5161290322580645
1.504398826979472
1.495601173020528
1.482893450635386
1.4672531769305963
1.4506353861192571
1.435972629521017
1.4222873900293256
1.409579667644184
1.396871945259042
1.3841642228739004
1.3714565004887584
1.356793743890518
1.3401759530791788
1.3284457478005864
1.3225806451612905
1.3176930596285434
1.321603128054741
1.3411534701857282
1.383186705767351
1.4535679374389052
1.5562072336265884
1.689149560117302
1.8416422287390029
2.0009775171065494
2.155425219941349
2.2825024437927666
2.3626588465298144
2.4301075268817205
2.505376344086021
2.5718475073313782
2.619745845552297
2.6480938416422286
2.659824046920821
2.6608015640273703
2.6510263929618767
2.631476050830889
2.5992179863147604
2.5542521994134897
2.50733137829912
2.4574780058651027
2.3949169110459434
2.321603128054741
2.2453567937438903
2.1700879765395893
2.0987292277614857
2.034213098729228
1.975562072336266
1.9237536656891496
1.878787878787879
1.839687194525904
1.8103616813294232
1.7888563049853372
1.7683284457478006
1.750733137829912
1.7341153470185728
1.718475073313783
1.7028347996089932
1.6871945259042034
1.6744868035190617
1.66177908113392
1.6480938416422288
1.6334310850439884
1.6187683284457477
1.6080156402737047
1.598240469208211
1.5865102639296187
1.5708699902248289
1.5532746823069403
1.5356793743890518
1.517106549364614
1.500488758553275
1.4858260019550342
1.4750733137829912
1.466275659824047
1.457478005865103
1.4535679374389052
1.4516129032258065
1.4467253176930597
1.4428152492668622
1.4428152492668622
1.444770283479961
1.4457478005865103
1.447702834799609
1.4486803519061584
1.4486803519061584
1.4486803519061584
1.4457478005865103
1.439882697947214
1.436950146627566
1.435972629521017
1.4330400782013686
1.434017595307918
1.4418377321603129
1.4623655913978495
1.504398826979472
1.576735092864125
1.6852394916911049
1.827956989247312
1.9951124144672527
2.1788856304985336
2.3440860215053765
2.4946236559139785
2.654936461388074
2.803519061583578
2.9266862170087977
3.022482893450636
3.090909090909091
3.132942326490713
3.1515151515151514
3.15347018572825
3.1407624633431084
3.118279569892473
3.0840664711632453
3.042033235581622
2.9931573802541545
2.9345063538611926
2.8690127077223853
2.7966764418377323
2.721407624633431
2.650048875855328
2.5835777126099706
2.5219941348973607
2.4672531769305963
2.418377321603128
2.377321603128055
2.345063538611926
2.3196480938416424
2.2952101661779083
2.271749755620724
2.2531769305962857
2.2355816226783967
2.219941348973607
2.2082111436950145
2.196480938416422
2.182795698924731
2.16911045943304
2.1544477028347995
2.139784946236559
2.124144672531769
2.1094819159335287
2.090909090909091
2.070381231671554
2.047898338220919
2.0254154447702835
2.004887585532747
1.9833822091886608
1.9618768328445748
1.9393939393939397
1.916911045943304
1.8944281524926687
1.8758553274682308
1.86119257086999
1.8455522971652003
1.828934506353861
1.8132942326490715
1.7976539589442817
1.7781036168132942
1.7595307917888563
1.7458455522971652
1.7350928641251222
1.7243401759530792
1.715542521994135
1.7086999022482894
1.7018572825024438
1.6911045943304008
1.675464320625611
1.6588465298142718
1.6451612903225807
1.6412512218963833
1.6608015640273706
1.7096774193548387
1.796676441837732
1.924731182795699
2.085043988269794
2.2668621700879767
2.4359726295210167
2.591397849462365
2.7565982404692084
2.913000977517106
3.0498533724340176
3.161290322580645
3.247311827956989
3.3088954056695994
3.350928641251222
3.376344086021505
3.3851417399804498
3.3841642228739004
3.3734115347018574
3.3528836754643208
3.324535679374389
3.283479960899316
3.23069403714565
3.1700879765395893
3.104594330400782
3.0303030303030303
2.949169110459433
2.8670576735092865
2.788856304985337
2.7155425219941347
2.6471163245356792
2.587487781036168
2.533724340175953
2.4780058651026398
2.4281524926686218
2.3841642228739004
2.343108504398827
2.304007820136853
2.2668621700879767
2.2355816226783967
2.2082111436950145
2.182795698924731
2.1593352883675463
2.1378299120234603
2.1163245356793743
2.089931573802541
2.06158357771261
2.032258064516129
2.004887585532747
1.9804496578690127
1.956989247311828
1.9335288367546437
1.9100684261974583
1.8856304985337244
1.8602150537634408
1.833822091886608
1.8093841642228736
1.7878787878787878
1.7634408602150538
1.7380254154447703
1.7145650048875856
1.6930596285434996
1.675464320625611
1.6588465298142718
1.643206256109482
1.6275659824046922
1.611925708699902
1.5962854349951123
1.585532746823069
1.5757575757575757
1.5610948191593352
1.5405669599217986
1.517106549364614
1.4965786901270772
1.482893450635386
1.482893450635386
1.5073313782991202
1.5650048875855327
1.66177908113392
1.796676441837732
1.964809384164223
2.1280547409579667
2.2883675464320627
2.469208211143695
2.650048875855328
2.820136852394917
2.9667644183773216
3.0879765395894427
3.1837732160312804
3.2580645161290325
3.312805474095797
3.3489736070381237
3.3714565004887587
3.378299120234604
3.378299120234604
3.376344086021505
3.367546432062561
3.347996089931574
3.315738025415445
3.269794721407625
3.2130987292277613
3.1485826001955037
3.074291300097752
2.994134897360704
2.9120234604105573
2.8299120234604107
2.7565982404692084
2.6940371456500487
2.632453567937439
2.570869990224829
2.5161290322580645
2.469208211143695
2.4271749755620724
2.2825024437927666
2.0869990224828934
1.970674486803519
1.895405669599218
1.8416422287390029
1.8035190615835777
1.7712609970674489
1.7360703812316716
1.6989247311827955
1.6637341153470186
1.6304985337243405
1.598240469208211
1.5708699902248289
1.5483870967741935
1.5249266862170088
1.5024437927663734
1.47702834799609
1.4516129032258065
1.4291300097751711
1.4066471163245358
1.3812316715542523
1.3577712609970674
1.332355816226784
1.3079178885630498
1.284457478005865
1.2609970674486803
1.241446725317693
1.2238514173998043
1.2082111436950147
1.1925708699902249
1.1808406647116323
1.1710654936461389
1.1583577712609971
1.1407624633431086
1.1163245356793745
1.0909090909090908
1.0664711632453567
1.0449657869012707
1.0342130987292275
1.0439882697947214
1.083088954056696
1.1622678396871946
1.284457478005865
1.418377321603128
1.5650048875855327
1.747800586510264
1.948191593352884
2.1485826001955037
2.333333333333333
2.496578690127077
2.633431085043988
2.7438905180840663
2.831867057673509
2.897360703812317
2.945259042033236
2.972629521016618
2.9853372434017595
2.991202346041056
2.988269794721408
2.9775171065493646
2.956011730205278
2.9227761485826003
2.875855327468231
2.817204301075269
2.7517106549364616
2.678396871945259
2.60019550342131
2.5190615835777126
2.443792766373412
2.3734115347018574
2.303030303030303
2.2375366568914954
2.175953079178885
2.120234604105572
2.071358748778104
2.03128054740958
1.9980449657869013
1.9667644183773216
1.935483870967742
1.9042033235581624
1.8748778103616808
1.8455522971652003
1.8132942326490715
1.7820136852394917
1.7487781036168133
1.715542521994135
1.6813294232649072
1.6451612903225807
1.6080156402737047
1.5718475073313782
1.5386119257087
1.5053763440860215
1.4711632453567938
1.4428152492668622
1.414467253176931
1.3812316715542523
1.3479960899315735
1.3176930596285434
1.2913000977517106
1.2658846529814272
1.2443792766373412
1.2218963831867058
1.1994134897360704
1.1798631476050832
1.1622678396871946
1.1505376344086022
1.1407624633431086
1.1280547409579669
1.1133919843597262
1.096774193548387
1.0772238514173995
1.0557184750733135
1.0332355816226784
1.010752688172043
0.9902248289345064
0.9794721407624634
0.9912023460410556
1.0224828934506354
1.078201368523949
1.1730205278592376
1.3069403714565004
1.4731182795698925
1.6598240469208212
1.8533724340175952
2.040078201368524
2.210166177908113
2.355816226783969
2.47702834799609
2.575757575757576
2.652003910068426
2.697947214076246
2.7223851417399803
2.740957966764418
2.7497556207233624
2.7468230694037143
2.732160312805474
2.705767350928641
2.6637341153470184
2.606060606060606
2.5386119257087
2.4652981427174976
2.386119257086999
2.313782991202346
2.2453567937438903
2.1700879765395893
2.096774193548387
2.0254154447702835
1.9550342130987293
1.8875855327468232
1.8269794721407624
1.7771260997067448
1.737047898338221
1.7018572825024438
1.6686217008797657
1.6363636363636365
1.608993157380254
1.585532746823069
1.5610948191593352
1.533724340175953
1.5024437927663734
1.4672531769305963
1.43108504398827
1.393939393939394
1.3577712609970674
1.324535679374389
1.29227761485826
1.2609970674486803
1.2355816226783969
1.2130987292277615
1.1867057673509287
1.1583577712609971
1.1290322580645162
1.1006842619745845
1.0772238514173995
1.0576735092864125
1.040078201368524
1.021505376344086
1.0048875855327468
0.989247311827957
0.9696969696969696
0.9560117302052786
0.9452590420332356
0.9325513196480938
0.9178885630498532
0.9032258064516128
0.8905180840664711
0.8758553274682307
0.863147605083089
0.8514173998044966
0.8377321603128055
0.823069403714565
0.8123167155425219
0.8103616813294232
0.8191593352883676
0.8406647116324536
0.8836754643206256
0.956989247311828
1.0684261974584557
1.2179863147605083
1.3958944281524928
1.5923753665689149
1.7947214076246334
1.989247311827957
2.16911045943304
2.326490713587488
2.4408602150537635
2.5268817204301075
2.606060606060606
2.6695992179863146
2.7126099706744866
2.739980449657869
2.7536656891495603
2.752688172043011
2.740957966764418
2.719452590420332
2.6852394916911044
2.6392961876832843
2.589442815249267
2.536656891495601
2.47702834799609
2.4144672531769307
2.3528836754643208
2.297165200391007
2.24633431085044
2.201368523949169
2.164222873900293
2.1300097751710654
2.0977517106549364
2.0684261974584555
2.0439882697947214
2.0254154447702835
2.0127077223851417
2.0009775171065494
1.9872922776148585
1.9745845552297163
1.959921798631476
1.9413489736070384
1.920821114369501
1.8993157380254155
1.8748778103616808
1.847507331378299
1.818181818181818
1.793743890518084
1.7741935483870968
1.7526881720430108
1.7302052785923754
1.7096774193548387
1.6920821114369502
1.6735092864125125
1.6529814271749756
1.6304985337243405
1.6080156402737047
1.585532746823069
1.5650048875855327
1.5493646138807429
1.5395894428152492
1.5650048875855327
1.607038123167155
1.624633431085044
1.6304985337243405
1.629521016617791
1.6236559139784943
1.6158357771260996
1.6050830889540566
1.5894428152492668
1.5708699902248289
1.5513196480938416
1.5347018572825024
1.5190615835777126
1.5024437927663734
1.490713587487781
1.4916911045943304
1.517106549364614
1.5747800586510263
1.6695992179863148
1.7996089931573802
1.9589442815249267
2.1358748778103616
2.317693059628544
2.4946236559139785
2.636363636363636
2.752688172043011
2.866080156402737
2.967741935483871
3.056695992179863
3.1309872922776147
3.187683284457478
3.2277614858260018
3.2531769305962857
3.2639296187683287
3.2629521016617797
3.2482893450635384
3.2218963831867056
3.185728250244379
3.1407624633431084
3.085043988269794
3.0205278592375366
2.9501466275659824
2.87683284457478
2.803519061583578
2.732160312805474
2.6637341153470184
2.5992179863147604
2.541544477028348
2.487781036168133
2.441837732160313
2.403714565004888
2.3685239491691106
2.337243401759531
2.30791788856305
2.278592375366569
2.2502443792766376
2.2218963831867056
2.190615835777126
2.156402737047898
2.121212121212121
2.0869990224828934
2.0557184750733137
2.026392961876833
1.994134897360704
1.9608993157380252
1.9266862170087975
1.8934506353861196
1.8631476050830889
1.83088954056696
1.7956989247311828
1.758553274682307
1.7233626588465298
1.6901270772238517
1.6627565982404693
1.640273704789834
1.6158357771260996
1.5913978494623655
1.56891495601173
1.5454545454545454
1.5190615835777126
1.4936461388074291
1.4711632453567938
1.447702834799609
1.423264907135875
1.4007820136852396
1.3792766373411536
1.3616813294232648
1.3440860215053765
1.321603128054741
1.2961876832844574
1.2746823069403714
1.262952101661779
1.2619745845552297
1.278592375366569
1.3235581622678396
1.4027370478983383
1.5190615835777126
1.6686217008797657
1.8172043010752688
1.967741935483871
2.1436950146627565
2.32355816226784
2.4975562072336266
2.656891495601173
2.795698924731183
2.913978494623656
3.0127077223851417
3.09188660801564
3.1544477028347995
3.204301075268817
3.243401759530792
3.264907135874878
3.271749755620724
3.2737047898338223
3.2658846529814274
3.24633431085044
3.2160312805474094
3.1739980449657867
3.1221896383186705
3.06158357771261
2.995112414467253
2.9237536656891496
2.8514173998044967
2.78494623655914
2.720430107526881
2.652003910068426
2.58455522971652
2.520039100684262
2.4574780058651027
2.4027370478983383
2.35386119257087
2.3088954056695994
2.2658846529814274
2.222873900293255
2.1808406647116323
2.1407624633431084
2.1065493646138806
2.0762463343108504
2.043010752688172
2.0087976539589443
1.9726295210166176
1.935483870967742
1.8983382209188664
1.8621700879765395
1.8269794721407624
1.7898338220918866
1.7526881720430108
1.7145650048875856
1.6842619745845553
1.656891495601173
1.6256109481915937
1.5923753665689149
1.5581622678396871
1.5239491691104594
1.4926686217008798
1.4672531769305963
1.4457478005865103
1.4242424242424243
1.4037145650048877
1.3822091886608017
1.3577712609970674
1.3391984359726294
1.3225806451612905
1.300097751710655
1.2766373411534702
1.2551319648093842
1.2336265884652982
1.209188660801564
1.1827956989247312
1.1593352883675463
1.142717497556207
1.142717497556207
1.1700879765395895
1.217008797653959
1.289345063538612
1.4037145650048877
1.552297165200391
1.7253176930596286
1.911045943304008
2.0977517106549364
2.278592375366569
2.442815249266862
2.58455522971652
2.7038123167155423
2.8054740957966766
2.887585532746823
2.940371456500489
2.9775171065493646
3.0117302052785924
3.037145650048876
3.0557184750733137
3.064516129032258
3.0625610948191597
3.046920821114369
3.0205278592375366
2.9824046920821115
2.932551319648094
2.870967741935484
2.807429130009776
2.740957966764418
2.665689149560117
2.5884652981427174
2.5112414467253177
2.4359726295210167
2.363636363636364
2.2932551319648096
2.2267839687194524
2.167155425219941
2.113391984359726
2.0635386119257086
2.01564027370479
1.9726295210166176
1.935483870967742
1.8983382209188664
1.858260019550342
1.818181818181818
1.7790811339198436
1.739980449657869
1.7018572825024438
1.6656891495601174
1.6285434995112416
1.587487781036168
1.543499511241447
1.5083088954056696
1.478005865102639
1.447702834799609
1.418377321603128
1.3900293255131966
1.3616813294232648
1.332355816226784
1.300097751710655
1.267839687194526
1.2365591397849462
1.2072336265884651
1.181818181818182
1.1583577712609971
1.141739980449658
1.1280547409579669
1.110459433040078
1.093841642228739
1.0762463343108504
1.0586510263929618
1.043010752688172
1.0283479960899315
1.0127077223851415
0.9941348973607038
0.9745845552297164
0.9560117302052786
0.9452590420332356
0.9393939393939394
0.9364613880742912
0.9452590420332356
0.975562072336266
1.0361681329423265
1.1329423264907137
1.2649071358748778
1.414467253176931
1.573802541544477
1.7429130009775171
1.9130009775171064
2.0762463343108504
2.207233626588465
2.315738025415445
2.423264907135875
2.5210166177908118
2.6070381231671558
2.677419354838709
2.7331378299120237
2.777126099706745
2.811339198435973
2.833822091886608
2.84652981427175
2.8484848484848486
2.8377321603128056
2.8181818181818183
2.788856304985337
2.752688172043011
2.710654936461388
2.662756598240469
2.6158357771261
2.5718475073313782
2.5288367546432062
2.4887585532746823
2.450635386119257
2.41544477028348
2.383186705767351
2.3548387096774195
2.332355816226784
2.3088954056695994
2.2854349951124147
2.2639296187683287
2.241446725317693
2.217986314760508
2.196480938416422
2.176930596285435
2.156402737047898
2.133919843597263
2.1114369501466275
2.089931573802541
2.067448680351906
2.0410557184750733
2.013685239491691
1.9853372434017595
1.9560117302052784
1.9266862170087975
1.8973607038123168
1.868035190615836
1.8387096774193548
1.8074291300097751
1.7741935483870968
1.7458455522971652
1.7204301075268815
1.6930596285434996
1.6686217008797657
1.6480938416422288
1.6285434995112416
1.6099706744868034
1.5923753665689149
1.5747800586510263
1.5571847507331378
1.5395894428152492
1.521994134897361
1.504398826979472
1.4897360703812317
1.4760508308895406
1.4594330400782014
1.4389051808406648
1.418377321603128
1.4007820136852396
1.3900293255131966
1.393939393939394
1.4164222873900294
1.466275659824047
1.5493646138807429
1.6656891495601174
1.7869012707722385
1.916911045943304
2.075268817204301
2.242424242424242
2.406647116324536
2.5610948191593352
2.702834799608993
2.8299120234604107
2.9393939393939394
3.032258064516129
3.1114369501466275
3.176930596285435
3.23069403714565
3.2629521016617797
3.280547409579668
3.297165200391007
3.30791788856305
3.310850439882698
3.302052785923754
3.2795698924731185
3.2453567937438903
3.19941348973607
3.145650048875855
3.0869990224828934
3.022482893450636
2.9589442815249267
2.897360703812317
2.832844574780059
2.768328445747801
2.7038123167155423
2.6402737047898337
2.579667644183773
2.520039100684262
2.4604105571847508
2.4027370478983383
2.347018572825025
2.2932551319648096
2.241446725317693
2.1955034213098727
2.15347018572825
2.1094819159335287
2.065493646138808
2.022482893450636
1.9804496578690127
1.93841642228739
1.8973607038123168
