ppg
1.9951124144672527
2.1221896383186705
2.2639296187683287
2.406647116324536
2.539589442815249
2.6559139784946235
2.748778103616813
2.81622678396872
2.8611925708699903
2.884652981427175
2.8905180840664717
2.8826979472140764
2.86217008797654
2.832844574780059
2.793743890518084
2.744868035190616
2.686217008797654
2.6207233626588464
2.548387096774193
2.472140762463343
2.3929618768328447
2.312805474095797
2.233626588465298
2.15347018572825
2.074291300097752
2.003910068426197
1.9393939393939397
1.871945259042033
1.8054740957966764
1.7282502443792769
1.6627565982404693
1.619745845552297
1.5786901270772238
1.5347018572825024
1.498533724340176
1.4750733137829912
1.4516129032258065
1.434017595307918
1.4213098729227762
1.4115347018572826
1.404692082111437
1.4007820136852396
1.3998044965786902
1.4007820136852396
1.401759530791789
1.401759530791789
1.401759530791789
1.4027370478983383
1.4056695992179864
1.409579667644184
1.4134897360703813
1.4173998044965788
1.4203323558162269
1.423264907135875
1.4252199413489737
1.423264907135875
1.4193548387096775
1.414467253176931
1.4086021505376345
1.4027370478983383
1.3988269794721409
1.3958944281524928
1.3949169110459434
1.3949169110459434
1.392961876832845
1.3890518084066472
1.3841642228739004
1.3773216031280548
1.3695014662756595
1.3616813294232648
1.35386119257087
1.3470185728250244
1.3401759530791788
1.3333333333333333
1.3264907135874875
1.321603128054741
1.3176930596285434
1.3118279569892473
1.305962854349951
1.3607038123167154
1.4457478005865103
1.4868035190615836
1.504398826979472
1.5102639296187683
1.5102639296187683
1.5053763440860215
1.498533724340176
1.4936461388074291
1.4887585532746823
1.4848484848484849
1.4838709677419355
1.4848484848484849
1.4868035190615836
1.487781036168133
1.4897360703812317
1.4936461388074291
1.5024437927663734
1.5190615835777126
1.5483870967741935
1.5923753665689149
1.6422287390029326
1.7018572825024438
1.7839687194525904
1.884652981427175
1.9990224828934504
2.157380254154448
2.304985337243402
2.410557184750733
2.525904203323558
2.641251221896383
2.7497556207233624
2.8475073313782997
2.919843597262952
2.972629521016618
3.0195503421309877
3.053763440860215
3.075268817204301
3.083088954056696
3.0762463343108504
3.0576735092864125
3.027370478983382
2.9872922776148583
2.9374389051808407
2.877810361681329
2.8103616813294234
2.742913000977517
2.673509286412512
2.5972629521016617
2.517106549364614
2.4359726295210167
2.35386119257087
2.2737047898338223
2.196480938416422
2.121212121212121
2.0498533724340176
1.9833822091886608
1.920821114369501
1.855327468230694
1.8035190615835777
1.7673509286412512
1.7272727272727273
1.6881720430107527
1.6500488758553276
1.6129032258064515
1.5796676441837731
1.5503421309872922
1.525904203323558
1.5073313782991202
1.495601173020528
1.487781036168133
1.482893450635386
1.479960899315738
1.4750733137829912
1.4652981427174976
1.455522971652004
1.4486803519061584
1.4428152492668622
1.4349951124144673
1.4281524926686218
1.4222873900293256
1.414467253176931
1.4037145650048877
1.3949169110459434
1.3870967741935485
1.3763440860215057
1.364613880742913
1.3528836754643203
1.3411534701857282
1.3304007820136852
1.3196480938416422
1.3079178885630498
1.295210166177908
1.281524926686217
1.2688172043010753
1.2561094819159335
1.2473118279569892
1.2394916911045943
1.2287390029325511
1.2160312805474096
1.2043010752688172
1.1925708699902249
1.1827956989247312
1.173998044965787
1.1652003910068427
1.1564027370478984
1.1466275659824048
1.1378299120234605
1.1329423264907137
1.1300097751710656
1.1241446725317692
1.1163245356793745
1.1094819159335287
1.104594330400782
1.099706744868035
1.0948191593352885
1.0909090909090908
1.0869990224828934
1.0840664711632453
1.0811339198435972
1.0801564027370478
1.0821114369501466
1.086021505376344
1.0899315738025417
1.0987292277614855
1.1143695014662756
1.141739980449658
1.1837732160312806
1.2424242424242424
1.3196480938416422
1.418377321603128
1.5347018572825024
1.664711632453568
1.7849462365591398
1.9012707722385145
2.0332355816226784
2.1700879765395893
2.303030303030303
2.4516129032258065
2.5962854349951123
2.687194525904203
2.7468230694037143
2.80058651026393
2.844574780058651
2.875855327468231
2.89345063538612
2.895405669599218
2.884652981427175
2.865102639296188
2.834799608993157
2.793743890518084
2.7438905180840663
2.687194525904203
2.6050830889540566
2.5268817204301075
2.4672531769305963
2.3978494623655915
2.32355816226784
2.254154447702835
2.188660801564027
2.118279569892473
2.048875855327468
1.9824046920821117
1.919843597262952
1.86119257086999
1.793743890518084
1.7350928641251222
1.694037145650049
1.651026392961877
1.606060606060606
1.5708699902248289
1.547409579667644
1.520039100684262
1.4926686217008798
1.4721407624633431
1.4594330400782014
1.447702834799609
1.434017595307918
1.4242424242424243
1.41544477028348
1.4086021505376345
1.401759530791789
1.396871945259042
1.393939393939394
1.3900293255131966
1.3841642228739004
1.3792766373411536
1.375366568914956
1.3724340175953078
1.370478983382209
1.367546432062561
1.3636363636363635
1.356793743890518
1.3450635386119256
1.3343108504398826
1.3235581622678396
1.3088954056695992
1.29227761485826
1.2766373411534702
1.262952101661779
1.249266862170088
1.2355816226783969
1.2218963831867058
1.2082111436950147
1.195503421309873
1.1857282502443791
1.176930596285435
1.1730205278592376
1.1710654936461389
1.1671554252199414
1.160312805474096
1.152492668621701
1.1436950146627567
1.1348973607038124
1.126099706744868
1.1163245356793745
1.10752688172043
1.099706744868035
1.093841642228739
1.0928641251221896
1.0948191593352885
1.096774193548387
1.0987292277614855
1.1016617790811338
1.1055718475073313
1.1085043988269794
1.1114369501466277
1.1143695014662756
1.1192570869990224
1.1290322580645162
1.144672531769306
1.1700879765395895
1.2023460410557183
1.2453567937438903
1.3079178885630498
1.3890518084066472
1.4887585532746823
1.603128054740958
1.7302052785923754
1.865102639296188
2.005865102639296
2.146627565982405
2.2854349951124147
2.418377321603128
2.5249266862170088
2.611925708699902
2.7008797653958942
2.780058651026393
2.844574780058651
2.89345063538612
2.924731182795699
2.940371456500489
2.941348973607038
2.927663734115347
2.898338220918866
2.831867057673509
2.7419354838709675
2.665689149560117
2.5962854349951123
2.5239491691104594
2.449657869012708
2.375366568914956
2.302052785923754
2.228739002932551
2.155425219941349
2.0821114369501466
2.0097751710654936
1.9393939393939397
1.871945259042033
1.8162267839687196
1.7683284457478006
1.718475073313783
1.6695992179863148
1.6226783968719452
1.5777126099706744
1.5356793743890518
1.498533724340176
1.4672531769305963
1.4428152492668622
1.4252199413489737
1.4115347018572826
1.4007820136852396
1.392961876832845
1.3870967741935485
1.380254154447703
1.3743890518084063
1.3685239491691104
1.3636363636363635
1.3587487781036167
1.3548387096774193
1.3519061583577712
1.348973607038123
1.3470185728250244
1.3450635386119256
1.3440860215053765
1.3440860215053765
1.3421309872922775
1.33822091886608
1.3333333333333333
1.327468230694037
1.3196480938416422
1.3118279569892473
1.303030303030303
1.2913000977517106
1.2766373411534702
1.2619745845552297
1.2473118279569892
1.2375366568914956
1.2297165200391007
1.2218963831867058
1.2160312805474096
1.2121212121212122
1.2082111436950147
1.2043010752688172
1.198435972629521
1.1915933528836755
1.18475073313783
1.1798631476050832
1.176930596285435
1.1779081133919844
1.1808406647116323
1.1837732160312806
1.1867057673509287
1.187683284457478
1.1867057673509287
1.18475073313783
1.181818181818182
1.1798631476050832
1.1798631476050832
1.1827956989247312
1.187683284457478
1.1945259042033236
1.203323558162268
1.2130987292277615
1.2228739002932552
1.2326490713587488
1.24633431085044
1.2668621700879763
1.2971652003910068
1.3391984359726294
1.3949169110459434
1.466275659824047
1.5542521994134897
1.656891495601173
1.7546432062561097
1.8543499511241448
1.9745845552297163
2.104594330400782
2.2385141739980448
2.3704789833822093
2.495601173020528
2.608993157380254
2.70772238514174
2.789833822091887
2.855327468230694
2.905180840664712
2.940371456500489
2.956011730205278
2.9589442815249267
2.95405669599218
2.9393939393939394
2.911045943304008
2.8690127077223853
2.817204301075269
2.7565982404692084
2.6901270772238512
2.6207233626588464
2.550342130987292
2.479960899315738
2.41544477028348
2.35386119257087
2.286412512218964
2.2160312805474094
2.144672531769306
2.074291300097752
2.006842619745845
1.9442815249266865
1.8875855327468232
1.835777126099707
1.7898338220918866
1.7497556207233629
1.7174975562072337
1.6911045943304008
1.6656891495601174
1.6422287390029326
1.6226783968719452
1.607038123167155
1.5943304007820136
1.58455522971652
1.5786901270772238
1.5747800586510263
1.5718475073313782
1.5698924731182795
1.56891495601173
1.5698924731182795
1.573802541544477
1.5806451612903225
1.5884652981427174
1.598240469208211
1.607038123167155
1.6129032258064515
1.6148582600195502
1.6129032258064515
1.607038123167155
1.598240469208211
1.5884652981427174
1.5796676441837731
1.5728250244379276
1.5650048875855327
1.5581622678396871
1.552297165200391
1.5454545454545454
1.5386119257087
1.530791788856305
1.52297165200391
1.5141739980449658
1.5053763440860215
1.4946236559139785
1.482893450635386
1.4731182795698925
1.4643206256109482
1.455522971652004
1.4457478005865103
1.4349951124144673
1.423264907135875
1.4115347018572826
1.3988269794721409
1.3870967741935485
1.3773216031280548
1.3695014662756595
1.3636363636363635
1.3607038123167154
1.359726295210166
1.356793743890518
1.3519061583577712
1.3450635386119256
1.3362658846529814
1.3255131964809383
1.316715542521994
1.3098729227761483
1.3069403714565004
1.3069403714565004
1.3088954056695992
1.3147605083088951
1.324535679374389
1.3401759530791788
1.364613880742913
1.3998044965786902
1.4506353861192571
1.5190615835777126
1.6050830889540566
1.7086999022482894
1.826001955034213
1.9530791788856303
2.086021505376344
2.218963831867057
2.3313782991202348
2.4301075268817205
2.536656891495601
2.638318670576735
2.730205278592375
2.807429130009776
2.8690127077223853
2.913978494623656
2.941348973607038
2.951124144672532
2.945259042033236
2.924731182795699
2.8914956011730206
2.850439882697948
2.8025415444770285
2.7468230694037143
2.686217008797654
2.6207233626588464
2.550342130987292
2.4760508308895406
2.398826979472141
2.3196480938416424
2.239491691104594
2.1593352883675463
2.081133919843597
2.0117302052785924
1.949169110459433
1.8826979472140764
1.818181818181818
1.7565982404692082
1.699902248289345
1.64613880742913
1.595307917888563
1.5483870967741935
1.5073313782991202
1.4711632453567938
1.4408602150537635
1.41544477028348
1.3978494623655917
1.3861192570869991
1.3743890518084063
1.3626588465298142
1.3519061583577712
1.3401759530791788
1.327468230694037
1.3157380254154447
1.305962854349951
1.2971652003910068
1.2883675464320623
1.281524926686217
1.278592375366569
1.2766373411534702
1.273704789833822
1.2697947214076246
1.2639296187683284
1.2150537634408602
1.1436950146627567
1.1016617790811338
1.0733137829912025
1.0498533724340176
1.0283479960899315
1.0087976539589445
0.989247311827957
0.975562072336266
0.9638318670576737
0.9491691104594332
0.9345063538611924
0.9188660801564028
0.9032258064516128
0.8875855327468231
0.8729227761485826
0.8592375366568915
0.8455522971652004
0.8318670576735093
0.8181818181818182
0.8103616813294232
0.8054740957966764
0.7996089931573802
0.793743890518084
0.7878787878787878
0.7810361681329423
0.7732160312805474
0.7634408602150538
0.7536656891495601
0.7448680351906158
0.7370478983382209
0.7321603128054741
0.7311827956989247
0.7360703812316716
0.7438905180840665
0.750733137829912
0.7565982404692082
0.7624633431085044
0.7683284457478006
0.7771260997067448
0.7898338220918866
0.8123167155425219
0.8484848484848485
0.9022482893450636
0.975562072336266
1.0527859237536656
1.13880742913001
1.249266862170088
1.3773216031280548
1.517106549364614
1.667644183773216
1.8240469208211143
1.9804496578690127
2.131964809384164
2.2737047898338223
2.39980449657869
2.50733137829912
2.5943304007820136
2.6529814271749754
2.6901270772238512
2.719452590420332
2.736070381231672
2.739980449657869
2.7311827956989245
2.7096774193548385
2.674486803519061
2.627565982404692
2.5698924731182795
2.504398826979472
2.4330400782013686
2.363636363636364
2.2961876832844577
2.222873900293255
2.146627565982405
2.0684261974584555
1.991202346041056
1.9130009775171064
1.8347996089931573
1.758553274682307
1.6852394916911049
1.6177908113391983
1.5581622678396871
1.5063538611925709
1.4652981427174976
1.4301075268817205
1.392961876832845
1.3548387096774193
1.3186705767350928
1.284457478005865
1.2541544477028348
1.2297165200391007
1.2111436950146628
1.1964809384164223
1.1867057673509287
1.1798631476050832
1.176930596285435
1.1759530791788857
1.1749755620723363
1.1730205278592376
1.1710654936461389
1.1691104594330402
1.166177908113392
1.163245356793744
1.1593352883675463
1.1534701857282503
1.1466275659824048
1.1378299120234605
1.1300097751710656
1.1221896383186705
1.1124144672531768
1.1016617790811338
1.0918866080156402
1.083088954056696
1.075268817204301
1.067448680351906
1.0586510263929618
1.0478983382209188
1.035190615835777
1.0195503421309873
1.002932551319648
0.9902248289345064
0.9804496578690128
0.9687194525904204
0.9560117302052786
0.9433040078201368
0.9335288367546432
0.9247311827956988
0.9178885630498532
0.9120234604105572
0.906158357771261
0.9002932551319648
0.8934506353861192
0.8895405669599218
0.8856304985337243
0.8787878787878788
0.8699902248289345
0.8611925708699902
0.8543499511241447
0.8514173998044966
0.8533724340175953
0.8572825024437928
0.8621700879765396
0.8651026392961877
0.8680351906158358
0.8719452590420332
0.8807429130009775
0.895405669599218
0.9178885630498532
0.9501466275659824
0.9960899315738024
1.0586510263929618
1.1368523949169111
1.2336265884652982
1.3479960899315735
1.478005865102639
1.6226783968719452
1.7771260997067448
1.913978494623656
2.040078201368524
2.1788856304985336
2.315738025415445
2.4457478005865103
2.563049853372434
2.6637341153470184
2.7468230694037143
2.8103616813294234
2.854349951124145
2.878787878787879
2.8836754643206257
2.8699902248289346
2.843597262952102
2.8054740957966766
2.758553274682307
2.704789833822092
2.6451612903225805
2.5806451612903225
2.512218963831867
2.439882697947214
2.363636363636364
2.2854349951124147
2.206256109481916
2.1270772238514173
2.0557184750733137
1.989247311827957
1.919843597262952
1.8514173998044965
1.7859237536656891
1.7233626588465298
1.664711632453568
1.6099706744868034
1.5610948191593352
1.5190615835777126
1.4838709677419355
1.456500488758553
1.436950146627566
1.4242424242424243
1.414467253176931
1.4056695992179864
1.396871945259042
1.3900293255131966
1.3851417399804498
1.383186705767351
1.3822091886608017
1.3822091886608017
1.3822091886608017
1.3822091886608017
1.3822091886608017
1.3822091886608017
1.3822091886608017
1.3822091886608017
1.383186705767351
1.3861192570869991
1.3900293255131966
1.393939393939394
1.396871945259042
1.396871945259042
1.393939393939394
1.3890518084066472
1.383186705767351
1.3782991202346042
1.375366568914956
1.3743890518084063
1.3743890518084063
1.375366568914956
1.375366568914956
1.3734115347018572
1.3695014662756595
1.3636363636363635
1.356793743890518
1.3499511241446724
1.343108504398827
1.3362658846529814
1.3313782991202343
1.3294232649071358
1.3255131964809383
1.3206256109481915
1.3147605083088951
1.3079178885630498
1.3010752688172045
1.29227761485826
1.2834799608993157
1.2746823069403714
1.2658846529814272
1.2570869990224829
1.2502443792766371
1.24633431085044
1.2443792766373412
1.2434017595307918
1.2434017595307918
1.2443792766373412
1.2453567937438903
1.2453567937438903
1.2473118279569892
1.2531769305962854
1.2658846529814272
1.289345063538612
1.3812316715542523
1.5053763440860215
1.5962854349951123
1.686217008797654
1.7849462365591398
1.8944281524926687
2.0146627565982405
2.1436950146627565
2.27761485826002
2.4134897360703813
2.5464320625610948
2.6715542521994133
2.78494623655914
2.8826979472140764
2.951124144672532
2.9980449657869013
3.038123167155425
3.065493646138808
3.080156402737048
3.0821114369501466
3.070381231671554
3.04594330400782
3.010752688172043
2.964809384164223
2.9100684261974585
2.849462365591398
2.788856304985337
2.7262952101661777
2.6559139784946235
2.5806451612903225
2.5024437927663734
2.421309872922776
2.340175953079179
2.260997067448681
2.1837732160312804
2.10850439882698
2.0361681329423265
1.9657869012707725
1.8983382209188664
1.842619745845552
1.7947214076246334
1.7468230694037146
1.7028347996089932
1.6627565982404693
1.6275659824046922
1.5972629521016617
1.5698924731182795
1.5454545454545454
1.5249266862170088
1.5073313782991202
1.4936461388074291
1.4848484848484849
1.478005865102639
1.4701857282502444
1.4633431085043989
1.456500488758553
1.4496578690127078
1.4428152492668622
1.436950146627566
1.4291300097751711
1.4193548387096775
1.409579667644184
1.3988269794721409
1.3890518084066472
1.3822091886608017
1.3763440860215057
1.3685239491691104
1.3587487781036167
1.3479960899315735
1.3372434017595307
1.327468230694037
1.3186705767350928
1.3098729227761483
1.3010752688172045
1.2913000977517106
1.2795698924731185
1.270772238514174
1.262952101661779
1.252199413489736
1.2394916911045943
1.224828934506354
1.2101661779081134
1.195503421309873
1.181818181818182
1.1700879765395895
1.1612903225806452
1.155425219941349
1.1515151515151516
1.1505376344086022
1.1505376344086022
1.1466275659824048
1.1397849462365592
1.130987292277615
1.1202346041055715
1.1094819159335287
1.0987292277614855
1.0899315738025417
1.0811339198435972
1.0742913000977516
1.0703812316715542
1.0684261974584557
1.0694037145650048
1.0742913000977516
1.0801564027370478
1.0899315738025417
1.1065493646138806
1.130987292277615
1.1671554252199414
1.2160312805474096
1.2795698924731185
1.359726295210166
1.456500488758553
1.56891495601173
1.675464320625611
1.782991202346041
1.911045943304008
2.047898338220919
2.188660801564027
2.326490713587488
2.455522971652004
2.5718475073313782
2.673509286412512
2.757575757575758
2.823069403714565
2.8699902248289346
2.8993157380254155
2.909090909090909
2.902248289345064
2.886608015640274
2.860215053763441
2.823069403714565
2.777126099706745
2.724340175953079
2.665689149560117
2.6021505376344085
2.533724340175953
2.462365591397849
2.3870967741935485
2.317693059628544
2.2521994134897363
2.182795698924731
2.1114369501466275
2.0410557184750733
1.9716520039100685
1.905180840664712
1.842619745845552
1.7839687194525904
1.7311827956989247
1.6823069403714566
1.640273704789834
1.603128054740958
1.5747800586510263
1.5532746823069403
1.533724340175953
1.5161290322580645
1.501466275659824
1.487781036168133
1.4750733137829912
1.4652981427174976
1.457478005865103
1.4506353861192571
1.444770283479961
1.4389051808406648
1.4349951124144673
1.4320625610948192
1.426197458455523
1.4203323558162269
1.412512218963832
1.404692082111437
1.396871945259042
1.3890518084066472
1.3792766373411536
1.3685239491691104
1.356793743890518
1.343108504398827
1.3304007820136852
1.321603128054741
1.3147605083088951
1.3069403714565004
1.2991202346041055
1.2903225806451613
1.281524926686217
1.2717497556207231
1.2619745845552297
1.2512218963831867
1.238514173998045
1.224828934506354
1.2111436950146628
1.2023460410557183
1.195503421309873
1.187683284457478
1.181818181818182
1.1759530791788857
1.1710654936461389
1.164222873900293
1.1564027370478984
1.1466275659824048
1.1348973607038124
1.1241446725317692
1.115347018572825
1.1065493646138806
1.1016617790811338
1.099706744868035
1.096774193548387
1.0928641251221896
1.088954056695992
1.0869990224828934
1.0879765395894427
1.0918866080156402
1.0977517106549364
1.10752688172043
1.1202346041055715
1.1378299120234605
1.1612903225806452
1.1935483870967742
1.2404692082111437
1.3040078201368523
1.3861192570869991
1.4858260019550342
1.6001955034213098
1.7253176930596286
1.86119257086999
2.0019550342130987
2.144672531769306
2.2844574780058653
2.4164222873900294
2.5219941348973607
2.6080156402737047
2.6930596285435
2.7702834799608995
2.833822091886608
2.8836754643206257
2.916911045943304
2.932551319648094
2.932551319648094
2.916911045943304
2.887585532746823
2.84652981427175
2.7996089931573804
2.748778103616813
2.689149560117302
2.6236559139784945
2.5542521994134897
2.4809384164222874
2.4056695992179864
2.3284457478005867
2.2502443792766376
2.1730205278592374
2.0977517106549364
2.026392961876833
1.9589442815249267
1.903225806451613
1.8543499511241448
1.8025415444770283
1.750733137829912
1.7008797653958945
1.635386119257087
1.565982404692082
1.5161290322580645
1.478983382209189
1.452590420332356
1.4330400782013686
1.418377321603128
1.409579667644184
1.4027370478983383
1.3949169110459434
1.388074291300098
1.383186705767351
1.380254154447703
1.3773216031280548
1.375366568914956
1.375366568914956
1.3743890518084063
1.3724340175953078
1.3695014662756595
1.364613880742913
1.3607038123167154
1.356793743890518
1.3509286412512218
1.3440860215053765
1.3372434017595307
1.3294232649071358
1.321603128054741
1.3128054740957966
1.3040078201368523
1.29227761485826
1.278592375366569
1.2639296187683284
1.2541544477028348
1.2473118279569892
1.238514173998045
1.23069403714565
1.224828934506354
1.219941348973607
1.2150537634408602
1.209188660801564
1.2013685239491692
1.1925708699902249
1.18475073313783
1.1779081133919844
1.1749755620723363
1.173998044965787
1.1710654936461389
1.1671554252199414
1.164222873900293
1.1622678396871946
1.1612903225806452
1.160312805474096
1.160312805474096
1.1622678396871946
1.1652003910068427
1.1700879765395895
1.1759530791788857
1.1827956989247312
1.1896383186705768
1.1964809384164223
1.2043010752688172
1.2150537634408602
1.23069403714565
1.2541544477028348
1.2873900293255132
1.3333333333333333
1.393939393939394
1.4711632453567938
1.564027370478983
1.6559139784946235
1.750733137829912
1.868035190615836
1.9990224828934504
2.136852394916911
2.272727272727273
2.403714565004888
2.5249266862170088
2.633431085043988
2.727272727272727
2.8054740957966766
2.8670576735092865
2.913000977517106
2.9374389051808407
2.9472140762463344
2.9501466275659824
2.9423264907135875
2.9227761485826003
2.8914956011730206
2.8484848484848486
2.795698924731183
2.735092864125122
2.668621700879765
2.598240469208211
2.5268817204301075
2.4604105571847508
2.3978494623655915
2.3304007820136854
2.260997067448681
2.190615835777126
2.121212121212121
2.053763440860215
1.9902248289345064
1.9315738025415443
1.878787878787879
1.8318670576735088
1.7898338220918866
1.7526881720430108
1.7233626588465298
1.6979472140762464
1.6735092864125125
1.6500488758553276
1.629521016617791
1.6129032258064515
1.6001955034213098
1.5923753665689149
1.5884652981427174
1.5884652981427174
1.5884652981427174
1.5865102639296187
1.585532746823069
1.58455522971652
1.5826001955034212
1.581622678396872
1.5826001955034212
1.5865102639296187
1.590420332355816
1.5943304007820136
1.5972629521016617
1.598240469208211
1.598240469208211
1.5962854349951123
1.5933528836754642
1.5894428152492668
1.585532746823069
1.5806451612903225
1.5757575757575757
1.5698924731182795
1.563049853372434
1.555229716520039
1.5454545454545454
1.5347018572825024
1.5239491691104594
1.5131964809384164
1.5024437927663734
1.4946236559139785
1.4868035190615836
1.47702834799609
1.4652981427174976
