ppg
1.8914956011730208
1.858260019550342
1.8240469208211143
1.7888563049853372
1.7546432062561097
1.7204301075268815
1.6881720430107527
1.6559139784946235
1.624633431085044
1.598240469208211
1.5747800586510263
1.5503421309872922
1.5249266862170088
1.500488758553275
1.47702834799609
1.455522971652004
1.4349951124144673
1.41544477028348
1.3978494623655917
1.3812316715542523
1.364613880742913
1.348973607038123
1.33822091886608
1.3294232649071358
1.3196480938416422
1.3088954056695992
1.2981427174975562
1.2873900293255132
1.278592375366569
1.2697947214076246
1.2619745845552297
1.2541544477028348
1.24633431085044
1.238514173998045
1.2346041055718475
1.2316715542521994
1.227761485826002
1.2228739002932552
1.2179863147605083
1.2130987292277615
1.2082111436950147
1.203323558162268
1.198435972629521
1.1945259042033236
1.1906158357771262
1.187683284457478
1.18475073313783
1.18475073313783
1.1857282502443791
1.1857282502443791
1.1857282502443791
1.18475073313783
1.1837732160312806
1.1827956989247312
1.181818181818182
1.1808406647116323
1.1798631476050832
1.1788856304985338
1.1779081133919844
1.1798631476050832
1.1837732160312806
1.1857282502443791
1.1867057673509287
1.1867057673509287
1.1867057673509287
1.1857282502443791
1.18475073313783
1.1857282502443791
1.1906158357771262
1.203323558162268
1.2297165200391007
1.273704789833822
1.327468230694037
1.3958944281524928
1.4916911045943304
1.6099706744868034
1.7458455522971652
1.89247311827957
2.0410557184750733
2.185728250244379
2.320625610948192
2.4408602150537635
2.5454545454545454
2.634408602150537
2.696969696969697
2.7438905180840663
2.788856304985337
2.8299120234604107
2.865102639296188
2.895405669599218
2.920821114369501
2.9423264907135875
2.9579667644183774
2.967741935483871
2.9716520039100685
2.9667644183773216
2.95405669599218
2.932551319648094
2.903225806451613
2.866080156402737
2.819159335288368
2.764418377321604
2.701857282502444
2.633431085043988
2.5591397849462365
2.4809384164222874
2.404692082111437
2.334310850439883
2.269794721407625
2.2160312805474094
2.1700879765395893
2.126099706744868
2.086021505376344
2.048875855327468
2.013685239491691
1.9794721407624636
1.945259042033236
1.9100684261974583
1.873900293255132
1.836754643206256
1.7996089931573802
1.761485826001955
1.7282502443792769
1.696969696969697
1.6627565982404693
1.6275659824046922
1.5913978494623655
1.5562072336265884
1.521994134897361
1.4887585532746823
1.457478005865103
1.4281524926686218
1.4007820136852396
1.375366568914956
1.3558162267839686
1.33822091886608
1.3186705767350928
1.2991202346041055
1.2805474095796676
1.2619745845552297
1.2434017595307918
1.2267839687194526
1.2111436950146628
1.1964809384164223
1.1827956989247312
1.1700879765395895
1.1612903225806452
1.1544477028347997
1.1456500488758554
1.1348973607038124
1.1251221896383188
1.115347018572825
1.1055718475073313
1.0957966764418376
1.086021505376344
1.0772238514173995
1.0694037145650048
1.06158357771261
1.053763440860215
1.0498533724340176
1.0478983382209188
1.0439882697947214
1.040078201368524
1.0361681329423265
1.032258064516129
1.029325513196481
1.0263929618768328
1.024437927663734
1.0224828934506354
1.0205278592375366
1.0195503421309873
1.021505376344086
1.024437927663734
1.0254154447702837
1.0263929618768328
1.0273704789833822
1.0283479960899315
1.029325513196481
1.0303030303030305
1.0312805474095796
1.032258064516129
1.0332355816226784
1.0332355816226784
1.0332355816226784
1.035190615835777
1.0391006842619743
1.0420332355816226
1.0469208211143697
1.0596285434995112
1.0850439882697946
1.1280547409579669
1.1935483870967742
1.2825024437927663
1.3949169110459434
1.5278592375366569
1.6764418377321604
1.8113391984359728
1.93841642228739
2.0772238514174
2.2140762463343107
2.340175953079179
2.4516129032258065
2.547409579667644
2.627565982404692
2.6930596285435
2.7468230694037143
2.791788856304985
2.8289345063538613
2.859237536656892
2.877810361681329
2.8885630498533725
2.8993157380254155
2.90811339198436
2.911045943304008
2.9071358748778104
2.895405669599218
2.873900293255132
2.841642228739003
2.798631476050831
2.744868035190616
2.681329423264907
2.6177908113391983
2.5532746823069403
2.482893450635386
2.410557184750733
2.340175953079179
2.2737047898338223
2.2140762463343107
2.161290322580645
2.114369501466276
2.0733137829912023
2.037145650048876
2.002932551319648
1.9696969696969695
1.9403714565004888
1.9130009775171064
1.881720430107527
1.8484848484848484
1.8142717497556209
1.7781036168132942
1.7419354838709675
1.704789833822092
1.667644183773216
1.6304985337243405
1.5943304007820136
1.5591397849462365
1.530791788856305
1.5063538611925709
1.478983382209189
1.4506353861192571
1.4222873900293256
1.3958944281524928
1.370478983382209
1.3470185728250244
1.324535679374389
1.303030303030303
1.2825024437927663
1.262952101661779
1.2443792766373412
1.2316715542521994
1.2209188660801564
1.209188660801564
1.1964809384164223
1.1827956989247312
1.1700879765395895
1.1583577712609971
1.147605083088954
1.1358748778103618
1.1251221896383188
1.115347018572825
1.1055718475073313
1.099706744868035
1.096774193548387
1.0909090909090908
1.0840664711632453
1.0762463343108504
1.0694037145650048
1.0635386119257086
1.0586510263929618
1.0547409579667644
1.050830889540567
1.0469208211143697
1.0439882697947214
1.0410557184750733
1.0420332355816226
1.0439882697947214
1.0439882697947214
1.043010752688172
1.0420332355816226
1.0420332355816226
1.0420332355816226
1.0420332355816226
1.0420332355816226
1.0420332355816226
1.0420332355816226
1.043010752688172
1.04594330400782
1.050830889540567
1.053763440860215
1.0557184750733135
1.056695992179863
1.056695992179863
1.056695992179863
1.0576735092864125
1.0606060606060606
1.0684261974584557
1.0850439882697946
1.115347018572825
1.1652003910068427
1.224828934506354
1.2991202346041055
1.4027370478983383
1.530791788856305
1.6764418377321604
1.8328445747800584
1.992179863147605
2.145650048875855
2.289345063538612
2.4173998044965788
2.5288367546432062
2.6236559139784945
2.6911045943304006
2.740957966764418
2.787878787878788
2.83088954056696
2.868035190615836
2.8993157380254155
2.9257086999022484
2.9472140762463344
2.963831867057673
2.975562072336266
2.9804496578690127
2.9765395894428157
2.963831867057673
2.941348973607038
2.9100684261974585
2.8690127077223853
2.8181818181818183
2.758553274682307
2.6901270772238512
2.616813294232649
2.5405669599217986
2.464320625610948
2.391006842619746
2.3225806451612905
2.260019550342131
2.2082111436950145
2.164222873900293
2.1221896383186705
2.083088954056696
2.046920821114369
2.0127077223851417
1.978494623655914
1.943304007820137
1.9090909090909087
1.873900293255132
1.836754643206256
1.7996089931573802
1.7673509286412512
1.737047898338221
1.7018572825024438
1.664711632453568
1.6285434995112416
1.5933528836754642
1.5581622678396871
1.5249266862170088
1.4926686217008798
1.4623655913978495
1.4330400782013686
1.4056695992179864
1.3792766373411536
1.3587487781036167
1.3411534701857282
1.321603128054741
1.3020527859237536
1.2825024437927663
1.2639296187683284
1.24633431085044
1.2297165200391007
1.2140762463343109
1.1994134897360704
1.1857282502443791
1.1720430107526882
1.163245356793744
1.155425219941349
1.1456500488758554
1.1358748778103618
1.126099706744868
1.1163245356793745
1.1065493646138806
1.0977517106549364
1.088954056695992
1.0801564027370478
1.072336265884653
1.0654936461388074
1.0596285434995112
1.0576735092864125
1.0576735092864125
1.0557184750733135
1.0527859237536656
1.050830889540567
1.0478983382209188
1.04594330400782
1.043010752688172
1.0410557184750733
1.0381231671554252
1.035190615835777
1.0332355816226784
1.0342130987292275
1.0371456500488758
1.0391006842619743
1.040078201368524
1.040078201368524
1.0410557184750733
1.0420332355816226
1.0439882697947214
1.04594330400782
1.0469208211143697
1.0469208211143697
1.0469208211143697
1.0469208211143697
1.0488758553274682
1.0527859237536656
1.056695992179863
1.0654936461388074
1.0850439882697946
1.1192570869990224
1.173998044965787
1.252199413489736
1.3558162267839686
1.482893450635386
1.629521016617791
1.7878787878787878
1.9296187683284456
2.058651026392962
2.196480938416422
2.3313782991202348
2.453567937438905
2.5610948191593352
2.652003910068426
2.727272727272727
2.789833822091887
2.8426197458455524
2.886608015640274
2.924731182795699
2.956989247311828
2.9765395894428157
2.9872922776148583
2.99902248289345
3.007820136852395
3.010752688172043
3.005865102639296
2.991202346041056
2.9667644183773216
2.9315738025415445
2.8856304985337244
2.8289345063538613
2.7624633431085046
2.695014662756598
2.6265884652981426
2.5513196480938416
2.4731182795698925
2.396871945259042
2.324535679374389
2.2580645161290325
2.1974584555229715
2.1436950146627565
2.096774193548387
2.0547409579667644
2.016617790811339
1.9794721407624636
1.9472140762463344
1.9178885630498532
1.884652981427175
1.8504398826979471
1.8142717497556209
1.7781036168132942
1.7409579667644184
1.7028347996089932
1.664711632453568
1.6265884652981428
1.5884652981427174
1.5513196480938416
1.521016617790811
1.4936461388074291
1.4623655913978495
1.4291300097751711
1.3958944281524928
1.3636363636363635
1.3313782991202343
1.300097751710655
1.2688172043010753
1.2375366568914956
1.2072336265884651
1.1779081133919844
1.1495601173020529
1.1280547409579669
1.110459433040078
1.0909090909090908
1.0713587487781036
1.0527859237536656
1.0361681329423265
1.0224828934506354
1.0117302052785924
1.0039100684261977
0.9980449657869012
0.9941348973607038
0.9912023460410556
0.9921798631476052
0.9951124144672532
0.997067448680352
0.9980449657869012
0.9980449657869012
0.9980449657869012
0.9980449657869012
0.9980449657869012
0.9980449657869012
0.9980449657869012
0.997067448680352
0.9960899315738024
0.9951124144672532
0.997067448680352
1.0
1.0009775171065494
0.9990224828934506
0.9960899315738024
0.9931573802541545
0.9882697947214076
0.9833822091886608
0.978494623655914
0.9716520039100685
0.9638318670576737
0.9550342130987292
0.9501466275659824
0.946236559139785
0.93841642228739
0.9296187683284456
0.919843597262952
0.9110459433040078
0.9032258064516128
0.8973607038123167
0.8944281524926686
0.895405669599218
0.9032258064516128
0.9217986314760508
0.95405669599218
0.9960899315738024
1.053763440860215
1.1378299120234605
1.2482893450635386
1.3822091886608017
1.5356793743890518
1.7018572825024438
1.871945259042033
2.0391006842619745
2.196480938416422
2.337243401759531
2.4594330400782014
2.549364613880743
2.6158357771261
2.677419354838709
2.729227761485826
2.7702834799608995
2.801564027370479
2.825024437927664
2.841642228739003
2.8533724340175954
2.859237536656892
2.860215053763441
2.855327468230694
2.8426197458455524
2.822091886608016
2.793743890518084
2.757575757575758
2.7126099706744866
2.658846529814272
2.598240469208211
2.5317693059628543
2.462365591397849
2.393939393939394
2.3284457478005867
2.269794721407625
2.217986314760508
2.176930596285435
2.1436950146627565
2.114369501466276
2.088954056695992
2.0664711632453567
2.0449657869012707
2.0234604105571847
2.0
1.9726295210166176
1.9413489736070384
1.9071358748778104
1.8699902248289344
1.8347996089931573
1.7996089931573802
1.7595307917888563
1.7165200391006843
1.672531769305963
1.629521016617791
1.5865102639296187
1.544477028347996
1.504398826979472
1.466275659824047
1.4301075268817205
1.396871945259042
1.3665689149560116
1.3440860215053765
1.3264907135874875
1.3079178885630498
1.2913000977517106
1.2766373411534702
1.2649071358748778
1.2541544477028348
1.2453567937438903
1.2590420332355816
1.2854349951124144
1.2961876832844574
1.300097751710655
1.303030303030303
1.3049853372434017
1.3049853372434017
1.303030303030303
1.300097751710655
1.2961876832844574
1.2913000977517106
1.2854349951124144
1.278592375366569
1.270772238514174
1.2619745845552297
1.2531769305962854
1.2443792766373412
1.238514173998045
1.2336265884652982
1.2267839687194526
1.2189638318670577
1.2101661779081134
1.2013685239491692
1.1915933528836755
1.181818181818182
1.1730205278592376
1.1652003910068427
1.1583577712609971
1.152492668621701
1.1495601173020529
1.1495601173020529
1.1485826001955035
1.147605083088954
1.1466275659824048
1.1466275659824048
1.147605083088954
1.1495601173020529
1.1515151515151516
1.155425219941349
1.1593352883675463
1.163245356793744
1.166177908113392
1.1700879765395895
1.1759530791788857
1.1837732160312806
1.195503421309873
1.2160312805474096
1.2502443792766371
1.3020527859237536
1.3763440860215057
1.4750733137829912
1.5943304007820136
1.732160312805474
1.881720430107527
2.0146627565982405
2.1358748778103616
2.2668621700879767
2.393939393939394
2.509286412512219
2.610948191593353
2.696969696969697
2.7702834799608995
2.831867057673509
2.8836754643206257
2.9266862170087977
2.963831867057673
2.995112414467253
3.013685239491691
3.024437927663734
3.0361681329423265
3.0449657869012707
3.0498533724340176
3.047898338220919
3.037145650048876
3.018572825024438
2.9902248289345064
2.952101661779081
2.9042033235581624
2.84652981427175
2.7869012707722387
2.724340175953079
2.653958944281525
2.578690127077224
2.5034213098729228
2.4301075268817205
2.361681329423265
2.2991202346041058
2.242424242424242
2.1925708699902247
2.1495601173020527
2.110459433040078
2.075268817204301
2.04594330400782
2.018572825024438
1.9902248289345064
1.959921798631476
1.927663734115347
1.8944281524926687
1.8602150537634408
1.825024437927664
1.7888563049853372
1.75366568914956
1.718475073313783
1.683284457478006
1.6529814271749756
1.6256109481915937
1.5962854349951123
1.565982404692082
1.5366568914956011
1.509286412512219
1.482893450635386
1.458455522971652
1.4349951124144673
1.4134897360703813
1.393939393939394
1.375366568914956
1.3587487781036167
1.346041055718475
1.3362658846529814
1.3235581622678396
1.310850439882698
1.2981427174975562
1.2864125122189638
1.2746823069403714
1.262952101661779
1.252199413489736
1.241446725317693
1.2316715542521994
1.2209188660801564
1.2140762463343109
1.209188660801564
1.2023460410557183
1.1945259042033236
1.1867057673509287
1.1798631476050832
1.1730205278592376
1.1671554252199414
1.1612903225806452
1.1564027370478984
1.1515151515151516
1.1466275659824048
1.142717497556207
1.141739980449658
1.141739980449658
1.1407624633431086
1.13880742913001
1.1368523949169111
1.1348973607038124
1.133919843597263
1.1329423264907137
1.1329423264907137
1.1329423264907137
1.1329423264907137
1.1329423264907137
1.1348973607038124
1.1378299120234605
1.1397849462365592
1.1407624633431086
1.1407624633431086
1.1407624633431086
1.1407624633431086
1.1407624633431086
1.141739980449658
1.1466275659824048
1.1583577712609971
1.1808406647116323
1.219941348973607
1.267839687194526
1.3313782991202343
1.4213098729227762
1.5347018572825024
1.667644183773216
1.8132942326490715
1.962854349951124
2.110459433040078
2.249266862170088
2.3743890518084068
2.4838709677419355
2.576735092864125
2.644183773216031
2.6940371456500487
2.7419354838709675
2.7839687194525906
2.820136852394917
2.8514173998044967
2.87683284457478
2.898338220918866
2.9149560117302054
2.9257086999022484
2.930596285434995
2.927663734115347
2.9149560117302054
2.89345063538612
2.866080156402737
2.83088954056696
2.7869012707722387
2.7341153470185726
2.673509286412512
2.606060606060606
2.5347018572825024
2.462365591397849
2.391006842619746
2.3225806451612905
2.260019550342131
2.2082111436950145
2.164222873900293
2.12316715542522
2.085043988269794
2.050830889540567
2.0175953079178885
1.9853372434017595
1.95405669599218
1.9227761485826005
1.8914956011730208
1.8592375366568916
1.826001955034213
1.7956989247311828
1.7663734115347018
1.7341153470185728
1.699902248289345
1.6656891495601174
1.6314760508308896
1.5972629521016617
1.5650048875855327
1.533724340175953
1.5034213098729228
1.4750733137829912
1.447702834799609
1.4222873900293256
1.401759530791789
1.3851417399804498
1.367546432062561
1.348973607038123
1.3313782991202343
1.3147605083088951
1.300097751710655
1.2854349951124144
1.2717497556207231
1.2570869990224829
1.2443792766373412
1.2316715542521994
1.2228739002932552
1.2160312805474096
1.2072336265884651
1.198435972629521
1.1896383186705768
1.181818181818182
1.173998044965787
1.166177908113392
1.1593352883675463
1.1515151515151516
1.144672531769306
1.1378299120234605
1.1329423264907137
1.130987292277615
1.130987292277615
1.0977517106549364
1.0478983382209188
1.021505376344086
1.0068426197458455
0.9980449657869012
0.9921798631476052
0.9882697947214076
0.9853372434017597
0.9833822091886608
0.981427174975562
0.9833822091886608
0.9863147605083088
0.9872922776148584
0.9872922776148584
0.9872922776148584
0.9882697947214076
0.989247311827957
0.9902248289345064
0.9912023460410556
0.9931573802541545
0.9941348973607038
0.9960899315738024
0.997067448680352
1.0009775171065494
1.0058651026392962
1.010752688172043
1.021505376344086
1.043010752688172
1.0811339198435972
1.1407624633431086
1.2238514173998043
1.3304007820136852
1.458455522971652
1.603128054740958
1.7565982404692082
1.8905180840664717
2.010752688172043
2.1388074291300097
2.260997067448681
2.3704789833822093
2.4652981427174976
2.5454545454545454
2.611925708699902
2.665689149560117
2.710654936461388
2.7468230694037143
2.7751710654936463
2.7976539589442817
2.809384164222874
2.8132942326490715
2.81622678396872
2.814271749755621
2.806451612903226
2.790811339198436
2.7653958944281527
2.730205278592375
2.684261974584555
2.6295210166177907
2.567937438905181
2.5004887585532747
2.436950146627566
2.375366568914956
2.3118279569892475
2.249266862170088
2.190615835777126
2.1378299120234603
2.089931573802541
2.047898338220919
2.0097751710654936
1.975562072336266
1.943304007820137
1.9120234604105573
1.8807429130009776
1.8523949169110456
1.825024437927664
1.793743890518084
1.7605083088954057
1.726295210166178
1.6901270772238517
1.6549364613880744
1.619745845552297
1.585532746823069
1.5513196480938416
1.5180840664711632
1.4858260019550342
1.4594330400782014
1.435972629521017
1.4115347018572826
1.3870967741935485
1.3626588465298142
1.3401759530791788
1.3176930596285434
1.2971652003910068
1.2776148582600195
1.2590420332355816
1.241446725317693
1.224828934506354
1.2101661779081134
1.1994134897360704
1.1915933528836755
1.181818181818182
1.1720430107526882
1.1612903225806452
1.1505376344086022
1.1397849462365592
1.1290322580645162
1.1192570869990224
1.1094819159335287
1.099706744868035
1.0909090909090908
1.086021505376344
1.083088954056696
1.0791788856304985
1.0742913000977516
1.0684261974584557
1.0635386119257086
1.0586510263929618
1.053763440860215
1.0498533724340176
1.04594330400782
1.043010752688172
1.040078201368524
1.0371456500488758
1.0381231671554252
1.040078201368524
1.040078201368524
1.040078201368524
1.040078201368524
1.040078201368524
1.040078201368524
1.040078201368524
1.040078201368524
1.040078201368524
1.040078201368524
1.040078201368524
1.043010752688172
1.0469208211143697
1.0488758553274682
1.0488758553274682
1.0488758553274682
1.0478983382209188
1.0469208211143697
1.0478983382209188
1.0527859237536656
1.0664711632453567
1.0948191593352885
1.141739980449658
1.2111436950146628
1.289345063538612
1.380254154447703
1.500488758553275
1.6412512218963833
1.793743890518084
1.949169110459433
2.1006842619745845
2.241446725317693
2.366568914956012
2.4750733137829912
2.567937438905181
2.644183773216031
2.697947214076246
2.736070381231672
2.774193548387097
2.809384164222874
2.8406647116324537
2.868035190615836
2.889540566959922
2.906158357771261
2.9159335288367547
2.918866080156403
2.913000977517106
2.897360703812317
2.8729227761485827
2.8396871945259043
2.798631476050831
2.748778103616813
2.689149560117302
2.622678396871945
2.550342130987292
2.4750733137829912
2.39980449657869
2.3274682306940373
2.259042033235582
2.196480938416422
2.1407624633431084
2.093841642228739
2.053763440860215
2.0146627565982405
1.978494623655914
1.9442815249266865
1.911045943304008
1.8778103616813293
1.844574780058651
1.8103616813294232
1.7741935483870968
1.7380254154447703
1.7018572825024438
1.6695992179863148
1.6392961876832846
1.606060606060606
1.5718475073313782
1.5366568914956011
1.5024437927663734
1.4682306940371457
1.435972629521017
1.4056695992179864
1.3773216031280548
1.3499511241446724
1.324535679374389
1.3010752688172045
1.2825024437927663
1.2658846529814272
1.2482893450635386
1.2297165200391007
1.2121212121212122
1.195503421309873
1.1798631476050832
1.1652003910068427
1.1515151515151516
1.1378299120234605
1.1241446725317692
1.110459433040078
1.099706744868035
1.0909090909090908
1.0791788856304985
1.0635386119257086
1.0439882697947214
1.0205278592375366
0.9931573802541545
0.9628543499511242
0.9305962854349952
0.8983382209188661
0.8660801564027371
0.833822091886608
0.804496578690127
0.7839687194525904
0.7702834799608993
0.7546432062561095
0.7409579667644184
0.7302052785923754
0.7223851417399805
0.7174975562072337
0.7165200391006843
0.718475073313783
0.7243401759530792
0.7321603128054741
0.7409579667644184
0.7526881720430108
0.7663734115347018
0.7800586510263929
0.7927663734115347
0.8064516129032258
0.820136852394917
0.8347996089931574
0.8494623655913979
0.8651026392961877
0.9491691104594332
1.0654936461388074
1.130987292277615
1.1700879765395895
1.1964809384164223
1.2179863147605083
1.238514173998045
1.2639296187683284
1.2991202346041055
1.3509286412512218
1.4213098729227762
1.5131964809384164
1.6256109481915937
1.7556207233626588
1.8973607038123168
2.04594330400782
2.1739980449657867
2.2883675464320627
2.4086021505376345
2.52297165200391
2.625610948191593
2.7145650048875853
2.789833822091887
2.8533724340175954
2.905180840664712
2.949169110459433
2.9853372434017595
3.01564027370479
3.040078201368524
3.0527859237536656
3.058651026392962
3.0635386119257086
3.064516129032258
3.058651026392962
3.0439882697947214
3.021505376344086
2.989247311827957
2.9472140762463344
2.897360703812317
2.838709677419355
2.774193548387097
2.7116324535679373
2.6510263929618767
2.5865102639296187
2.52297165200391
2.462365591397849
2.406647116324536
2.355816226783969
2.3118279569892475
2.271749755620724
2.2355816226783967
2.2023460410557183
2.1700879765395893
2.1378299120234603
2.1094819159335287
2.0821114369501466
2.050830889540567
2.018572825024438
1.9843597262952104
1.9501466275659824
1.9149560117302051
1.8807429130009776
1.8465298142717497
1.812316715542522
1.7790811339198436
1.7468230694037146
1.7204301075268815
1.696969696969697
1.6715542521994136
1.64613880742913
1.6217008797653958
1.598240469208211
1.576735092864125
1.5562072336265884
1.5366568914956011
1.5190615835777126
1.5024437927663734
1.4868035190615836
1.4711632453567938
1.4594330400782014
1.4496578690127078
1.4379276637341154
1.426197458455523
1.4134897360703813
1.4027370478983383
1.3919843597262953
1.3822091886608017
1.3724340175953078
1.3626588465298142
1.35386119257087
1.346041055718475
1.3421309872922775
1.3391984359726294
1.335288367546432
1.3304007820136852
1.3255131964809383
1.3196480938416422
1.3147605083088951
1.310850439882698
1.3079178885630498
1.3040078201368523
1.3010752688172045
1.2981427174975562
1.295210166177908
1.295210166177908
1.2961876832844574
1.2961876832844574
1.2961876832844574
1.2961876832844574
1.2961876832844574
1.2961876832844574
1.2961876832844574
1.2961876832844574
1.2961876832844574
1.2971652003910068
1.2981427174975562
1.3010752688172045
1.3040078201368523
1.3049853372434017
1.3049853372434017
1.303030303030303
1.3010752688172045
