ppg
2.1788856304985336
2.334310850439883
2.484848484848485
2.621700879765396
2.740957966764418
2.8406647116324537
2.921798631476051
2.9872922776148583
3.038123167155425
3.0772238514174
3.10752688172043
3.1300097751710654
3.139784946236559
3.139784946236559
3.136852394916911
3.1280547409579667
3.110459433040078
3.083088954056696
3.0449657869012707
2.9980449657869013
2.941348973607038
2.875855327468231
2.803519061583578
2.7262952101661777
2.6529814271749754
2.58455522971652
2.512218963831867
2.4408602150537635
2.3743890518084068
2.315738025415445
2.2639296187683287
2.218963831867057
2.179863147605083
2.145650048875855
2.114369501466276
2.0840664711632453
2.0557184750733137
2.029325513196481
2.004887585532747
1.978494623655914
1.9501466275659824
1.919843597262952
1.889540566959922
1.8602150537634408
1.8299120234604105
1.7976539589442817
1.7634408602150538
1.7282502443792769
1.6930596285434996
1.66177908113392
1.6344086021505375
1.603128054740958
1.5708699902248289
1.5395894428152492
1.509286412512219
1.479960899315738
1.4516129032258065
1.4242424242424243
1.3978494623655917
1.3714565004887584
1.3479960899315735
1.327468230694037
1.3128054740957966
1.3010752688172045
1.2864125122189638
1.270772238514174
1.2551319648093842
1.2394916911045943
1.224828934506354
1.2101661779081134
1.195503421309873
1.1808406647116323
1.166177908113392
1.1534701857282503
1.1466275659824048
1.141739980449658
1.1358748778103618
1.1300097751710656
1.1221896383186705
1.1094819159335287
1.093841642228739
1.0811339198435972
1.0713587487781036
1.0625610948191593
1.0547409579667644
1.0478983382209188
1.0410557184750733
1.0371456500488758
1.0342130987292275
1.0283479960899315
1.0224828934506354
1.018572825024438
1.0224828934506354
1.040078201368524
1.0791788856304985
1.144672531769306
1.238514173998045
1.3607038123167154
1.5053763440860215
1.643206256109482
1.7781036168132942
1.9305962854349952
2.083088954056696
2.2277614858260018
2.357771260997068
2.4711632453567938
2.5669599217986314
2.64613880742913
2.710654936461388
2.7624633431085046
2.8044965786901277
2.8377321603128056
2.857282502443793
2.868035190615836
2.878787878787879
2.886608015640274
2.8905180840664717
2.8885630498533725
2.8797653958944283
2.86217008797654
2.835777126099707
2.7996089931573804
2.752688172043011
2.6959921798631474
2.638318670576735
2.576735092864125
2.506353861192571
2.43108504398827
2.356793743890518
2.2844574780058653
2.2170087976539588
2.155425219941349
2.101661779081134
2.0547409579667644
2.013685239491691
1.978494623655914
1.948191593352884
1.9237536656891496
1.9012707722385145
1.8778103616813293
1.8543499511241448
1.828934506353861
1.8025415444770283
1.775171065493646
1.747800586510264
1.7194525904203324
1.6911045943304008
1.6608015640273706
1.629521016617791
1.6021505376344083
1.5777126099706744
1.5483870967741935
1.5161290322580645
1.482893450635386
1.4516129032258065
1.4222873900293256
1.392961876832845
1.3655913978494625
1.3401759530791788
1.3157380254154447
1.2932551319648091
1.270772238514174
1.2541544477028348
1.241446725317693
1.227761485826002
1.2121212121212122
1.195503421309873
1.1808406647116323
1.1671554252199414
1.1534701857282503
1.1397849462365592
1.126099706744868
1.1143695014662756
1.1026392961876832
1.096774193548387
1.0948191593352885
1.0909090909090908
1.086021505376344
1.0791788856304985
1.072336265884653
1.064516129032258
1.0547409579667644
1.04594330400782
1.0391006842619743
1.032258064516129
1.0263929618768328
1.0234604105571847
1.0224828934506354
1.0175953079178883
1.0097751710654936
1.0
0.9902248289345064
0.9833822091886608
0.9843597262952102
1.0
1.0361681329423265
1.0977517106549364
1.1886608015640274
1.3079178885630498
1.4291300097751711
1.5571847507331378
1.710654936461388
1.8729227761485825
2.032258064516129
2.1818181818181817
2.315738025415445
2.43108504398827
2.527859237536657
2.6070381231671558
2.6715542521994133
2.7233626588465296
2.7565982404692084
2.7781036168132944
2.80058651026393
2.8211143695014664
2.8367546432062563
2.84652981427175
2.849462365591398
2.8455522971652005
2.832844574780059
2.811339198435973
2.780058651026393
2.739980449657869
2.6911045943304006
2.638318670576735
2.581622678396872
2.5141739980449658
2.439882697947214
2.363636363636364
2.2883675464320627
2.2160312805474094
2.1495601173020527
2.090909090909091
2.0410557184750733
1.9990224828934504
1.963831867057673
1.9364613880742916
1.913978494623656
1.8914956011730208
1.869012707722385
1.8455522971652003
1.8211143695014664
1.7956989247311828
1.7683284457478006
1.7390029325513197
1.7096774193548387
1.6803519061583578
1.651026392961877
1.6217008797653958
1.5972629521016617
1.5747800586510263
1.5483870967741935
1.520039100684262
1.4916911045943304
1.4613880742913
1.4301075268817205
1.3988269794721409
1.3695014662756595
1.3421309872922775
1.316715542521994
1.2932551319648091
1.2756598240469208
1.2619745845552297
1.24633431085044
1.2287390029325511
1.2121212121212122
1.1974584555229717
1.1827956989247312
1.1681329423264908
1.1534701857282503
1.1397849462365592
1.126099706744868
1.1143695014662756
1.1026392961876832
1.0957966764418376
1.0909090909090908
1.083088954056696
1.0742913000977516
1.064516129032258
1.053763440860215
1.0449657869012707
1.0391006842619743
1.0342130987292275
1.0303030303030305
1.0263929618768328
1.0234604105571847
1.0234604105571847
1.0263929618768328
1.0254154447702837
1.021505376344086
1.0156402737047898
1.0087976539589445
1.0019550342130987
0.9980449657869012
1.0039100684261977
1.0254154447702837
1.0694037145650048
1.1397849462365592
1.238514173998045
1.3440860215053765
1.4594330400782014
1.6041055718475072
1.7644183773216031
1.9286412512218964
2.086021505376344
2.23069403714565
2.358748778103617
2.469208211143695
2.5610948191593352
2.636363636363636
2.696969696969697
2.73802541544477
2.766373411534702
2.793743890518084
2.817204301075269
2.8367546432062563
2.852394916911046
2.86217008797654
2.866080156402737
2.86217008797654
2.849462365591398
2.827956989247312
2.795698924731183
2.7517106549364616
2.702834799608993
2.649071358748778
2.5855327468230693
2.5161290322580645
2.443792766373412
2.3704789833822093
2.3010752688172045
2.2346041055718477
2.174975562072336
2.1221896383186705
2.0762463343108504
2.053763440860215
2.046920821114369
2.032258064516129
2.013685239491691
1.9931573802541545
1.970674486803519
1.946236559139785
1.921798631476051
1.895405669599218
1.868035190615836
1.839687194525904
1.8084066471163245
1.7771260997067448
1.7448680351906158
1.7165200391006843
1.6901270772238517
1.6608015640273706
1.6304985337243405
1.5992179863147604
1.56891495601173
1.5386119257087
1.509286412512219
1.4809384164222874
1.452590420332356
1.4242424242424243
1.396871945259042
1.375366568914956
1.356793743890518
1.335288367546432
1.313782991202346
1.2913000977517106
1.270772238514174
1.2531769305962854
1.2355816226783969
1.2179863147605083
1.2023460410557183
1.187683284457478
1.1730205278592376
1.1593352883675463
1.1515151515151516
1.1456500488758554
1.1378299120234605
1.1290322580645162
1.1192570869990224
1.1085043988269794
1.0977517106549364
1.0879765395894427
1.078201368523949
1.0703812316715542
1.0654936461388074
1.06158357771261
1.0606060606060606
1.0606060606060606
1.0576735092864125
1.0518084066471165
1.0449657869012707
1.0371456500488758
1.029325513196481
1.0224828934506354
1.0195503421309873
1.0263929618768328
1.0478983382209188
1.0899315738025417
1.1466275659824048
1.2238514173998043
1.3333333333333333
1.4721407624633431
1.6314760508308896
1.8035190615835777
1.9765395894428155
2.142717497556207
2.2952101661779083
2.43108504398827
2.549364613880743
2.650048875855328
2.7341153470185726
2.792766373411535
2.833822091886608
2.8719452590420333
2.9042033235581624
2.930596285434995
2.951124144672532
2.963831867057673
2.9716520039100685
2.973607038123167
2.9687194525904204
2.9550342130987293
2.9315738025415445
2.900293255131965
2.86217008797654
2.8132942326490715
2.7546432062561097
2.687194525904203
2.6129032258064515
2.535679374389052
2.4565004887585533
2.3792766373411536
2.3059628543499517
2.239491691104594
2.1808406647116323
2.1309872922776147
2.089931573802541
2.056695992179863
2.026392961876833
1.9980449657869013
1.970674486803519
1.946236559139785
1.9227761485826005
1.8983382209188664
1.873900293255132
1.8494623655913975
1.822091886608016
1.793743890518084
1.7683284457478006
1.7438905180840665
1.7145650048875856
1.683284457478006
1.651026392961877
1.6187683284457477
1.5865102639296187
1.555229716520039
1.5249266862170088
1.4946236559139785
1.4633431085043989
1.4349951124144673
1.4076246334310851
1.3861192570869991
1.3685239491691104
1.3470185728250244
1.3255131964809383
1.303030303030303
1.2805474095796676
1.260019550342131
1.241446725317693
1.2258064516129032
1.2101661779081134
1.195503421309873
1.181818181818182
1.1720430107526882
1.164222873900293
1.1544477028347997
1.144672531769306
1.133919843597263
1.1231671554252198
1.1124144672531768
1.1016617790811338
1.0899315738025417
1.0801564027370478
1.072336265884653
1.0664711632453567
1.06158357771261
1.0606060606060606
1.06158357771261
1.0606060606060606
1.0576735092864125
1.0547409579667644
1.0498533724340176
1.0439882697947214
1.0371456500488758
1.0303030303030305
1.0283479960899315
1.035190615835777
1.056695992179863
1.0909090909090908
1.1436950146627567
1.2267839687194526
1.3391984359726294
1.478983382209189
1.6392961876832846
1.8113391984359728
1.9853372434017595
2.1524926686217007
2.3069403714565007
2.444770283479961
2.563049853372434
2.662756598240469
2.7341153470185726
2.78494623655914
2.831867057673509
2.8719452590420333
2.903225806451613
2.9286412512218964
2.948191593352884
2.961876832844575
2.970674486803519
2.973607038123167
2.9696969696969697
2.956989247311828
2.9345063538611926
2.9042033235581624
2.866080156402737
2.8181818181818183
2.760508308895406
2.6940371456500487
2.6207233626588464
2.5434995112414467
2.4652981427174976
2.3900293255131966
2.318670576735093
2.2531769305962857
2.1955034213098727
2.1485826001955037
2.1094819159335287
2.0733137829912023
2.040078201368524
2.010752688172043
1.9853372434017595
1.9608993157380252
1.9374389051808407
1.913978494623656
1.889540566959922
1.865102639296188
1.839687194525904
1.8162267839687196
1.793743890518084
1.7683284457478006
1.739980449657869
1.7116324535679377
1.6813294232649072
1.6500488758553276
1.6187683284457477
1.5884652981427174
1.5581622678396871
1.5298142717497556
1.5034213098729228
1.47702834799609
1.455522971652004
1.435972629521017
1.414467253176931
1.391006842619746
1.3665689149560116
1.343108504398827
1.321603128054741
1.303030303030303
1.284457478005865
1.2688172043010753
1.2551319648093842
1.2434017595307918
1.2365591397849462
1.2326490713587488
1.2267839687194526
1.219941348973607
1.2101661779081134
1.2003910068426198
1.1906158357771262
1.1798631476050832
1.1691104594330402
1.1593352883675463
1.1515151515151516
1.144672531769306
1.13880742913001
1.1358748778103618
1.1358748778103618
1.133919843597263
1.1329423264907137
1.130987292277615
1.126099706744868
1.1192570869990224
1.1124144672531768
1.10752688172043
1.104594330400782
1.10752688172043
1.121212121212121
1.1466275659824048
1.1896383186705768
1.2619745845552297
1.3655913978494625
1.498533724340176
1.656891495601173
1.833822091886608
2.0175953079178885
2.198435972629521
2.367546432062561
2.5190615835777126
2.6510263929618767
2.7614858260019552
2.841642228739003
2.9012707722385143
2.9589442815249267
3.0097751710654936
3.053763440860215
3.089931573802541
3.1192570869990224
3.1417399804496577
3.157380254154448
3.167155425219941
3.16911045943304
3.164222873900293
3.1485826001955037
3.124144672531769
3.093841642228739
3.053763440860215
3.002932551319648
2.941348973607038
2.870967741935484
2.7947214076246336
2.7145650048875853
2.633431085043988
2.5542521994134897
2.479960899315738
2.4164222873900294
2.3626588465298144
2.3118279569892475
2.2658846529814274
2.2248289345063537
2.187683284457478
2.1544477028347995
2.124144672531769
2.0957966764418376
2.067448680351906
2.038123167155425
2.0087976539589443
1.9794721407624636
1.9530791788856303
1.9257086999022484
1.8944281524926687
1.86119257086999
1.8269794721407624
1.7917888563049853
1.7565982404692082
1.721407624633431
1.6871945259042034
1.6529814271749756
1.6187683284457477
1.5865102639296187
1.5591397849462365
1.5347018572825024
1.5073313782991202
1.478005865102639
1.447702834799609
1.418377321603128
1.3870967741935485
1.356793743890518
1.327468230694037
1.2981427174975562
1.2697947214076246
1.2424242424242424
1.2179863147605083
1.2003910068426198
1.1867057673509287
1.1700879765395895
1.152492668621701
1.1348973607038124
1.118279569892473
1.1026392961876832
1.0869990224828934
1.072336265884653
1.0596285434995112
1.0488758553274682
1.040078201368524
1.0371456500488758
1.0381231671554252
1.0381231671554252
1.040078201368524
1.0420332355816226
1.04594330400782
1.0488758553274682
1.050830889540567
1.0518084066471165
1.0518084066471165
1.0518084066471165
1.0518084066471165
1.053763440860215
1.06158357771261
1.0762463343108504
1.1006842619745845
1.141739980449658
1.2072336265884651
1.2991202346041055
1.418377321603128
1.5620723362658846
1.7223851417399805
1.8914956011730208
2.060606060606061
2.220918866080156
2.3499511241446727
2.4565004887585533
2.560117302052786
2.6529814271749754
2.730205278592375
2.793743890518084
2.843597262952102
2.881720430107527
2.909090909090909
2.929618768328446
2.9442815249266863
2.952101661779081
2.952101661779081
2.9423264907135875
2.9237536656891496
2.8993157380254155
2.866080156402737
2.8240469208211145
2.7722385141739982
2.710654936461388
2.643206256109482
2.570869990224829
2.4975562072336266
2.4252199413489737
2.356793743890518
2.2981427174975564
2.2482893450635384
2.201368523949169
2.160312805474096
2.124144672531769
2.0928641251221896
2.065493646138808
2.040078201368524
2.01564027370479
1.989247311827957
1.962854349951124
1.935483870967742
1.906158357771261
1.8797653958944285
1.855327468230694
1.827956989247312
1.7976539589442817
1.7673509286412512
1.7350928641251222
1.7018572825024438
1.6686217008797657
1.6344086021505375
1.6011730205278591
1.56891495601173
1.5376344086021505
1.5131964809384164
1.4916911045943304
1.4672531769305963
1.4428152492668622
1.4193548387096775
1.396871945259042
1.3734115347018572
1.3509286412512218
1.3284457478005864
1.3069403714565004
1.2854349951124144
1.2649071358748778
1.24633431085044
1.2336265884652982
1.2267839687194526
1.2189638318670577
1.2101661779081134
1.2023460410557183
1.1945259042033236
1.1867057673509287
1.1788856304985338
1.1700879765395895
1.1612903225806452
1.1534701857282503
1.1456500488758554
1.141739980449658
1.1397849462365592
1.1358748778103618
1.130987292277615
1.126099706744868
1.1202346041055715
1.1143695014662756
1.1085043988269794
1.1036168132942326
1.0977517106549364
1.0918866080156402
1.086021505376344
1.0821114369501466
1.086021505376344
1.0987292277614855
1.1241446725317692
1.1700879765395895
1.2434017595307918
1.346041055718475
1.478983382209189
1.6344086021505375
1.8054740957966764
1.981427174975562
2.1544477028347995
2.3167155425219943
2.4457478005865103
2.550342130987292
2.6529814271749754
2.745845552297165
2.8260019550342133
2.89345063538612
2.949169110459433
2.995112414467253
3.032258064516129
3.0625610948191597
3.086021505376344
3.102639296187683
3.112414467253177
3.110459433040078
3.1006842619745845
3.0869990224828934
3.065493646138808
3.0332355816226784
2.991202346041056
2.9393939393939394
2.878787878787879
2.809384164222874
2.7331378299120237
2.6529814271749754
2.570869990224829
2.4975562072336266
2.432062561094819
2.367546432062561
2.3059628543499517
2.2502443792766376
2.201368523949169
2.158357771260997
2.121212121212121
2.088954056695992
2.060606060606061
2.034213098729228
2.007820136852395
1.9608993157380252
1.9042033235581624
1.8631476050830889
1.827956989247312
1.7956989247311828
1.7663734115347018
1.7360703812316716
1.704789833822092
1.6735092864125125
1.6412512218963833
1.608993157380254
1.576735092864125
1.5454545454545454
1.5190615835777126
1.4965786901270772
1.4721407624633431
1.4457478005865103
1.4203323558162269
1.3958944281524928
1.3724340175953078
1.3499511241446724
1.327468230694037
1.305962854349951
1.2854349951124144
1.2658846529814272
1.2502443792766371
1.238514173998045
1.224828934506354
1.2101661779081134
1.195503421309873
1.181818181818182
1.1691104594330402
1.1564027370478984
1.142717497556207
1.130987292277615
1.1202346041055715
1.110459433040078
1.1016617790811338
1.0987292277614855
1.096774193548387
1.0928641251221896
1.0879765395894427
1.083088954056696
1.078201368523949
1.072336265884653
1.067448680351906
1.06158357771261
1.056695992179863
1.050830889540567
1.0439882697947214
1.0391006842619743
1.0361681329423265
1.0332355816226784
1.035190615835777
1.050830889540567
1.0850439882697946
1.1456500488758554
1.2346041055718475
1.3519061583577712
1.4946236559139785
1.6559139784946235
1.8269794721407624
1.9980449657869013
2.1417399804496577
2.2639296187683287
2.389051808406647
2.5034213098729228
2.603128054740958
2.686217008797654
2.7536656891495603
2.807429130009776
2.849462365591398
2.8797653958944283
2.9012707722385143
2.916911045943304
2.920821114369501
2.916911045943304
2.9100684261974585
2.897360703812317
2.87683284457478
2.8475073313782997
2.809384164222874
2.760508308895406
2.701857282502444
2.636363636363636
2.5640273704789838
2.4858260019550342
2.404692082111437
2.3313782991202348
2.264907135874878
2.1955034213098727
2.129032258064516
2.0684261974584555
2.0146627565982405
1.9667644183773216
1.9257086999022484
1.889540566959922
1.858260019550342
1.83088954056696
1.804496578690127
1.7810361681329423
1.7605083088954057
1.737047898338221
1.7126099706744868
1.6881720430107527
1.6627565982404693
1.635386119257087
1.606060606060606
1.5747800586510263
1.544477028347996
1.5131964809384164
1.4819159335288368
1.4506353861192571
1.4242424242424243
1.3998044965786902
1.3724340175953078
1.3440860215053765
1.316715542521994
1.2903225806451613
1.2649071358748778
1.241446725317693
1.2179863147605083
1.1964809384164223
1.1759530791788857
1.1564027370478984
1.142717497556207
1.1319648093841643
1.1202346041055715
1.1085043988269794
1.096774193548387
1.086021505376344
1.075268817204301
1.064516129032258
1.053763440860215
1.043010752688172
1.0332355816226784
1.024437927663734
1.0175953079178883
1.0156402737047898
1.0156402737047898
1.013685239491691
1.0097751710654936
1.0058651026392962
1.0009775171065494
0.9960899315738024
0.9912023460410556
0.9853372434017597
0.9794721407624634
0.9736070381231672
0.9667644183773216
0.9638318670576737
0.9638318670576737
0.9608993157380256
2.179863147605083
2.1251221896383186
2.080156402737048
2.0439882697947214
2.0097751710654936
1.978494623655914
1.9521016617790807
1.927663734115347
1.9042033235581624
1.881720430107527
1.8592375366568916
1.836754643206256
1.81524926686217
1.7927663734115349
1.76930596285435
1.7487781036168133
1.7282502443792769
1.704789833822092
1.6793743890518085
1.651026392961877
1.6217008797653958
1.5923753665689149
1.564027370478983
1.5356793743890518
1.509286412512219
1.482893450635386
1.457478005865103
1.435972629521017
1.418377321603128
1.3988269794721409
1.3773216031280548
1.356793743890518
1.3372434017595307
1.3206256109481915
1.3049853372434017
1.289345063538612
1.2746823069403714
1.260019550342131
1.2453567937438903
1.2316715542521994
1.2218963831867058
1.2150537634408602
1.2052785923753666
1.195503421309873
1.187683284457478
1.1798631476050832
1.1710654936461389
1.1612903225806452
1.1515151515151516
1.142717497556207
1.1348973607038124
1.1270772238514175
1.1231671554252198
1.121212121212121
1.1163245356793745
1.1114369501466277
1.1065493646138806
1.1026392961876832
1.099706744868035
1.0957966764418376
1.0918866080156402
1.0879765395894427
1.083088954056696
1.0801564027370478
1.0821114369501466
1.0918866080156402
1.1124144672531768
1.1495601173020529
1.209188660801564
1.2942326490713587
1.4037145650048877
1.5347018572825024
1.704789833822092
1.8983382209188664
2.080156402737048
2.247311827956989
2.396871945259042
2.5131964809384164
2.6050830889540566
2.6940371456500487
2.773216031280548
2.841642228739003
2.898338220918866
2.9442815249266863
2.9804496578690127
3.007820136852395
3.027370478983382
3.040078201368524
3.04594330400782
3.0449657869012707
3.0332355816226784
3.0127077223851417
2.986314760508309
2.951124144672532
2.906158357771261
2.849462365591398
2.7839687194525906
2.7116324535679373
2.633431085043988
2.5542521994134897
2.4750733137829912
2.39980449657869
2.335288367546432
2.2795698924731185
2.225806451612903
2.176930596285435
2.132942326490713
2.0957966764418376
2.0635386119257086
2.0361681329423265
2.010752688172043
1.9872922776148585
1.963831867057673
1.9393939393939397
1.9159335288367547
1.895405669599218
1.8758553274682308
1.8514173998044965
1.8240469208211143
1.7956989247311828
1.7644183773216031
1.732160312805474
1.699902248289345
1.667644183773216
1.635386119257087
1.6041055718475072
1.5747800586510263
1.5503421309872922
1.5298142717497556
1.5053763440860215
1.479960899315738
1.4545454545454546
1.4301075268817205
1.4066471163245358
1.3861192570869991
1.367546432062561
1.3499511241446724
1.332355816226784
1.3157380254154447
1.300097751710655
1.2903225806451613
1.284457478005865
1.2766373411534702
1.2668621700879763
1.2570869990224829
1.2482893450635386
1.2394916911045943
1.23069403714565
1.2228739002932552
1.2140762463343109
1.2052785923753666
1.1964809384164223
1.1906158357771262
1.1867057673509287
1.1788856304985338
1.1700879765395895
1.1593352883675463
1.1485826001955035
1.1348973607038124
1.121212121212121
1.1065493646138806
1.0899315738025417
1.072336265884653
1.053763440860215
1.040078201368524
1.032258064516129
1.0273704789833822
1.0312805474095796
1.0527859237536656
1.099706744868035
1.1759530791788857
1.2825024437927663
1.4173998044965788
1.576735092864125
1.7526881720430108
1.935483870967742
2.118279569892473
2.269794721407625
2.398826979472141
2.5288367546432062
2.649071358748778
2.755620723362659
2.8455522971652005
2.919843597262952
2.9824046920821115
3.034213098729228
3.078201368523949
3.115347018572825
3.144672531769306
3.1593352883675463
3.1652003910068425
3.16911045943304
3.16911045943304
3.1622678396871944
3.145650048875855
3.118279569892473
3.0791788856304985
3.029325513196481
2.9696969696969697
2.902248289345064
2.8299120234604107
2.755620723362659
2.687194525904203
2.622678396871945
2.5562072336265884
2.493646138807429
2.436950146627566
2.3870967741935485
2.345063538611926
2.3098729227761488
2.280547409579668
2.2531769305962857
2.228739002932551
2.2052785923753664
2.1818181818181817
2.1593352883675463
2.134897360703812
2.10850439882698
2.080156402737048
2.0518084066471163
2.021505376344086
1.988269794721408
1.9530791788856303
1.9159335288367547
1.8778103616813293
1.8406647116324533
1.8035190615835777
1.772238514173998
1.7438905180840665
1.7135874877810362
1.6823069403714566
1.6500488758553276
1.6187683284457477
1.587487781036168
1.5581622678396871
1.5298142717497556
1.501466275659824
1.474095796676442
1.447702834799609
1.4271749755620724
1.409579667644184
1.391006842619746
1.3734115347018572
1.356793743890518
1.3411534701857282
1.3264907135874875
1.3118279569892473
1.2981427174975562
1.284457478005865
1.2697947214076246
