ppg
1.9188660801564028
2.069403714565005
2.2140762463343107
2.346041055718475
2.464320625610948
2.567937438905181
2.653958944281525
2.721407624633431
2.766373411534702
2.7947214076246336
2.8181818181818183
2.832844574780059
2.8367546432062563
2.832844574780059
2.822091886608016
2.8044965786901277
2.780058651026393
2.748778103616813
2.713587487781036
2.6715542521994133
2.6207233626588464
2.5698924731182795
2.5161290322580645
2.453567937438905
2.3870967741935485
2.3196480938416424
2.254154447702835
2.1915933528836757
2.134897360703812
2.0821114369501466
2.0303030303030303
1.9833822091886608
1.9423264907135875
1.9100684261974583
1.881720430107527
1.8533724340175952
1.827956989247312
1.8064516129032255
1.7849462365591398
1.7653958944281525
1.7458455522971652
1.7233626588465298
1.6989247311827955
1.6695992179863148
1.6363636363636365
1.603128054740958
1.5757575757575757
1.5513196480938416
1.5239491691104594
1.4946236559139785
1.4643206256109482
1.4330400782013686
1.3988269794721409
1.3655913978494625
1.3343108504398826
1.300097751710655
1.267839687194526
1.2375366568914956
1.2150537634408602
1.1974584555229717
1.1759530791788857
1.152492668621701
1.1300097751710656
1.1094819159335287
1.0899315738025417
1.0713587487781036
1.0527859237536656
1.0342130987292275
1.0175953079178883
1.002932551319648
0.989247311827957
0.9824046920821116
0.9824046920821116
0.9804496578690128
0.9765395894428152
0.9716520039100685
0.9657869012707724
0.9618768328445748
0.956989247311828
0.9511241446725318
0.9481915933528836
0.9472140762463344
0.9433040078201368
0.9413489736070382
0.9403714565004888
0.9335288367546432
0.9257086999022482
0.9188660801564028
0.913978494623656
0.9110459433040078
0.906158357771261
0.9012707722385142
0.8983382209188661
0.895405669599218
0.8924731182795699
0.8914956011730205
0.895405669599218
0.906158357771261
0.9237536656891496
0.9530791788856304
0.9980449657869012
1.0635386119257086
1.147605083088954
1.24633431085044
1.3636363636363635
1.4975562072336266
1.6412512218963833
1.7888563049853372
1.9159335288367547
2.0303030303030303
2.1524926686217007
2.271749755620724
2.3812316715542523
2.4760508308895406
2.555229716520039
2.618768328445748
2.6637341153470184
2.6930596285435
2.70772238514174
2.7096774193548385
2.702834799608993
2.689149560117302
2.668621700879765
2.641251221896383
2.6070381231671558
2.56891495601173
2.5249266862170088
2.474095796676442
2.4164222873900294
2.3528836754643208
2.2873900293255134
2.222873900293255
2.1593352883675463
2.103616813294233
2.0518084066471163
2.0019550342130987
1.9579667644183771
1.920821114369501
1.8885630498533723
1.86119257086999
1.8387096774193548
1.8211143695014664
1.8064516129032255
1.7898338220918866
1.7732160312805474
1.7605083088954057
1.7497556207233629
1.7360703812316716
1.7204301075268815
1.7038123167155426
1.6842619745845553
1.66177908113392
1.6383186705767352
1.6148582600195502
1.5923753665689149
1.5718475073313782
1.5513196480938416
1.5298142717497556
1.5112414467253177
1.4926686217008798
1.4731182795698925
1.4535679374389052
1.4349951124144673
1.4164222873900294
1.3998044965786902
1.3870967741935485
1.3792766373411536
1.375366568914956
1.3734115347018572
1.3724340175953078
1.3734115347018572
1.3763440860215057
1.3812316715542523
1.3861192570869991
1.3919843597262953
1.3978494623655917
1.4037145650048877
1.4105571847507332
1.4164222873900294
1.4242424242424243
1.4330400782013686
1.4428152492668622
1.4545454545454546
1.4633431085043989
1.4711632453567938
1.478005865102639
1.4838709677419355
1.490713587487781
1.495601173020528
1.4965786901270772
1.4936461388074291
1.4887585532746823
1.4848484848484849
1.4819159335288368
1.47702834799609
1.4731182795698925
1.469208211143695
1.4613880742913
1.447702834799609
1.434017595307918
1.4203323558162269
1.409579667644184
1.4037145650048877
1.4056695992179864
1.418377321603128
1.4467253176930597
1.4916911045943304
1.552297165200391
1.6148582600195502
1.683284457478006
1.7712609970674489
1.8748778103616808
1.9872922776148585
2.101661779081134
2.2160312805474094
2.3255131964809386
2.423264907135875
2.506353861192571
2.573802541544477
2.624633431085044
2.654936461388074
2.668621700879765
2.6715542521994133
2.6637341153470184
2.643206256109482
2.611925708699902
2.572825024437928
2.5288367546432062
2.4789833822091887
2.423264907135875
2.3626588465298144
2.2991202346041058
2.232649071358749
2.172043010752688
2.146627565982405
2.132942326490713
2.0948191593352883
2.04594330400782
1.9931573802541545
1.9413489736070384
1.895405669599218
1.8533724340175952
1.8162267839687196
1.7849462365591398
1.7575757575757576
1.7341153470185728
1.7145650048875856
1.6959921798631477
1.6764418377321604
1.6578690127077225
2.4389051808406648
2.4056695992179864
2.367546432062561
2.3255131964809386
2.2825024437927666
2.236559139784946
2.188660801564027
2.1436950146627565
2.101661779081134
2.058651026392962
2.018572825024438
1.9794721407624636
1.9423264907135875
1.9071358748778104
1.884652981427175
1.8699902248289344
1.8523949169110456
1.8347996089931573
1.8211143695014664
1.8103616813294232
1.8005865102639296
1.790811339198436
1.780058651026393
1.76930596285435
1.7575757575757576
1.7419354838709675
1.7253176930596286
1.7096774193548387
1.6911045943304008
1.6705767350928642
1.6500488758553276
1.6285434995112416
1.6109481915933528
1.5943304007820136
1.573802541544477
1.552297165200391
1.5317693059628543
1.5131964809384164
1.4975562072336266
1.4838709677419355
1.4711632453567938
1.456500488758553
1.4418377321603129
1.4291300097751711
1.4203323558162269
1.4134897360703813
1.404692082111437
1.3949169110459434
1.3861192570869991
1.3792766373411536
1.3734115347018572
1.367546432062561
1.3616813294232648
1.3558162267839686
1.3509286412512218
1.3479960899315735
1.3509286412512218
1.3558162267839686
1.3626588465298142
1.3743890518084063
1.3949169110459434
1.4271749755620724
1.4731182795698925
1.533724340175953
1.6099706744868034
1.7028347996089932
1.8103616813294232
1.9257086999022484
2.0439882697947214
2.146627565982405
2.236559139784946
2.335288367546432
2.434017595307918
2.5249266862170088
2.603128054740958
2.667644183773216
2.717497556207233
2.7536656891495603
2.777126099706745
2.788856304985337
2.789833822091887
2.7810361681329425
2.7653958944281527
2.744868035190616
2.721407624633431
2.6940371456500487
2.659824046920821
2.619745845552297
2.5777126099706744
2.5317693059628543
2.482893450635386
2.4330400782013686
2.3822091886608017
2.3284457478005867
2.27761485826002
2.232649071358749
2.188660801564027
2.144672531769306
2.102639296187683
2.065493646138808
2.034213098729228
2.004887585532747
1.9794721407624636
1.9560117302052784
1.9335288367546437
1.9120234604105573
1.8934506353861196
1.878787878787879
1.8621700879765395
1.842619745845552
1.822091886608016
1.7996089931573802
1.775171065493646
1.7487781036168133
1.7223851417399805
1.696969696969697
1.6705767350928642
1.64613880742913
1.6217008797653958
1.6001955034213098
1.5796676441837731
1.5571847507331378
1.5356793743890518
1.5131964809384164
1.4897360703812317
1.4672531769305963
1.444770283479961
1.4242424242424243
1.4076246334310851
1.392961876832845
1.380254154447703
1.3734115347018572
1.370478983382209
1.3655913978494625
1.3577712609970674
1.348973607038123
1.3421309872922775
1.3343108504398826
1.324535679374389
1.3147605083088951
1.3049853372434017
1.2961876832844574
1.2873900293255132
1.2776148582600195
1.2717497556207231
1.2688172043010753
1.2639296187683284
1.2580645161290325
1.249266862170088
1.241446725317693
1.2346041055718475
1.2287390029325511
1.2238514173998043
1.219941348973607
1.2160312805474096
1.2121212121212122
1.2121212121212122
1.2121212121212122
1.2082111436950147
1.203323558162268
1.2013685239491692
1.2003910068426198
1.1994134897360704
1.1994134897360704
1.1964809384164223
1.1906158357771262
1.18475073313783
1.1798631476050832
1.173998044965787
1.1730205278592376
1.1749755620723363
1.1759530791788857
1.176930596285435
1.176930596285435
1.1798631476050832
1.187683284457478
1.2013685239491692
1.2238514173998043
1.2619745845552297
1.316715542521994
1.391006842619746
1.4701857282502444
1.5562072336265884
1.6656891495601174
1.7917888563049853
1.927663734115347
2.069403714565005
2.210166177908113
2.3440860215053765
2.4701857282502444
2.5835777126099706
2.681329423264907
2.760508308895406
2.823069403714565
2.86217008797654
2.8856304985337244
2.905180840664712
2.918866080156403
2.9257086999022484
2.9257086999022484
2.918866080156403
2.905180840664712
2.884652981427175
2.859237536656892
2.827956989247312
2.787878787878788
2.745845552297165
2.7008797653958942
2.649071358748778
2.5943304007820136
2.5376344086021505
2.47702834799609
2.419354838709677
2.3655913978494625
2.314760508308896
2.2668621700879767
2.2238514173998043
2.1867057673509285
2.1524926686217007
2.12316715542522
2.0987292277614857
2.0762463343108504
2.0557184750733137
2.037145650048876
2.0195503421309877
2.002932551319648
1.9843597262952104
1.9608993157380252
1.9364613880742916
1.911045943304008
1.8856304985337244
1.8641251221896384
1.8406647116324533
1.8132942326490715
1.782991202346041
1.7526881720430108
1.7223851417399805
1.694037145650049
1.6666666666666667
1.6392961876832846
1.6129032258064515
1.5865102639296187
1.5591397849462365
1.5327468230694037
1.5102639296187683
1.490713587487781
1.4672531769305963
1.4428152492668622
1.418377321603128
1.393939393939394
1.3724340175953078
1.35386119257087
1.3362658846529814
1.3196480938416422
1.303030303030303
1.2883675464320623
1.278592375366569
1.2688172043010753
1.2570869990224829
1.24633431085044
1.2355816226783969
1.224828934506354
1.217008797653959
1.2130987292277615
1.2111436950146628
1.2101661779081134
1.209188660801564
1.209188660801564
1.2072336265884651
1.2052785923753666
1.1925708699902249
1.1730205278592376
1.1593352883675463
1.147605083088954
1.1378299120234605
1.1300097751710656
1.1221896383186705
1.1143695014662756
1.1065493646138806
1.0987292277614855
1.0909090909090908
1.0869990224828934
1.0850439882697946
1.0811339198435972
1.0791788856304985
1.078201368523949
1.0791788856304985
1.0850439882697946
1.0987292277614855
1.1221896383186705
1.1583577712609971
1.2082111436950147
1.2727272727272727
1.3391984359726294
1.412512218963832
1.5053763440860215
1.6138807429130009
1.7331378299120237
1.857282502443793
1.981427174975562
2.102639296187683
2.217986314760508
2.32355816226784
2.4144672531769307
2.4887585532746823
2.548387096774193
2.587487781036168
2.6129032258064515
2.631476050830889
2.6422287390029324
2.6451612903225805
2.6402737047898337
2.6285434995112413
2.610948191593353
2.5865102639296187
2.552297165200391
2.5131964809384164
2.469208211143695
2.4252199413489737
2.3792766373411536
2.3274682306940373
2.271749755620724
2.2170087976539588
2.1652003910068425
2.118279569892473
2.075268817204301
2.037145650048876
2.004887585532747
1.978494623655914
1.9579667644183771
1.9393939393939397
1.9237536656891496
1.9090909090909087
1.8944281524926687
1.8807429130009776
1.869012707722385
1.8592375366568916
1.847507331378299
1.8347996089931573
1.823069403714565
1.812316715542522
1.8005865102639296
1.7849462365591398
1.76930596285435
1.75366568914956
1.7350928641251222
1.715542521994135
1.6950146627565983
1.6774193548387095
1.6627565982404693
1.6520039100684265
1.6422287390029326
1.632453567937439
1.6236559139784943
1.6138807429130009
1.6041055718475072
1.5962854349951123
1.5884652981427174
1.5786901270772238
1.5698924731182795
1.563049853372434
1.5571847507331378
1.5513196480938416
1.547409579667644
1.5464320625610948
1.5513196480938416
1.5620723362658846
1.5747800586510263
1.5884652981427174
1.6001955034213098
1.6099706744868034
1.6148582600195502
1.6148582600195502
1.611925708699902
1.608993157380254
1.608993157380254
1.611925708699902
1.6158357771260996
1.6207233626588464
1.6256109481915937
1.6304985337243405
1.6344086021505375
1.635386119257087
1.6314760508308896
1.6226783968719452
1.608993157380254
1.5933528836754642
1.5777126099706744
1.5620723362658846
1.547409579667644
1.5356793743890518
1.5298142717497556
1.5327468230694037
1.541544477028348
1.5571847507331378
1.581622678396872
1.632453567937439
1.6852394916911049
1.7311827956989247
1.796676441837732
1.87683284457478
1.9687194525904204
2.069403714565005
2.1739980449657867
2.278592375366569
2.380254154447703
2.4594330400782014
2.5249266862170088
2.589442815249267
2.644183773216031
2.684261974584555
2.7096774193548385
2.721407624633431
2.719452590420332
2.705767350928641
2.6852394916911044
2.6578690127077222
2.6236559139784945
2.587487781036168
2.5464320625610948
2.498533724340176
2.443792766373412
2.383186705767351
2.318670576735093
2.2521994134897363
2.185728250244379
2.120234604105572
2.0576735092864125
2.0
1.9472140762463344
1.8993157380254155
1.8621700879765395
1.8318670576735088
1.801564027370479
1.7732160312805474
1.747800586510264
1.7243401759530792
1.7018572825024438
1.6813294232649072
1.6637341153470186
1.640273704789834
1.6187683284457477
1.6011730205278591
1.5826001955034212
1.564027370478983
1.541544477028348
1.5180840664711632
1.4965786901270772
1.4750733137829912
1.4535679374389052
1.4320625610948192
1.4105571847507332
1.3900293255131966
1.3685239491691104
1.348973607038123
1.3313782991202343
1.3186705767350928
1.3040078201368523
1.2883675464320623
1.2766373411534702
1.2658846529814272
1.2551319648093842
1.2443792766373412
1.2336265884652982
1.2228739002932552
1.2150537634408602
1.206256109481916
1.1964809384164223
1.1915933528836755
1.1886608015640274
1.18475073313783
1.1798631476050832
1.1759530791788857
1.1730205278592376
1.1700879765395895
1.1691104594330402
1.1681329423264908
1.1681329423264908
1.1681329423264908
1.1681329423264908
1.1681329423264908
1.1681329423264908
1.1681329423264908
1.1652003910068427
1.1612903225806452
1.1593352883675463
1.1583577712609971
1.160312805474096
1.1652003910068427
1.1691104594330402
1.1691104594330402
1.1681329423264908
1.1700879765395895
1.1749755620723363
1.1808406647116323
1.1886608015640274
1.1964809384164223
1.2189638318670577
1.262952101661779
1.3196480938416422
1.3900293255131966
1.47702834799609
1.5796676441837731
1.694037145650049
1.801564027370479
1.9090909090909087
2.034213098729228
2.164222873900293
2.291300097751711
2.4144672531769307
2.5288367546432062
2.63049853372434
2.718475073313783
2.790811339198436
2.84652981427175
2.887585532746823
2.9159335288367547
2.9286412512218964
2.9315738025415445
2.9315738025415445
2.9266862170087977
2.9149560117302054
2.8963831867057674
2.8719452590420333
2.841642228739003
2.8054740957966766
2.7614858260019552
2.7145650048875853
2.6637341153470184
2.6129032258064515
2.5620723362658846
2.506353861192571
2.44672531769306
2.388074291300098
2.333333333333333
2.281524926686217
2.232649071358749
2.187683284457478
2.150537634408602
2.120234604105572
2.0948191593352883
2.071358748778104
2.050830889540567
2.03128054740958
2.010752688172043
1.991202346041056
1.9736070381231672
1.9560117302052784
1.93841642228739
1.9178885630498532
1.8944281524926687
1.868035190615836
1.839687194525904
1.812316715542522
1.7898338220918866
1.7673509286412512
1.7429130009775171
1.7174975562072337
1.6920821114369502
1.6695992179863148
1.651026392961877
1.6344086021505375
1.6177908113391983
1.6001955034213098
1.5806451612903225
1.5620723362658846
1.544477028347996
1.5288367546432062
1.5131964809384164
1.4975562072336266
1.4819159335288368
1.4633431085043989
1.4437927663734116
1.423264907135875
1.401759530791789
1.380254154447703
1.359726295210166
1.3401759530791788
1.324535679374389
1.316715542521994
1.3128054740957966
1.310850439882698
1.3118279569892473
1.310850439882698
1.3069403714565004
1.303030303030303
1.295210166177908
1.2834799608993157
1.2697947214076246
1.2551319648093842
1.2394916911045943
1.2238514173998043
1.2121212121212122
1.2023460410557183
1.1896383186705768
1.1749755620723363
1.1612903225806452
1.1485826001955035
1.1378299120234605
1.1270772238514175
1.1192570869990224
1.1173020527859236
1.126099706744868
1.1466275659824048
1.1749755620723363
1.2140762463343109
1.270772238514174
1.346041055718475
1.4379276637341154
1.543499511241447
1.656891495601173
1.7771260997067448
1.903225806451613
2.032258064516129
2.1593352883675463
2.2795698924731185
2.3919843597262958
2.479960899315738
2.548387096774193
2.6148582600195502
2.6725317693059627
2.716520039100684
2.7497556207233624
2.7702834799608995
2.779081133919844
2.779081133919844
2.7722385141739982
2.7614858260019552
2.7468230694037143
2.727272727272727
2.705767350928641
2.681329423264907
2.653958944281525
2.621700879765396
2.581622678396872
2.533724340175953
2.4789833822091887
2.419354838709677
2.3597262952101663
2.300097751710655
2.241446725317693
2.185728250244379
2.1388074291300097
2.0987292277614857
2.0576735092864125
2.016617790811339
1.9804496578690127
1.949169110459433
1.919843597262952
1.89247311827957
1.8670576735092863
1.8435972629521016
1.822091886608016
1.8054740957966764
1.7917888563049853
1.7771260997067448
1.758553274682307
1.737047898338221
1.7126099706744868
1.6852394916911049
1.6588465298142718
1.629521016617791
1.5992179863147604
1.5708699902248289
1.543499511241447
1.5180840664711632
1.4946236559139785
1.4760508308895406
1.4604105571847508
1.4418377321603129
1.4222873900293256
1.401759530791789
1.3822091886608017
1.364613880742913
1.3479960899315735
1.3343108504398826
1.321603128054741
1.3088954056695992
1.2961876832844574
1.2854349951124144
1.2776148582600195
1.2668621700879763
1.2551319648093842
1.2434017595307918
1.2326490713587488
1.2209188660801564
1.2072336265884651
1.1915933528836755
1.1759530791788857
1.1612903225806452
1.1485826001955035
1.1378299120234605
1.130987292277615
1.126099706744868
1.118279569892473
1.1085043988269794
1.0987292277614855
1.088954056695992
1.0801564027370478
1.0713587487781036
1.064516129032258
1.0586510263929618
1.0527859237536656
1.0469208211143697
1.0439882697947214
1.04594330400782
1.0469208211143697
1.0469208211143697
1.0469208211143697
1.0498533724340176
1.0606060606060606
1.083088954056696
1.118279569892473
1.1671554252199414
1.2326490713587488
1.3128054740957966
1.4545454545454546
1.5493646138807429
1.6549364613880744
1.8347996089931573
1.9589442815249267
2.0791788856304985
2.190615835777126
2.290322580645161
2.375366568914956
2.444770283479961
2.498533724340176
2.550342130987292
2.567937438905181
2.576735092864125
2.578690127077224
2.570869990224829
2.5542521994134897
2.530791788856305
2.5004887585532747
2.4652981427174976
2.423264907135875
2.376344086021505
2.324535679374389
2.274682306940372
2.225806451612903
2.1739980449657867
2.0948191593352883
2.0439882697947214
1.9980449657869013
1.9364613880742916
1.900293255131965
1.870967741935484
1.8465298142717497
1.827956989247312
1.8132942326490715
1.801564027370479
1.7917888563049853
1.7820136852394917
1.7712609970674489
1.761485826001955
1.7497556207233629
1.737047898338221
1.7223851417399805
1.704789833822092
1.6852394916911049
1.6578690127077225
1.6422287390029326
1.6256109481915937
1.5992179863147604
1.581622678396872
1.5650048875855327
1.5483870967741935
1.5317693059628543
1.5131964809384164
1.4936461388074291
1.4760508308895406
1.457478005865103
1.439882697947214
1.426197458455523
1.4164222873900294
1.409579667644184
1.4037145650048877
1.3998044965786902
1.393939393939394
1.388074291300098
1.383186705767351
1.3773216031280548
1.3734115347018572
1.3714565004887584
1.370478983382209
1.3695014662756595
1.370478983382209
1.3743890518084063
1.3792766373411536
1.3851417399804498
1.3919843597262953
1.401759530791789
1.412512218963832
1.4252199413489737
1.439882697947214
1.452590420332356
1.4652981427174976
1.478005865102639
1.4897360703812317
1.500488758553275
1.509286412512219
1.5161290322580645
1.52297165200391
1.5317693059628543
1.542521994134897
1.5513196480938416
1.560117302052786
1.5718475073313782
1.5865102639296187
1.6050830889540566
1.629521016617791
1.656891495601173
1.6881720430107527
1.732160312805474
1.790811339198436
1.8631476050830889
1.9501466275659824
2.048875855327468
2.1593352883675463
2.274682306940372
2.391006842619746
2.504398826979472
2.610948191593353
2.704789833822092
2.771260997067449
2.8181818181818183
2.859237536656892
2.8905180840664717
2.90811339198436
2.911045943304008
2.900293255131965
2.877810361681329
2.8475073313782997
2.8084066471163247
2.7595307917888565
2.704789833822092
2.652003910068426
2.598240469208211
2.5386119257087
2.4731182795698925
2.4027370478983383
2.3304007820136854
2.259042033235582
2.190615835777126
2.126099706744868
2.067448680351906
2.01564027370479
1.9687194525904204
1.9266862170087975
1.895405669599218
1.870967741935484
1.8465298142717497
1.822091886608016
1.7976539589442817
1.775171065493646
1.7526881720430108
1.7302052785923754
1.7067448680351909
1.6813294232649072
1.653958944281525
1.624633431085044
1.598240469208211
1.5698924731182795
1.5386119257087
1.5083088954056696
1.4760508308895406
1.444770283479961
1.412512218963832
1.3782991202346042
1.3450635386119256
1.3128054740957966
1.2834799608993157
1.2570869990224829
1.2326490713587488
1.2160312805474096
1.203323558162268
1.187683284457478
1.1710654936461389
1.155425219941349
1.141739980449658
1.1280547409579669
1.115347018572825
1.1036168132942326
1.0909090909090908
1.0801564027370478
1.0733137829912025
1.0733137829912025
1.0762463343108504
1.0772238514173995
1.078201368523949
1.078201368523949
1.078201368523949
1.078201368523949
1.078201368523949
1.078201368523949
1.078201368523949
1.078201368523949
1.078201368523949
1.078201368523949
1.0811339198435972
1.086021505376344
1.088954056695992
1.0899315738025417
1.0909090909090908
1.0909090909090908
1.0909090909090908
1.0909090909090908
1.0909090909090908
1.0909090909090908
1.0909090909090908
1.0909090909090908
1.093841642228739
1.1016617790811338
1.1133919843597262
1.130987292277615
1.1593352883675463
1.2043010752688172
1.2668621700879763
1.3479960899315735
1.4496578690127078
1.5679374389051808
1.7008797653958945
1.847507331378299
2.003910068426197
2.142717497556207
2.2668621700879767
2.39980449657869
2.530791788856305
2.6510263929618767
2.7565982404692084
2.8475073313782997
2.919843597262952
2.973607038123167
3.0127077223851417
3.0391006842619745
3.053763440860215
3.0547409579667644
3.0449657869012707
3.0303030303030303
3.0127077223851417
2.992179863147605
2.9667644183773216
2.9345063538611926
2.895405669599218
2.8514173998044967
2.803519061583578
2.7497556207233624
2.689149560117302
2.631476050830889
2.575757575757576
2.5180840664711632
2.4613880742913
2.406647116324536
2.3519061583577714
2.2981427174975564
2.2502443792766376
2.2082111436950145
2.16911045943304
2.1309872922776147
2.0977517106549364
2.070381231671554
2.048875855327468
2.029325513196481
2.005865102639296
1.978494623655914
1.9501466275659824
1.921798631476051
1.8963831867057677
1.8699902248289344
1.842619745845552
1.8142717497556209
1.782991202346041
1.750733137829912
1.7233626588465298
1.6989247311827955
1.6715542521994136
1.6412512218963833
1.608993157380254
1.5777126099706744
1.5493646138807429
1.52297165200391
1.4975562072336266
1.4721407624633431
1.447702834799609
1.423264907135875
1.3988269794721409
1.3792766373411536
1.3655913978494625
1.348973607038123
1.3333333333333333
1.3196480938416422
1.3049853372434017
1.2913000977517106
1.2805474095796676
1.2717497556207231
1.2649071358748778
1.2580645161290325
1.2512218963831867
1.2482893450635386
