ppg
2.898338220918866
2.874877810361681
2.841642228739003
2.798631476050831
2.745845552297165
2.684261974584555
2.613880742913001
2.5376344086021505
2.4565004887585533
2.3734115347018574
2.2981427174975564
2.228739002932551
2.157380254154448
2.0879765395894427
2.024437927663734
1.967741935483871
1.9178885630498532
1.8748778103616808
1.8377321603128052
1.804496578690127
1.775171065493646
1.747800586510264
1.7243401759530792
1.7028347996089932
1.6793743890518085
1.6549364613880744
1.6285434995112416
1.6011730205278591
1.5728250244379276
1.544477028347996
1.5151515151515151
1.4848484848484849
1.4545454545454546
1.4242424242424243
1.393939393939394
1.3685239491691104
1.3470185728250244
1.3225806451612905
1.2981427174975562
1.2727272727272727
1.2482893450635386
1.2258064516129032
1.2043010752688172
1.18475073313783
1.166177908113392
1.1495601173020529
1.133919843597263
1.1231671554252198
1.115347018572825
1.1055718475073313
1.0957966764418376
1.0869990224828934
1.0791788856304985
1.072336265884653
1.0654936461388074
1.0596285434995112
1.053763440860215
1.0488758553274682
1.0439882697947214
1.0410557184750733
1.0410557184750733
1.0439882697947214
1.0449657869012707
1.0449657869012707
1.0449657869012707
1.0449657869012707
1.0449657869012707
1.0449657869012707
1.0439882697947214
1.0420332355816226
1.040078201368524
1.0361681329423265
1.035190615835777
1.0361681329423265
1.0371456500488758
1.043010752688172
1.0606060606060606
1.0948191593352885
1.152492668621701
1.238514173998045
1.3509286412512218
1.4868035190615836
1.6422287390029326
1.8084066471163245
1.9775171065493649
2.120234604105572
2.244379276637341
2.3704789833822093
2.487781036168133
2.590420332355816
2.67644183773216
2.745845552297165
2.80058651026393
2.8426197458455524
2.873900293255132
2.895405669599218
2.90811339198436
2.9071358748778104
2.897360703812317
2.881720430107527
2.859237536656892
2.8269794721407626
2.7859237536656893
2.7341153470185726
2.6725317693059627
2.603128054740958
2.527859237536657
2.447702834799609
2.364613880742913
2.2825024437927666
2.212121212121212
2.1485826001955037
2.086021505376344
2.027370478983382
1.9745845552297163
1.927663734115347
1.8866080156402736
1.8514173998044965
1.8201368523949168
1.790811339198436
1.7624633431085044
1.7350928641251222
1.7116324535679377
1.6901270772238517
1.6656891495601174
1.6383186705767352
1.6099706744868034
1.5796676441837731
1.5493646138807429
1.5190615835777126
1.487781036168133
1.456500488758553
1.426197458455523
1.396871945259042
1.367546432062561
1.3440860215053765
1.3235581622678396
1.300097751710655
1.2766373411534702
1.2531769305962854
1.2316715542521994
1.2111436950146628
1.1925708699902249
1.1749755620723363
1.1593352883675463
1.1436950146627567
1.1290322580645162
1.1192570869990224
1.1124144672531768
1.104594330400782
1.0957966764418376
1.0869990224828934
1.0791788856304985
1.072336265884653
1.0654936461388074
1.0596285434995112
1.0557184750733135
1.0527859237536656
1.0498533724340176
1.0478983382209188
1.0488758553274682
1.0518084066471165
1.0527859237536656
1.053763440860215
1.0547409579667644
1.0557184750733135
1.0557184750733135
1.0557184750733135
1.0547409579667644
1.0527859237536656
1.0498533724340176
1.04594330400782
1.04594330400782
1.0488758553274682
1.0557184750733135
1.0713587487781036
1.1036168132942326
1.1583577712609971
1.238514173998045
1.346041055718475
1.478983382209189
1.6314760508308896
1.796676441837732
1.9667644183773216
2.132942326490713
2.2688172043010755
2.3822091886608017
2.495601173020528
2.598240469208211
2.687194525904203
2.760508308895406
2.820136852394917
2.8670576735092865
2.918866080156403
2.9687194525904204
2.9980449657869013
3.0117302052785924
3.0117302052785924
3.0
2.981427174975562
2.95405669599218
2.9159335288367547
2.8670576735092865
2.807429130009776
2.73802541544477
2.659824046920821
2.5747800586510263
2.486803519061584
2.3978494623655915
2.302052785923754
2.2238514173998043
2.167155425219941
2.10752688172043
2.0518084066471163
2.0019550342130987
1.9589442815249267
1.9227761485826005
1.89247311827957
1.866080156402737
1.842619745845552
1.8211143695014664
1.8005865102639296
1.7810361681329423
1.761485826001955
1.737047898338221
1.7096774193548387
1.678396871945259
1.6441837732160314
1.607038123167155
1.5679374389051808
1.5268817204301075
1.4838709677419355
1.4408602150537635
1.3988269794721409
1.3587487781036167
1.3264907135874875
1.2991202346041055
1.2688172043010753
1.238514173998045
1.209188660801564
1.181818181818182
1.1583577712609971
1.1378299120234605
1.121212121212121
1.110459433040078
1.104594330400782
1.1036168132942326
1.1085043988269794
1.118279569892473
1.1300097751710656
1.144672531769306
1.160312805474096
1.176930596285435
1.1925708699902249
1.2052785923753666
1.2111436950146628
1.2130987292277615
1.2101661779081134
1.203323558162268
1.1964809384164223
1.187683284457478
1.173998044965787
1.1564027370478984
1.1368523949169111
1.1163245356793745
1.0948191593352885
1.0742913000977516
1.0547409579667644
1.035190615835777
1.0166177908113392
0.9980449657869012
0.9833822091886608
0.978494623655914
0.9804496578690128
0.9882697947214076
1.0087976539589445
1.0498533724340176
1.115347018572825
1.209188660801564
1.332355816226784
1.479960899315738
1.6471163245356797
1.826001955034213
2.007820136852395
2.161290322580645
2.324535679374389
2.4731182795698925
2.5718475073313782
2.6637341153470184
2.7419354838709675
2.8054740957966766
2.854349951124145
2.8905180840664717
2.9149560117302054
2.929618768328446
2.935483870967742
2.930596285434995
2.9149560117302054
2.8905180840664717
2.8563049853372435
2.7947214076246336
2.7116324535679373
2.650048875855328
2.5972629521016617
2.504398826979472
2.412512218963832
2.3255131964809386
2.2404692082111435
2.1700879765395893
2.093841642228739
2.043010752688172
1.9960899315738023
1.9423264907135875
1.900293255131965
1.865102639296188
1.8347996089931573
1.8064516129032255
1.780058651026393
1.7546432062561097
1.7282502443792769
1.7018572825024438
1.678396871945259
1.6559139784946235
1.629521016617791
1.6021505376344083
1.5728250244379276
1.541544477028348
1.5102639296187683
1.47702834799609
1.4428152492668622
1.409579667644184
1.3763440860215057
1.3440860215053765
1.3196480938416422
1.2991202346041055
1.2756598240469208
1.252199413489736
1.2297165200391007
1.2082111436950147
1.1886608015640274
1.1720430107526882
1.1564027370478984
1.142717497556207
1.130987292277615
1.1202346041055715
1.110459433040078
1.1055718475073313
1.1026392961876832
1.099706744868035
1.0957966764418376
1.0928641251221896
1.088954056695992
1.086021505376344
1.0821114369501466
1.0791788856304985
1.075268817204301
1.072336265884653
1.0684261974584557
1.0684261974584557
1.0713587487781036
1.072336265884653
1.072336265884653
1.0713587487781036
1.0694037145650048
1.0664711632453567
1.0625610948191593
1.0576735092864125
1.0527859237536656
1.0469208211143697
1.0420332355816226
1.0391006842619743
1.0410557184750733
1.050830889540567
1.072336265884653
1.1124144672531768
1.1779081133919844
1.2717497556207231
1.393939393939394
1.541544477028348
1.7086999022482894
1.8866080156402736
2.065493646138808
2.2375366568914954
2.376344086021505
2.489736070381232
2.6021505376344085
2.704789833822092
2.792766373411535
2.865102639296188
2.924731182795699
2.973607038123167
3.0127077223851417
3.042033235581622
3.06158357771261
3.071358748778104
3.072336265884653
3.06158357771261
3.040078201368524
3.0127077223851417
2.9745845552297165
2.9266862170087977
2.8690127077223853
2.80058651026393
2.724340175953079
2.6402737047898337
2.552297165200391
2.4613880742913
2.3714565004887587
2.29227761485826
2.2218963831867056
2.150537634408602
2.083088954056696
2.022482893450636
1.9696969696969695
1.9237536656891496
1.8826979472140764
1.8455522971652003
1.812316715542522
1.7810361681329423
1.7517106549364614
1.7223851417399805
1.6979472140762464
1.6744868035190617
1.6480938416422288
1.619745845552297
1.590420332355816
1.560117302052786
1.5298142717497556
1.499511241446725
1.4701857282502444
1.4418377321603129
1.412512218963832
1.383186705767351
1.3587487781036167
1.33822091886608
1.313782991202346
1.2883675464320623
1.262952101661779
1.2375366568914956
1.2130987292277615
1.1896383186705768
1.1671554252199414
1.1466275659824048
1.1270772238514175
1.0420332355816226
1.0439882697947214
1.0518084066471165
1.0654936461388074
1.0918866080156402
1.1378299120234605
1.2082111436950147
1.3049853372434017
1.426197458455523
1.5698924731182795
1.7282502443792769
1.8934506353861196
2.0576735092864125
2.212121212121212
2.335288367546432
2.4359726295210167
2.533724340175953
2.621700879765396
2.696969696969697
2.758553274682307
2.807429130009776
2.84652981427175
2.87683284457478
2.898338220918866
2.9100684261974585
2.9120234604105573
2.903225806451613
2.8856304985337244
2.8611925708699903
2.827956989247312
2.7869012707722387
2.736070381231672
2.675464320625611
2.6070381231671558
2.5317693059628543
2.4516129032258065
2.3704789833822093
2.289345063538612
2.210166177908113
2.142717497556207
2.085043988269794
2.027370478983382
1.975562072336266
1.9296187683284456
1.8885630498533723
1.8533724340175952
1.822091886608016
1.793743890518084
1.7673509286412512
1.7409579667644184
1.715542521994135
1.6930596285434996
1.6715542521994136
1.6471163245356797
1.619745845552297
1.590420332355816
1.5591397849462365
1.5278592375366569
1.4965786901270772
1.466275659824047
1.435972629521017
1.4066471163245358
1.3782991202346042
1.3509286412512218
1.3294232649071358
1.3098729227761483
1.2883675464320623
1.2668621700879763
1.24633431085044
1.2267839687194526
1.2082111436950147
1.1906158357771262
1.1749755620723363
1.1593352883675463
1.144672531769306
1.1319648093841643
1.1241446725317692
1.1192570869990224
1.1114369501466277
1.1026392961876832
1.093841642228739
1.086021505376344
1.0801564027370478
1.0742913000977516
1.0694037145650048
1.0654936461388074
1.0625610948191593
1.0596285434995112
1.0576735092864125
1.0576735092864125
1.0596285434995112
1.0606060606060606
1.0596285434995112
1.0586510263929618
1.0576735092864125
1.0576735092864125
1.0576735092864125
1.056695992179863
1.0557184750733135
1.053763440860215
1.0527859237536656
1.0557184750733135
1.0654936461388074
1.0850439882697946
1.1202346041055715
1.1759530791788857
1.2570869990224829
1.364613880742913
1.4965786901270772
1.64613880742913
1.8074291300097751
1.9726295210166176
2.132942326490713
2.281524926686217
2.398826979472141
2.4916911045943304
2.581622678396872
2.66177908113392
2.7282502443792764
2.7810361681329425
2.8211143695014664
2.850439882697948
2.870967741935484
2.881720430107527
2.884652981427175
2.8797653958944283
2.865102639296188
2.8426197458455524
2.812316715542522
2.7722385141739982
2.7223851417399803
2.662756598240469
2.5943304007820136
2.520039100684262
2.4408602150537635
2.358748778103617
2.2766373411534704
2.1974584555229715
2.124144672531769
2.0635386119257086
2.0117302052785924
1.9618768328445748
1.916911045943304
1.878787878787879
1.8455522971652003
1.8162267839687196
1.7898338220918866
1.7644183773216031
1.7409579667644184
1.7165200391006843
1.6920821114369502
1.6705767350928642
1.6500488758553276
1.6256109481915937
1.598240469208211
1.5698924731182795
1.5395894428152492
1.5083088954056696
1.4760508308895406
1.444770283479961
1.41544477028348
1.3870967741935485
1.359726295210166
1.3333333333333333
1.3128054740957966
1.2961876832844574
1.2766373411534702
1.2570869990224829
1.238514173998045
1.219941348973607
1.203323558162268
1.1867057673509287
1.1710654936461389
1.1564027370478984
1.1436950146627567
1.1319648093841643
1.1241446725317692
1.1202346041055715
1.115347018572825
1.1094819159335287
1.1036168132942326
1.099706744868035
1.0957966764418376
1.0918866080156402
1.088954056695992
1.086021505376344
1.083088954056696
1.0791788856304985
1.0762463343108504
1.0762463343108504
1.078201368523949
1.0772238514173995
1.0762463343108504
1.075268817204301
1.0742913000977516
1.0733137829912025
1.072336265884653
1.0703812316715542
1.0684261974584557
1.0664711632453567
1.0664711632453567
1.072336265884653
1.0850439882697946
1.1094819159335287
1.1515151515151516
1.2179863147605083
1.310850439882698
1.4301075268817205
1.5718475073313782
1.7302052785923754
1.8963831867057677
2.0635386119257086
2.222873900293255
2.36950146627566
2.482893450635386
2.5718475073313782
2.656891495601173
2.732160312805474
2.795698924731183
2.84652981427175
2.886608015640274
2.9159335288367547
2.936461388074292
2.948191593352884
2.951124144672532
2.945259042033236
2.929618768328446
2.905180840664712
2.8729227761485827
2.831867057673509
2.780058651026393
2.719452590420332
2.650048875855328
2.573802541544477
2.493646138807429
2.41544477028348
2.3382209188660803
2.260019550342131
2.1915933528836757
2.1309872922776147
2.070381231671554
2.0146627565982405
1.9657869012707725
1.9227761485826005
1.8836754643206255
1.8494623655913975
1.8191593352883677
1.7898338220918866
1.761485826001955
1.7331378299120237
1.7057673509286413
1.6813294232649072
1.6578690127077225
1.6304985337243405
1.6011730205278591
1.5698924731182795
1.5376344086021505
1.5053763440860215
1.4731182795698925
1.4418377321603129
1.4115347018572826
1.3822091886608017
1.3528836754643203
1.3294232649071358
1.3088954056695992
1.2854349951124144
1.2609970674486803
1.2375366568914956
1.2150537634408602
1.1945259042033236
1.1759530791788857
1.1593352883675463
1.1436950146627567
1.1290322580645162
1.115347018572825
1.1026392961876832
1.0957966764418376
1.0909090909090908
1.083088954056696
1.075268817204301
1.067448680351906
1.0606060606060606
1.053763440860215
1.0488758553274682
1.0449657869012707
1.0410557184750733
1.0381231671554252
1.0361681329423265
1.0371456500488758
1.0391006842619743
1.0391006842619743
1.0391006842619743
1.0391006842619743
1.0391006842619743
1.0381231671554252
1.0371456500488758
1.035190615835777
1.0312805474095796
1.0273704789833822
1.024437927663734
1.0254154447702837
1.032258064516129
1.0488758553274682
1.0791788856304985
1.1300097751710656
1.2052785923753666
1.3088954056695992
1.4389051808406648
1.5913978494623655
1.7595307917888563
1.935483870967742
2.110459433040078
2.275659824046921
2.407624633431085
2.5141739980449658
2.6177908113391983
2.7096774193548385
2.7859237536656893
2.84652981427175
2.89247311827957
2.924731182795699
2.9442815249266863
2.9530791788856305
2.9501466275659824
2.9374389051808407
2.913000977517106
2.8807429130009776
2.8396871945259043
2.789833822091887
2.730205278592375
2.662756598240469
2.587487781036168
2.50733137829912
2.4242424242424243
2.3421309872922778
2.2639296187683287
2.1915933528836757
2.126099706744868
2.072336265884653
2.029325513196481
1.9902248289345064
1.956989247311828
1.9296187683284456
1.90811339198436
1.8905180840664717
1.8748778103616808
1.8592375366568916
1.8416422287390029
1.822091886608016
1.7976539589442817
1.7702834799608993
1.7429130009775171
1.715542521994135
1.6813294232649072
1.6422287390029326
1.5992179863147604
1.555229716520039
1.5102639296187683
1.466275659824047
1.423264907135875
1.3822091886608017
1.343108504398827
1.305962854349951
1.2776148582600195
1.2541544477028348
1.2297165200391007
1.206256109481916
1.18475073313783
1.1671554252199414
1.1534701857282503
1.144672531769306
1.1397849462365592
1.13880742913001
1.1397849462365592
1.142717497556207
1.144672531769306
1.1485826001955035
1.1534701857282503
1.1564027370478984
1.1573802541544478
1.1564027370478984
1.1534701857282503
1.1485826001955035
1.142717497556207
1.1348973607038124
1.1251221896383188
1.1124144672531768
1.0987292277614855
1.0899315738025417
1.083088954056696
1.072336265884653
1.0606060606060606
1.0488758553274682
1.0361681329423265
1.0224828934506354
1.007820136852395
0.9941348973607038
0.9804496578690128
0.967741935483871
0.959921798631476
0.9628543499511242
0.9775171065493646
1.0087976539589445
1.0635386119257086
1.1456500488758554
1.2570869990224829
1.3958944281524928
1.555229716520039
1.7282502443792769
1.906158357771261
2.080156402737048
2.242424242424242
2.388074291300098
2.4995112414467253
2.5855327468230693
2.665689149560117
2.735092864125122
2.792766373411535
2.8406647116324537
2.878787878787879
2.9071358748778104
2.927663734115347
2.9393939393939394
2.941348973607038
2.9335288367546437
2.9149560117302054
2.886608015640274
2.849462365591398
2.8025415444770285
2.7438905180840663
2.675464320625611
2.5992179863147604
2.5180840664711632
2.4330400782013686
2.347996089931574
2.2639296187683287
2.1837732160312804
2.110459433040078
2.050830889540567
2.0009775171065494
1.9530791788856303
1.9090909090909087
1.8699902248289344
1.836754643206256
1.8064516129032255
1.7790811339198436
1.7526881720430108
1.726295210166178
1.699902248289345
1.672531769305963
1.6441837732160314
1.619745845552297
1.5962854349951123
1.56891495601173
1.5395894428152492
1.509286412512219
1.478005865102639
1.4467253176930597
1.4164222873900294
1.3851417399804498
1.3548387096774193
1.3255131964809383
1.2971652003910068
1.2746823069403714
1.2561094819159335
1.2336265884652982
1.2111436950146628
1.1896383186705768
1.1691104594330402
1.1505376344086022
1.1329423264907137
1.1163245356793745
1.1016617790811338
1.088954056695992
1.0772238514173995
1.0703812316715542
1.0654936461388074
1.0596285434995112
1.0527859237536656
1.0469208211143697
1.0410557184750733
1.0361681329423265
1.0312805474095796
1.0273704789833822
1.0254154447702837
1.0234604105571847
1.021505376344086
1.0195503421309873
1.0205278592375366
1.0234604105571847
1.0254154447702837
1.0391006842619743
1.0576735092864125
1.0664711632453567
1.0694037145650048
1.0684261974584557
1.0654936461388074
1.06158357771261
1.0576735092864125
1.0576735092864125
1.0654936461388074
1.0840664711632453
1.1173020527859236
1.1730205278592376
1.2551319648093842
1.3655913978494625
1.5024437927663734
1.6608015640273706
1.8328445747800584
2.0087976539589443
2.1808406647116323
2.3411534701857284
2.484848484848485
2.5943304007820136
2.678396871945259
2.758553274682307
2.8289345063538613
2.889540566959922
2.9393939393939394
2.978494623655914
3.0087976539589443
3.0303030303030303
3.043010752688172
3.046920821114369
3.0410557184750733
3.0234604105571847
2.9980449657869013
2.963831867057673
2.920821114369501
2.8670576735092865
2.8044965786901277
2.732160312805474
2.652003910068426
2.5669599217986314
2.4789833822091887
2.391006842619746
2.3059628543499517
2.225806451612903
2.158357771260997
2.101661779081134
2.046920821114369
1.9960899315738023
1.951124144672532
1.911045943304008
1.8758553274682308
1.8435972629521016
1.8142717497556209
1.7859237536656891
1.758553274682307
1.7311827956989247
1.70772238514174
1.6842619745845553
1.6578690127077225
1.629521016617791
1.5992179863147604
1.5669599217986314
1.5347018572825024
1.501466275659824
1.4682306940371457
1.436950146627566
1.4076246334310851
1.3792766373411536
1.3519061583577712
1.3294232649071358
1.310850439882698
1.2913000977517106
1.270772238514174
1.2502443792766371
1.2297165200391007
1.2101661779081134
1.1915933528836755
1.173998044965787
1.1583577712609971
1.144672531769306
1.1319648093841643
1.1241446725317692
1.1192570869990224
1.1124144672531768
1.104594330400782
1.0977517106549364
1.0918866080156402
1.086021505376344
1.0811339198435972
1.078201368523949
1.075268817204301
1.072336265884653
1.0703812316715542
1.0684261974584557
1.0694037145650048
1.0733137829912025
1.075268817204301
1.0772238514173995
1.0791788856304985
1.0801564027370478
1.0811339198435972
1.0811339198435972
1.0811339198435972
1.0801564027370478
1.0791788856304985
1.0801564027370478
1.0879765395894427
1.104594330400782
1.133919843597263
1.1827956989247312
1.2570869990224829
1.3587487781036167
1.487781036168133
1.6383186705767352
1.8035190615835777
1.975562072336266
2.144672531769306
2.304985337243402
2.4486803519061584
2.558162267839687
2.644183773216031
2.7253176930596283
2.7966764418377323
2.855327468230694
2.902248289345064
2.9374389051808407
2.962854349951124
2.9804496578690127
2.9902248289345064
2.992179863147605
2.9853372434017595
2.9696969696969697
2.9472140762463344
2.918866080156403
2.8826979472140764
2.8377321603128056
2.782991202346041
2.719452590420332
2.6471163245356792
2.5698924731182795
2.487781036168133
2.403714565004888
2.321603128054741
2.242424242424242
2.1739980449657867
2.113391984359726
2.0527859237536656
1.9960899315738023
1.945259042033236
1.8993157380254155
1.858260019550342
1.8211143695014664
1.7878787878787878
1.7575757575757576
1.7302052785923754
1.7038123167155426
1.6823069403714566
1.66177908113392
1.6392961876832846
1.6148582600195502
1.5884652981427174
1.560117302052786
1.5298142717497556
1.498533724340176
1.466275659824047
1.434017595307918
1.4007820136852396
1.3685239491691104
1.3372434017595307
1.3128054740957966
1.29227761485826
1.2688172043010753
1.2453567937438903
1.2228739002932552
1.203323558162268
1.1857282502443791
1.1700879765395895
1.1564027370478984
1.144672531769306
1.133919843597263
1.1251221896383188
1.1202346041055715
1.1173020527859236
1.1114369501466277
1.104594330400782
1.0977517106549364
1.0918866080156402
1.0869990224828934
1.083088954056696
1.0791788856304985
1.075268817204301
1.0713587487781036
1.0684261974584557
1.0694037145650048
1.0713587487781036
1.0713587487781036
1.0703812316715542
1.0703812316715542
1.0703812316715542
1.0703812316715542
1.0694037145650048
1.0684261974584557
1.0664711632453567
1.0654936461388074
1.064516129032258
1.0654936461388074
1.072336265884653
1.0869990224828934
1.115347018572825
1.1622678396871946
1.2346041055718475
1.3333333333333333
1.458455522971652
1.606060606060606
1.7683284457478006
1.93841642228739
2.1065493646138806
2.2668621700879767
2.3949169110459434
2.4995112414467253
2.6021505376344085
2.695014662756598
2.7751710654936463
2.841642228739003
2.895405669599218
2.9374389051808407
2.967741935483871
2.988269794721408
2.99902248289345
3.0
2.991202346041056
2.972629521016618
2.945259042033236
2.9100684261974585
2.866080156402737
2.812316715542522
2.748778103616813
2.67644183773216
2.5972629521016617
2.5131964809384164
2.4281524926686218
2.3440860215053765
2.2639296187683287
2.196480938416422
2.1378299120234603
2.081133919843597
2.029325513196481
1.9833822091886608
1.943304007820137
1.9090909090909087
1.878787878787879
1.8514173998044965
1.825024437927664
1.7859237536656891
1.7390029325513197
1.7018572825024438
1.6735092864125125
1.6480938416422288
1.619745845552297
1.590420332355816
1.5591397849462365
1.5278592375366569
1.4965786901270772
1.4652981427174976
1.434017595307918
1.4027370478983383
1.3714565004887584
1.3421309872922775
1.3186705767350928
1.2981427174975562
1.2756598240469208
1.2531769305962854
1.2316715542521994
1.2111436950146628
1.1925708699902249
1.1749755620723363
1.1583577712609971
1.142717497556207
1.1270772238514175
1.1114369501466277
1.0977517106549364
1.0899315738025417
1.0850439882697946
1.078201368523949
1.0713587487781036
1.064516129032258
1.0586510263929618
1.0518084066471165
1.0449657869012707
1.040078201368524
1.0361681329423265
1.0332355816226784
1.0303030303030305
1.0312805474095796
1.0332355816226784
1.0342130987292275
1.0342130987292275
1.0342130987292275
1.0332355816226784
1.0312805474095796
1.029325513196481
1.0273704789833822
1.0234604105571847
1.0195503421309873
1.0175953079178883
1.021505376344086
1.0332355816226784
1.0547409579667644
1.093841642228739
1.1564027370478984
1.24633431085044
1.3616813294232648
