ppg
2.658846529814272
2.7966764418377323
2.9345063538611926
3.0576735092864125
3.160312805474096
3.236559139784946
3.2873900293255134
3.314760508308896
3.320625610948192
3.2267839687194524
3.0791788856304985
2.986314760508309
2.916911045943304
2.860215053763441
2.8084066471163247
2.752688172043011
2.69208211143695
2.627565982404692
2.560117302052786
2.489736070381232
2.4173998044965788
2.3440860215053765
2.271749755620724
2.201368523949169
2.133919843597263
2.0772238514174
2.027370478983382
1.9765395894428155
1.9296187683284456
1.8875855327468232
1.8514173998044965
1.8201368523949168
1.7917888563049853
1.7653958944281525
1.7409579667644184
1.7174975562072337
1.6930596285434996
1.6666666666666667
1.643206256109482
1.6207233626588464
1.5933528836754642
1.564027370478983
1.5356793743890518
1.5083088954056696
1.4809384164222874
1.4535679374389052
1.4252199413489737
1.3978494623655917
1.3743890518084063
1.3587487781036167
1.3558162267839686
1.3685239491691104
1.401759530791789
1.4613880742913
1.5483870967741935
1.6588465298142718
1.7888563049853372
1.9315738025415443
2.078201368523949
2.220918866080156
2.3528836754643208
2.4701857282502444
2.5698924731182795
2.6392961876832843
2.6881720430107525
2.7282502443792764
2.7546432062561097
2.766373411534702
2.7624633431085046
2.744868035190616
2.7155425219941347
2.675464320625611
2.6265884652981426
2.572825024437928
2.5141739980449658
2.458455522971652
2.401759530791789
2.337243401759531
2.2658846529814274
2.190615835777126
2.1114369501466275
2.03128054740958
1.9521016617790807
1.8748778103616808
1.8025415444770283
1.737047898338221
1.6793743890518085
1.629521016617791
1.5923753665689149
1.564027370478983
1.5356793743890518
1.5102639296187683
1.4868035190615836
1.4652981427174976
1.4428152492668622
1.4203323558162269
1.3978494623655917
1.3734115347018572
1.348973607038123
1.3235581622678396
1.3049853372434017
1.289345063538612
1.270772238514174
1.2512218963831867
1.23069403714565
1.2101661779081134
1.1906158357771262
1.1749755620723363
1.1681329423264908
1.173998044965787
1.198435972629521
1.2443792766373412
1.313782991202346
1.3900293255131966
1.47702834799609
1.5865102639296187
1.7086999022482894
1.833822091886608
1.95405669599218
2.065493646138808
2.163245356793744
2.247311827956989
2.3167155425219943
2.3743890518084068
2.421309872922776
2.4545454545454546
2.4780058651026398
2.5004887585532747
2.5180840664711632
2.5288367546432062
2.5288367546432062
2.5180840664711632
2.4946236559139785
2.4574780058651027
2.4086021505376345
2.347996089931574
2.278592375366569
2.2023460410557183
2.131964809384164
2.0635386119257086
1.9872922776148585
1.911045943304008
1.8387096774193548
1.772238514173998
1.7135874877810362
1.6637341153470186
1.6226783968719452
1.5884652981427174
1.5610948191593352
1.5376344086021505
1.521994134897361
1.509286412512219
1.495601173020528
1.482893450635386
1.4711632453567938
1.4604105571847508
1.4506353861192571
1.4418377321603129
1.43108504398827
1.418377321603128
1.4037145650048877
1.3870967741935485
1.367546432062561
1.3499511241446724
1.335288367546432
1.3186705767350928
1.3020527859237536
1.289345063538612
1.2864125122189638
1.2971652003910068
1.327468230694037
1.3812316715542523
1.4604105571847508
1.5650048875855327
1.6911045943304008
1.8132942326490715
1.9364613880742916
2.080156402737048
2.2277614858260018
2.36950146627566
2.4975562072336266
2.6080156402737047
2.696969696969697
2.764418377321604
2.811339198435973
2.838709677419355
2.849462365591398
2.84652981427175
2.832844574780059
2.8103616813294234
2.782013685239492
2.748778103616813
2.708699902248289
2.66177908113392
2.6070381231671558
2.5434995112414467
2.472140762463343
2.3949169110459434
2.310850439882698
2.2218963831867056
2.1417399804496577
2.067448680351906
1.986314760508309
1.9042033235581624
1.826001955034213
1.7526881720430108
1.6852394916911049
1.6226783968719452
1.5620723362658846
1.5034213098729228
1.444770283479961
1.388074291300098
1.335288367546432
1.2942326490713587
1.2639296187683284
1.2355816226783969
1.2140762463343109
1.203323558162268
1.2023460410557183
1.2101661779081134
1.224828934506354
1.241446725317693
1.2551319648093842
1.262952101661779
1.262952101661779
1.2609970674486803
1.2541544477028348
1.2404692082111437
1.2267839687194526
1.2209188660801564
1.2316715542521994
1.2658846529814272
1.3284457478005864
1.4213098729227762
1.541544477028348
1.6823069403714566
1.836754643206256
1.975562072336266
2.102639296187683
2.2385141739980448
2.367546432062561
2.482893450635386
2.5777126099706744
2.650048875855328
2.699902248289345
2.7282502443792764
2.7370478983382207
2.730205278592375
2.7126099706744866
2.687194525904203
2.656891495601173
2.621700879765396
2.579667644183773
2.5288367546432062
2.4672531769305963
2.3958944281524928
2.313782991202346
2.225806451612903
2.134897360703812
2.04594330400782
1.9618768328445748
1.8875855327468232
1.8299120234604105
1.7849462365591398
1.7429130009775171
1.683284457478006
1.6177908113391983
1.576735092864125
1.5493646138807429
1.5288367546432062
1.512218963831867
1.4965786901270772
1.478005865102639
1.4545454545454546
1.4271749755620724
1.4027370478983383
1.380254154447703
1.3548387096774193
1.3294232649071358
1.3040078201368523
1.281524926686217
1.262952101661779
1.2473118279569892
1.2316715542521994
1.2160312805474096
1.203323558162268
1.1964809384164223
1.198435972629521
1.2130987292277615
1.2453567937438903
1.2991202346041055
1.3782991202346042
1.4809384164222874
1.6041055718475072
1.7438905180840665
1.8934506353861196
2.0439882697947214
2.1915933528836757
2.329423264907136
2.4545454545454546
2.552297165200391
2.6295210166177907
2.702834799608993
2.7614858260019552
2.801564027370479
2.822091886608016
2.823069403714565
2.8044965786901277
2.766373411534702
2.710654936461388
2.6373411534701856
2.548387096774193
2.458455522971652
2.3626588465298144
2.24633431085044
2.117302052785924
1.981427174975562
1.8455522971652003
1.7165200391006843
1.6021505376344083
1.509286412512219
1.4408602150537635
1.252199413489736
1.2590420332355816
1.281524926686217
1.3147605083088951
1.3607038123167154
1.4301075268817205
1.521016617790811
1.632453567937439
1.7595307917888563
1.8993157380254155
2.0439882697947214
2.185728250244379
2.3167155425219943
2.429130009775171
2.5180840664711632
2.575757575757576
2.6070381231671558
2.622678396871945
2.621700879765396
2.6080156402737047
2.5865102639296187
2.560117302052786
2.529814271749756
2.498533724340176
2.463343108504399
2.420332355816227
2.367546432062561
2.303030303030303
2.2385141739980448
2.1700879765395893
2.0879765395894427
1.997067448680352
1.902248289345064
1.8084066471163245
1.7194525904203324
1.6383186705767352
1.5679374389051808
1.5073313782991202
1.457478005865103
1.41544477028348
1.3851417399804498
1.3616813294232648
1.3391984359726294
1.3186705767350928
1.300097751710655
1.2834799608993157
1.2717497556207231
1.2639296187683284
1.2580645161290325
1.252199413489736
1.2434017595307918
1.2287390029325511
1.2043010752688172
1.1798631476050832
1.1534701857282503
1.1163245356793745
1.072336265884653
1.029325513196481
0.9931573802541545
0.9706744868035192
0.9667644183773216
0.9872922776148584
1.0361681329423265
1.1143695014662756
1.219941348973607
1.3294232649071358
1.444770283479961
1.5806451612903225
1.7253176930596286
1.870967741935484
2.0087976539589443
2.134897360703812
2.2482893450635384
2.347018572825025
2.43108504398827
2.4975562072336266
2.5464320625610948
2.5777126099706744
2.590420332355816
2.5884652981427174
2.576735092864125
2.555229716520039
2.5219941348973607
2.4780058651026398
2.4252199413489737
2.360703812316716
2.2844574780058653
2.1955034213098727
2.0948191593352883
1.9853372434017595
1.884652981427175
1.790811339198436
1.689149560117302
1.5913978494623655
1.504398826979472
1.4349951124144673
1.3841642228739004
1.3528836754643203
1.3401759530791788
1.3411534701857282
1.3528836754643203
1.3714565004887584
1.3919843597262953
1.412512218963832
1.4330400782013686
1.4486803519061584
1.456500488758553
1.4535679374389052
1.4418377321603129
1.4203323558162269
1.3900293255131966
1.3519061583577712
1.3079178885630498
1.2590420332355816
1.206256109481916
1.1622678396871946
1.1231671554252198
1.0821114369501466
1.0478983382209188
1.0273704789833822
1.0273704789833822
1.050830889540567
1.1026392961876832
1.18475073313783
1.295210166177908
1.43108504398827
1.5865102639296187
1.732160312805474
1.873900293255132
2.0332355816226784
2.1925708699902247
2.3391984359726297
2.464320625610948
2.563049853372434
2.634408602150537
2.6803519061583576
2.704789833822092
2.713587487781036
2.7096774193548385
2.6959921798631474
2.674486803519061
2.64613880742913
2.6099706744868034
2.5650048875855327
2.5102639296187683
2.44672531769306
2.375366568914956
2.297165200391007
2.2140762463343107
2.1270772238514173
2.038123167155425
1.9472140762463344
1.866080156402737
1.7898338220918866
1.7018572825024438
1.6050830889540566
1.500488758553275
1.3890518084066472
1.273704789833822
1.1583577712609971
1.0498533724340176
0.956989247311828
0.8905180840664711
0.8582600195503421
0.8660801564027371
0.9032258064516128
0.967741935483871
1.0625610948191593
1.1730205278592376
1.284457478005865
1.383186705767351
1.456500488758553
1.499511241446725
1.5083088954056696
1.5317693059628543
1.5542521994134897
1.5278592375366569
1.4897360703812317
1.4486803519061584
1.404692082111437
1.375366568914956
1.370478983382209
1.3978494623655917
1.4613880742913
1.5620723362658846
1.6930596285434996
1.8465298142717497
2.0146627565982405
2.188660801564027
2.358748778103617
2.4995112414467253
2.6158357771261
2.727272727272727
2.8211143695014664
2.889540566959922
2.9286412512218964
2.936461388074292
2.913978494623656
2.865102639296188
2.793743890518084
2.704789833822092
2.6050830889540566
2.512218963831867
2.4242424242424243
2.334310850439883
2.251221896383187
2.1818181818181817
2.1309872922776147
2.101661779081134
2.093841642228739
2.103616813294233
2.124144672531769
2.1495601173020527
2.172043010752688
2.1847507331378297
2.1837732160312804
2.1681329423264906
2.134897360703812
2.086021505376344
2.0254154447702835
1.9589442815249267
1.8914956011730208
1.8269794721407624
1.7702834799608993
1.7243401759530792
1.6881720430107527
1.6598240469208212
1.6392961876832846
1.6226783968719452
1.6050830889540566
1.585532746823069
1.563049853372434
1.5395894428152492
1.5161290322580645
1.4926686217008798
1.469208211143695
1.4457478005865103
1.4203323558162269
1.396871945259042
1.3782991202346042
1.3695014662756595
1.3724340175953078
1.391006842619746
1.434017595307918
1.5053763440860215
1.6080156402737047
1.7380254154447703
1.8914956011730208
2.059628543499511
2.23069403714565
2.396871945259042
2.548387096774193
2.6637341153470184
2.7517106549364616
2.827956989247312
2.8836754643206257
2.917888563049853
2.930596285434995
2.9237536656891496
2.902248289345064
2.868035190615836
2.8260019550342133
2.7781036168132944
2.7253176930596283
2.6695992179863146
2.6158357771261
2.5620723362658846
2.5004887585532747
2.4349951124144678
2.367546432062561
2.300097751710655
2.232649071358749
2.1652003910068425
2.0987292277614857
2.03128054740958
1.9618768328445748
1.8914956011730208
1.828934506353861
1.7712609970674489
1.710654936461388
1.6520039100684265
1.6001955034213098
1.5581622678396871
1.5249266862170088
1.498533724340176
1.4760508308895406
1.455522971652004
1.434017595307918
1.4076246334310851
1.3734115347018572
1.3401759530791788
1.3010752688172045
1.2453567937438903
1.1749755620723363
1.0948191593352885
1.010752688172043
0.9315738025415444
0.8660801564027371
0.8250244379276638
0.8162267839687195
0.8475073313782991
0.9217986314760508
1.018572825024438
1.1407624633431086
1.3049853372434017
1.4965786901270772
1.7008797653958945
1.906158357771261
2.102639296187683
2.280547409579668
2.4359726295210167
2.565982404692082
2.6695992179863146
2.7497556207233624
2.807429130009776
2.8406647116324537
2.855327468230694
2.86217008797654
2.859237536656892
2.8475073313782997
2.8260019550342133
2.7966764418377323
2.7614858260019552
2.719452590420332
2.6715542521994133
2.6158357771261
2.5532746823069403
2.49266862170088
2.429130009775171
2.35386119257087
2.269794721407625
2.179863147605083
2.0879765395894427
1.997067448680352
1.9120234604105573
1.835777126099707
1.7702834799608993
1.7165200391006843
1.6715542521994136
1.6392961876832846
1.6158357771260996
1.5923753665689149
1.5669599217986314
1.5386119257087
1.5053763440860215
1.4643206256109482
1.4134897360703813
1.3509286412512218
1.2776148582600195
1.1974584555229717
1.1143695014662756
1.035190615835777
0.9775171065493646
0.9413489736070382
0.919843597262952
0.9188660801564028
0.9433040078201368
0.9921798631476052
1.0625610948191593
1.1495601173020529
1.2502443792766371
1.359726295210166
1.4760508308895406
1.5992179863147604
1.710654936461388
1.8162267839687196
1.9364613880742916
2.0664711632453567
2.19941348973607
2.332355816226784
2.4613880742913
2.582600195503421
2.6930596285435
2.7869012707722387
2.86217008797654
2.917888563049853
2.9530791788856305
2.967741935483871
2.9667644183773216
2.9550342130987293
2.932551319648094
2.900293255131965
2.859237536656892
2.8103616813294234
2.752688172043011
2.684261974584555
2.6041055718475072
2.509286412512219
2.401759530791789
2.297165200391007
2.189638318670577
2.0625610948191597
1.9227761485826005
1.775171065493646
1.6236559139784943
1.469208211143695
1.3147605083088951
1.164222873900293
1.0205278592375366
0.8895405669599218
0.7790811339198436
0.6989247311827957
0.656891495601173
0.6539589442815249
0.6852394916911045
0.7556207233626588
0.8602150537634409
0.989247311827957
1.1290322580645162
1.2639296187683284
1.380254154447703
1.466275659824047
1.5180840664711632
1.5347018572825024
1.5298142717497556
1.5063538611925709
1.4643206256109482
1.418377321603128
1.3812316715542523
1.3636363636363635
1.3743890518084063
1.4193548387096775
1.500488758553275
1.6148582600195502
1.758553274682307
1.9257086999022484
2.10752688172043
2.269794721407625
2.419354838709677
2.581622678396872
2.740957966764418
2.877810361681329
2.9804496578690127
3.0498533724340176
3.0869990224828934
3.093841642228739
3.0733137829912023
3.029325513196481
2.9687194525904204
2.906158357771261
2.843597262952102
2.779081133919844
2.718475073313783
2.6666666666666665
2.624633431085044
2.591397849462365
2.5650048875855327
2.5425219941348973
2.520039100684262
2.49266862170088
2.4574780058651027
2.4144672531769307
2.36950146627566
2.318670576735093
2.2551319648093844
2.1837732160312804
2.10752688172043
2.0303030303030303
1.956989247311828
1.8914956011730208
1.8377321603128052
1.7976539589442817
1.772238514173998
1.761485826001955
1.761485826001955
1.7683284457478006
1.7781036168132942
1.7859237536656891
1.7878787878787878
1.7810361681329423
1.7624633431085044
1.7302052785923754
1.6852394916911049
1.6275659824046922
1.560117302052786
1.4868035190615836
1.4115347018572826
1.348973607038123
1.2981427174975562
1.2502443792766371
1.2189638318670577
1.2150537634408602
1.2473118279569892
1.3196480938416422
1.434017595307918
1.5865102639296187
1.7663734115347018
1.964809384164223
2.16911045943304
2.343108504398827
2.49266862170088
2.6392961876832843
2.766373411534702
2.8670576735092865
2.9393939393939394
2.9853372434017595
3.007820136852395
3.0127077223851417
3.005865102639296
2.9902248289345064
2.967741935483871
2.9393939393939394
2.90811339198436
2.8719452590420333
2.827956989247312
2.776148582600196
2.717497556207233
2.6529814271749754
2.58455522971652
2.5131964809384164
2.441837732160313
2.3685239491691106
2.2952101661779083
2.2238514173998043
2.163245356793744
2.1114369501466275
2.059628543499511
2.0146627565982405
1.9794721407624636
1.9560117302052784
1.9403714565004888
1.9296187683284456
1.920821114369501
1.9100684261974583
1.895405669599218
1.8748778103616808
1.8494623655913975
1.826001955034213
1.804496578690127
1.782991202346041
1.7644183773216031
1.7517106549364614
1.7448680351906158
1.7409579667644184
1.7380254154447703
1.7341153470185728
1.7302052785923754
1.7282502443792769
1.7302052785923754
1.7390029325513197
1.7556207233626588
1.7839687194525904
1.8269794721407624
1.8856304985337244
1.9608993157380252
2.0498533724340176
2.1524926686217007
2.2639296187683287
2.3812316715542523
2.5004887585532747
2.616813294232649
2.724340175953079
2.8084066471163247
2.8729227761485827
2.929618768328446
2.9696969696969697
2.9902248289345064
2.988269794721408
2.9657869012707723
2.924731182795699
2.868035190615836
2.80058651026393
2.727272727272727
2.6529814271749754
2.587487781036168
2.529814271749756
2.474095796676442
2.4222873900293256
2.375366568914956
2.333333333333333
2.2961876832844577
2.260019550342131
2.222873900293255
2.1818181818181817
2.1378299120234603
2.089931573802541
2.046920821114369
2.004887585532747
1.956989247311828
1.9090909090909087
1.865102639296188
1.826001955034213
1.7927663734115349
1.7663734115347018
1.7468230694037146
1.7311827956989247
1.7194525904203324
1.7116324535679377
1.7057673509286413
1.7038123167155426
1.7038123167155426
1.7008797653958945
1.6950146627565983
1.6842619745845553
1.6686217008797657
1.6490713587487782
1.6265884652981428
1.6050830889540566
1.590420332355816
1.5884652981427174
1.6050830889540566
1.6373411534701858
1.6871945259042034
1.7634408602150538
1.8621700879765395
1.9765395894428155
2.099706744868035
2.2238514173998043
2.3440860215053765
2.4565004887585533
2.558162267839687
2.6471163245356792
2.7223851417399803
2.7839687194525906
2.8260019550342133
2.854349951124145
2.877810361681329
2.89345063538612
2.8993157380254155
2.895405669599218
2.8826979472140764
2.8611925708699903
2.8299120234604107
2.789833822091887
2.740957966764418
2.684261974584555
2.627565982404692
2.56891495601173
2.501466275659824
2.429130009775171
2.3548387096774195
2.281524926686217
2.210166177908113
2.1417399804496577
2.0762463343108504
2.0146627565982405
1.9560117302052784
1.9042033235581624
1.8592375366568916
1.826001955034213
1.8025415444770283
1.7839687194525904
1.7732160312805474
1.7683284457478006
1.7683284457478006
1.7683284457478006
1.7683284457478006
1.7644183773216031
1.7565982404692082
1.7468230694037146
1.7360703812316716
1.7272727272727273
1.7194525904203324
1.7096774193548387
1.696969696969697
1.6823069403714566
1.6656891495601174
1.6500488758553276
1.640273704789834
1.6422287390029326
1.6598240469208212
1.6989247311827955
1.7595307917888563
1.8416422287390029
1.9266862170087975
2.01564027370479
2.1221896383186705
2.2346041055718477
2.347018572825025
2.453567937438905
2.550342130987292
2.6373411534701856
2.7126099706744866
2.776148582600196
2.8269794721407626
2.866080156402737
2.887585532746823
2.897360703812317
2.900293255131965
2.895405669599218
2.881720430107527
2.860215053763441
2.8289345063538613
2.788856304985337
2.73802541544477
2.677419354838709
2.5698924731182795
2.4359726295210167
2.324535679374389
2.233626588465298
2.1544477028347995
2.072336265884653
1.9902248289345064
1.9120234604105573
1.8377321603128052
1.7663734115347018
1.6989247311827955
1.635386119257087
1.5777126099706744
1.5288367546432062
1.4897360703812317
1.4643206256109482
1.4496578690127078
1.4418377321603129
1.4408602150537635
1.447702834799609
1.4613880742913
1.478005865102639
1.4965786901270772
1.5141739980449658
1.5268817204301075
1.5327468230694037
1.530791788856305
1.521016617790811
1.509286412512219
1.4946236559139785
1.4711632453567938
1.4457478005865103
1.4252199413489737
1.4164222873900294
1.4271749755620724
1.4623655913978495
1.5239491691104594
1.6129032258064515
1.7253176930596286
1.855327468230694
1.9765395894428155
2.09188660801564
2.217986314760508
2.343108504398827
2.4594330400782014
2.5610948191593352
2.6451612903225805
2.7096774193548385
2.755620723362659
2.782991202346041
2.790811339198436
2.779081133919844
2.750733137829912
2.7126099706744866
2.6637341153470184
2.6021505376344085
2.5317693059628543
2.455522971652004
2.378299120234604
2.304007820136853
2.232649071358749
2.1652003910068425
2.1055718475073317
2.0527859237536656
2.006842619745845
1.9716520039100685
1.943304007820137
1.9130009775171064
1.8826979472140764
1.8514173998044965
1.8191593352883677
1.7859237536656891
1.750733137829912
1.7145650048875856
1.678396871945259
1.6422287390029326
1.6080156402737047
1.5777126099706744
1.555229716520039
1.5395894428152492
1.5268817204301075
1.5190615835777126
1.5151515151515151
1.5141739980449658
1.517106549364614
1.521016617790811
1.525904203323558
1.5288367546432062
1.5298142717497556
1.530791788856305
1.5327468230694037
1.5356793743890518
1.5386119257087
1.5454545454545454
1.5620723362658846
1.5933528836754642
1.6422287390029326
1.7116324535679377
1.8005865102639296
1.906158357771261
2.0234604105571847
2.147605083088954
2.2551319648093844
2.3519061583577714
2.452590420332356
2.5464320625610948
2.6295210166177907
2.697947214076246
2.747800586510264
2.7781036168132944
2.788856304985337
2.7810361681329425
2.757575757575758
2.721407624633431
2.675464320625611
2.6295210166177907
2.5835777126099706
2.533724340175953
2.4819159335288368
2.4271749755620724
2.3704789833822093
2.312805474095797
2.2531769305962857
2.1925708699902247
2.132942326490713
2.074291300097752
2.01564027370479
1.9657869012707725
1.9188660801564028
1.865102639296188
1.8074291300097751
1.7497556207233629
1.696969696969697
1.6529814271749756
1.6207233626588464
1.5992179863147604
1.5884652981427174
1.5865102639296187
1.5894428152492668
1.5933528836754642
1.5962854349951123
1.5943304007820136
1.5835777126099706
1.5610948191593352
1.525904203323558
1.478983382209189
1.4222873900293256
1.359726295210166
1.295210166177908
1.2346041055718475
1.1857282502443791
1.1573802541544478
1.1544477028347997
1.181818181818182
1.24633431085044
1.3509286412512218
1.4926686217008798
1.6656891495601174
1.858260019550342
2.058651026392962
2.251221896383187
2.4252199413489737
2.5718475073313782
2.687194525904203
2.7702834799608995
2.820136852394917
2.84652981427175
2.8611925708699903
2.866080156402737
2.863147605083089
2.8563049853372435
2.8475073313782997
2.8377321603128056
2.8269794721407626
2.8132942326490715
2.793743890518084
2.768328445747801
2.73802541544477
2.701857282502444
2.654936461388074
2.5962854349951123
2.5268817204301075
2.4486803519061584
2.3626588465298144
2.2737047898338223
2.1847507331378297
2.0987292277614857
2.018572825024438
1.946236559139785
1.8826979472140764
1.833822091886608
1.7956989247311828
1.761485826001955
1.732160312805474
1.7067448680351909
1.6823069403714566
1.656891495601173
1.6275659824046922
1.5913978494623655
1.547409579667644
1.4975562072336266
1.4437927663734116
1.3978494623655917
1.3577712609970674
1.3147605083088951
1.2756598240469208
1.2434017595307918
1.2189638318670577
1.206256109481916
1.2052785923753666
1.219941348973607
1.2512218963831867
1.300097751710655
1.364613880742913
1.4428152492668622
1.521016617790811
1.6011730205278591
1.6959921798631477
1.8005865102639296
1.911045943304008
2.0234604105571847
2.1378299120234603
2.251221896383187
2.360703812316716
2.4652981427174976
2.560117302052786
2.6422287390029324
2.701857282502444
2.742913000977517
2.777126099706745
2.80058651026393
2.812316715542522
2.812316715542522
2.801564027370479
2.780058651026393
2.747800586510264
2.7067448680351904
2.6578690127077222
2.6021505376344085
2.541544477028348
2.482893450635386
2.423264907135875
