ppg
2.7233626588465296
2.801564027370479
2.8563049853372435
2.889540566959922
2.906158357771261
2.9100684261974585
2.900293255131965
2.8836754643206257
2.863147605083089
2.8377321603128056
2.806451612903226
2.768328445747801
2.7233626588465296
2.6695992179863146
2.6070381231671558
2.535679374389052
2.4574780058651027
2.3743890518084068
2.297165200391007
2.2238514173998043
2.145650048875855
2.069403714565005
2.0009775171065494
1.9413489736070384
1.889540566959922
1.8484848484848484
1.8162267839687196
1.790811339198436
1.7702834799608993
1.7526881720430108
1.7350928641251222
1.718475073313783
1.7018572825024438
1.6803519061583578
1.6559139784946235
1.629521016617791
1.6001955034213098
1.5698924731182795
1.5386119257087
1.5053763440860215
1.4731182795698925
1.4418377321603129
1.4115347018572826
1.3870967741935485
1.3665689149560116
1.3440860215053765
1.3206256109481915
1.2991202346041055
1.2776148582600195
1.2580645161290325
1.2404692082111437
1.2258064516129032
1.2150537634408602
1.2043010752688172
1.1935483870967742
1.18475073313783
1.1788856304985338
1.1749755620723363
1.1691104594330402
1.1622678396871946
1.1544477028347997
1.147605083088954
1.141739980449658
1.1378299120234605
1.1348973607038124
1.130987292277615
1.126099706744868
1.121212121212121
1.1192570869990224
1.118279569892473
1.115347018572825
1.110459433040078
1.1055718475073313
1.1006842619745845
1.0948191593352885
1.088954056695992
1.083088954056696
1.0762463343108504
1.0684261974584557
1.0606060606060606
1.056695992179863
1.053763440860215
1.0488758553274682
1.0420332355816226
1.035190615835777
1.029325513196481
1.024437927663734
1.0205278592375366
1.0175953079178883
1.0156402737047898
1.0146627565982405
1.0146627565982405
1.0146627565982405
1.0146627565982405
1.0146627565982405
1.0146627565982405
1.0146627565982405
1.0156402737047898
1.0263929618768328
1.0518084066471165
1.096774193548387
1.1681329423264908
1.2697947214076246
1.401759530791789
1.560117302052786
1.7126099706744868
1.8641251221896384
2.0391006842619745
2.217986314760508
2.386119257086999
2.5347018572825024
2.656891495601173
2.752688172043011
2.823069403714565
2.8690127077223853
2.895405669599218
2.905180840664712
2.9042033235581624
2.8914956011730206
2.870967741935484
2.8475073313782997
2.819159335288368
2.78494623655914
2.7438905180840663
2.6940371456500487
2.636363636363636
2.5698924731182795
2.495601173020528
2.4134897360703813
2.3255131964809386
2.244379276637341
2.1681329423264906
2.088954056695992
2.0127077223851417
1.945259042033236
1.8875855327468232
1.8387096774193548
1.7996089931573802
1.7683284457478006
1.7429130009775171
1.7204301075268815
1.6989247311827955
1.6764418377321604
1.6559139784946235
1.6363636363636365
1.6148582600195502
1.590420332355816
1.564027370478983
1.5356793743890518
1.504398826979472
1.4711632453567938
1.435972629521017
1.401759530791789
1.3685239491691104
1.3372434017595307
1.3128054740957966
1.29227761485826
1.2697947214076246
1.24633431085044
1.2238514173998043
1.203323558162268
1.1837732160312806
1.1652003910068427
1.1485826001955035
1.1348973607038124
1.1231671554252198
1.1124144672531768
1.1016617790811338
1.0948191593352885
1.088954056695992
1.0811339198435972
1.0733137829912025
1.0664711632453567
1.0596285434995112
1.0527859237536656
1.0449657869012707
1.0381231671554252
1.0303030303030305
1.0234604105571847
1.0175953079178883
1.0146627565982405
1.0146627565982405
1.013685239491691
1.010752688172043
1.0068426197458455
1.0019550342130987
0.997067448680352
0.9931573802541545
0.9990224828934506
1.0097751710654936
1.0127077223851415
1.0127077223851415
1.010752688172043
1.010752688172043
1.0117302052785924
1.010752688172043
1.0087976539589445
1.0068426197458455
1.0048875855327468
1.0039100684261977
1.0039100684261977
1.0039100684261977
1.0039100684261977
1.0048875855327468
1.007820136852395
1.0117302052785924
1.0146627565982405
1.0156402737047898
1.0166177908113392
1.0205278592375366
1.0312805474095796
1.053763440860215
1.0948191593352885
1.1622678396871946
1.260019550342131
1.3890518084066472
1.547409579667644
1.729227761485826
1.8973607038123168
2.056695992179863
2.232649071358749
2.404692082111437
2.560117302052786
2.69208211143695
2.7966764418377323
2.875855327468231
2.930596285434995
2.963831867057673
2.9804496578690127
2.98435972629521
2.9765395894428157
2.960899315738025
2.9423264907135875
2.920821114369501
2.8944281524926687
2.860215053763441
2.8181818181818183
2.7673509286412514
2.705767350928641
2.635386119257087
2.557184750733138
2.4731182795698925
2.3851417399804498
2.304985337243402
2.231671554252199
2.155425219941349
2.0840664711632453
2.0205278592375366
1.9667644183773216
1.921798631476051
1.8856304985337244
1.857282502443793
1.8328445747800584
1.8103616813294232
1.7888563049853372
1.76930596285435
1.7497556207233629
1.7272727272727273
1.7018572825024438
1.6744868035190617
1.6451612903225807
1.6148582600195502
1.5826001955034212
1.5503421309872922
1.5190615835777126
1.4887585532746823
1.4613880742913
1.435972629521017
1.41544477028348
1.396871945259042
1.3763440860215057
1.3548387096774193
1.3362658846529814
1.3186705767350928
1.3020527859237536
1.2854349951124144
1.2717497556207231
1.2609970674486803
1.2512218963831867
1.2424242424242424
1.2365591397849462
1.2326490713587488
1.2267839687194526
1.2209188660801564
1.217008797653959
1.2130987292277615
1.2111436950146628
1.2101661779081134
1.2111436950146628
1.2130987292277615
1.2160312805474096
1.2179863147605083
1.2209188660801564
1.224828934506354
1.2297165200391007
1.2326490713587488
1.2355816226783969
1.238514173998045
1.238514173998045
1.2365591397849462
1.23069403714565
1.2218963831867058
1.2111436950146628
1.203323558162268
1.203323558162268
1.2130987292277615
1.2365591397849462
1.2805474095796676
1.3509286412512218
1.447702834799609
1.5698924731182795
1.7135874877810362
1.870967741935484
2.0332355816226784
2.1915933528836757
2.3391984359726297
2.469208211143695
2.5650048875855327
2.6373411534701856
2.702834799608993
2.7565982404692084
2.7966764418377323
2.825024437927664
2.843597262952102
2.852394916911046
2.852394916911046
2.841642228739003
2.819159335288368
2.78494623655914
2.7370478983382207
2.681329423264907
2.6158357771261
2.533724340175953
2.4389051808406648
2.334310850439883
2.2248289345063537
2.114369501466276
2.006842619745845
1.9042033235581624
1.8103616813294232
1.7272727272727273
1.6588465298142718
1.6080156402737047
1.5708699902248289
1.5395894428152492
1.5161290322580645
1.498533724340176
1.4868035190615836
1.478005865102639
1.4682306940371457
1.458455522971652
1.4467253176930597
1.434017595307918
1.4213098729227762
1.4076246334310851
1.3949169110459434
1.383186705767351
1.367546432062561
1.3499511241446724
1.3304007820136852
1.310850439882698
1.2903225806451613
1.2697947214076246
1.2502443792766371
1.2316715542521994
1.2121212121212122
1.1925708699902249
1.1788856304985338
1.1681329423264908
1.1544477028347997
1.1397849462365592
1.1241446725317692
1.1094819159335287
1.0957966764418376
1.0821114369501466
1.0703812316715542
1.0596285434995112
1.0478983382209188
1.035190615835777
1.0234604105571847
1.0156402737047898
1.010752688172043
1.002932551319648
0.9951124144672532
0.9872922776148584
0.9794721407624634
0.9726295210166178
0.9657869012707724
0.9579667644183774
0.9521016617790812
0.946236559139785
0.9413489736070382
0.9403714565004888
0.9403714565004888
0.93841642228739
0.9364613880742912
0.935483870967742
0.935483870967742
0.9413489736070382
0.9579667644183774
0.9912023460410556
1.0478983382209188
1.133919843597263
1.2502443792766371
1.3949169110459434
1.5386119257087
1.6871945259042034
1.8631476050830889
2.047898338220919
2.2267839687194524
2.389051808406647
2.5288367546432062
2.643206256109482
2.729227761485826
2.789833822091887
2.8299120234604107
2.852394916911046
2.8582600195503423
2.8533724340175954
2.844574780058651
2.831867057673509
2.8132942326490715
2.7869012707722387
2.7517106549364616
2.70772238514174
2.6529814271749754
2.5865102639296187
2.509286412512219
2.421309872922776
2.3255131964809386
2.236559139784946
2.1515151515151514
2.060606060606061
1.9726295210166176
1.89247311827957
1.823069403714565
1.7653958944281525
1.7194525904203324
1.683284457478006
1.653958944281525
1.6285434995112416
1.606060606060606
1.5884652981427174
1.5728250244379276
1.5669599217986314
1.5650048875855327
1.5532746823069403
1.5347018572825024
1.512218963831867
1.4887585532746823
1.4643206256109482
1.4379276637341154
1.4105571847507332
1.3822091886608017
1.35386119257087
1.3304007820136852
1.3098729227761483
1.2864125122189638
1.262952101661779
1.2394916911045943
1.2179863147605083
1.1964809384164223
1.176930596285435
1.1583577712609971
1.1407624633431086
1.1251221896383188
1.1085043988269794
1.096774193548387
1.0879765395894427
1.078201368523949
1.0684261974584557
1.0586510263929618
1.0498533724340176
1.043010752688172
1.0371456500488758
1.0312805474095796
1.0263929618768328
1.0224828934506354
1.0195503421309873
1.0166177908113392
1.0156402737047898
1.0166177908113392
1.0146627565982405
1.010752688172043
1.007820136852395
1.0058651026392962
1.0039100684261977
1.002932551319648
1.0019550342130987
1.0009775171065494
1.0
0.9980449657869012
0.9980449657869012
0.9980449657869012
0.9960899315738024
0.9931573802541545
0.9912023460410556
0.9882697947214076
0.9863147605083088
0.9843597262952102
0.9833822091886608
0.9833822091886608
0.9833822091886608
0.9833822091886608
0.9843597262952102
0.989247311827957
0.9951124144672532
0.9990224828934506
1.0009775171065494
1.0019550342130987
1.0019550342130987
1.0019550342130987
1.0019550342130987
1.0019550342130987
1.0019550342130987
1.0019550342130987
1.0019550342130987
1.0048875855327468
1.0087976539589445
1.010752688172043
1.0117302052785924
1.0127077223851415
1.013685239491691
1.0195503421309873
1.035190615835777
1.067448680351906
1.1231671554252198
1.209188660801564
1.3304007820136852
1.458455522971652
1.6021505376344083
1.7859237536656891
1.9931573802541545
2.207233626588465
2.4164222873900294
2.6080156402737047
2.774193548387097
2.9120234604105573
3.0205278592375366
3.099706744868035
3.15347018572825
3.1847507331378297
3.1945259042033234
3.189638318670577
3.179863147605083
3.164222873900293
3.142717497556207
3.117302052785924
3.086021505376344
3.047898338220919
3.0
2.9423264907135875
2.873900293255132
2.795698924731183
2.717497556207233
2.638318670576735
2.5513196480938416
2.462365591397849
2.377321603128055
2.2991202346041058
2.2297165200391005
2.16911045943304
2.117302052785924
2.074291300097752
2.0391006842619745
2.0087976539589443
1.981427174975562
1.9579667644183771
1.935483870967742
1.9100684261974583
1.884652981427175
1.858260019550342
1.83088954056696
1.8025415444770283
1.7702834799608993
1.737047898338221
1.7018572825024438
1.6666666666666667
1.6304985337243405
1.5992179863147604
1.5718475073313782
1.542521994134897
1.5131964809384164
1.4838709677419355
1.455522971652004
1.4291300097751711
1.4056695992179864
1.3851417399804498
1.367546432062561
1.35386119257087
1.3421309872922775
1.3333333333333333
1.3284457478005864
1.324535679374389
1.3206256109481915
1.316715542521994
1.3118279569892473
1.3079178885630498
1.303030303030303
1.2991202346041055
1.295210166177908
1.2903225806451613
1.2854349951124144
1.2805474095796676
1.2776148582600195
1.2746823069403714
1.2697947214076246
1.262952101661779
1.2570869990224829
1.252199413489736
1.2482893450635386
1.2443792766373412
1.241446725317693
1.2394916911045943
1.2375366568914956
1.2336265884652982
1.2287390029325511
1.2267839687194526
1.224828934506354
1.219941348973607
1.2140762463343109
1.2082111436950147
1.2023460410557183
1.198435972629521
1.1964809384164223
1.195503421309873
1.1945259042033236
1.1945259042033236
1.1945259042033236
1.1964809384164223
1.1994134897360704
1.2003910068426198
1.2013685239491692
1.203323558162268
1.2043010752688172
1.2052785923753666
1.2072336265884651
1.2111436950146628
1.219941348973607
1.2394916911045943
1.2746823069403714
1.3313782991202343
1.3988269794721409
1.482893450635386
1.6011730205278591
1.7487781036168133
1.916911045943304
2.0957966764418376
2.275659824046921
2.44672531769306
2.60019550342131
2.730205278592375
2.834799608993157
2.9120234604105573
2.9579667644183774
2.9804496578690127
2.991202346041056
2.9902248289345064
2.979472140762464
2.960899315738025
2.9335288367546437
2.898338220918866
2.857282502443793
2.8103616813294234
2.7565982404692084
2.695014662756598
2.625610948191593
2.557184750733138
2.4887585532746823
2.412512218963832
2.3313782991202348
2.2502443792766376
2.1739980449657867
2.103616813294233
2.0410557184750733
1.9872922776148585
1.9423264907135875
1.906158357771261
1.87683284457478
1.8543499511241448
1.8347996089931573
1.81524926686217
1.7956989247311828
1.7741935483870968
1.7517106549364614
1.7272727272727273
1.7018572825024438
1.675464320625611
1.6471163245356797
1.6177908113391983
1.5865102639296187
1.555229716520039
1.5278592375366569
1.5034213098729228
1.4760508308895406
1.447702834799609
1.4203323558162269
1.393939393939394
1.367546432062561
1.3440860215053765
1.3196480938416422
1.2961876832844574
1.278592375366569
1.2639296187683284
1.2541544477028348
1.2473118279569892
1.2394916911045943
1.2316715542521994
1.2258064516129032
1.219941348973607
1.2150537634408602
1.2101661779081134
1.206256109481916
1.203323558162268
1.2023460410557183
1.2013685239491692
1.1994134897360704
1.1994134897360704
1.1994134897360704
1.1964809384164223
1.1915933528836755
1.1857282502443791
1.1779081133919844
1.1710654936461389
1.166177908113392
1.163245356793744
1.1612903225806452
1.160312805474096
1.1593352883675463
1.1593352883675463
1.160312805474096
1.1593352883675463
1.1573802541544478
1.1544477028347997
1.1515151515151516
1.1495601173020529
1.147605083088954
1.144672531769306
1.142717497556207
1.142717497556207
1.1436950146627567
1.144672531769306
1.147605083088954
1.1505376344086022
1.152492668621701
1.1534701857282503
1.1534701857282503
1.1544477028347997
1.155425219941349
1.1573802541544478
1.163245356793744
1.1788856304985338
1.2082111436950147
1.2570869990224829
1.316715542521994
1.3919843597262953
1.498533724340176
1.632453567937439
1.7878787878787878
1.9550342130987293
2.12316715542522
2.2844574780058653
2.4301075268817205
2.555229716520039
2.6578690127077222
2.736070381231672
2.78494623655914
2.8132942326490715
2.832844574780059
2.8406647116324537
2.8396871945259043
2.83088954056696
2.8152492668621703
2.793743890518084
2.766373411534702
2.7341153470185726
2.6959921798631474
2.650048875855328
2.595307917888563
2.5376344086021505
2.47702834799609
2.407624633431085
2.332355816226784
2.2561094819159337
2.1808406647116323
2.1094819159335287
2.0439882697947214
1.986314760508309
1.93841642228739
1.8993157380254155
1.8670576735092863
1.8435972629521016
1.825024437927664
1.8084066471163245
1.7927663734115349
1.7761485826001957
1.758553274682307
1.739980449657869
1.7194525904203324
1.6979472140762464
1.6744868035190617
1.6500488758553276
1.6236559139784943
1.5962854349951123
1.5718475073313782
1.5493646138807429
1.521994134897361
1.4936461388074291
1.4652981427174976
1.4379276637341154
1.4115347018572826
1.3861192570869991
1.3626588465298142
1.3421309872922775
1.324535679374389
1.3098729227761483
1.300097751710655
1.29227761485826
1.2825024437927663
1.2727272727272727
1.2649071358748778
1.2570869990224829
1.2502443792766371
1.2434017595307918
1.238514173998045
1.2346041055718475
1.2316715542521994
1.227761485826002
1.2238514173998043
1.2218963831867058
1.2209188660801564
1.2179863147605083
1.2130987292277615
1.2072336265884651
1.2013685239491692
1.195503421309873
1.1906158357771262
1.18475073313783
1.1779081133919844
1.1710654936461389
1.163245356793744
1.1593352883675463
1.1573802541544478
1.1544477028347997
1.1515151515151516
1.1495601173020529
1.147605083088954
1.144672531769306
1.142717497556207
1.1407624633431086
1.1378299120234605
1.133919843597263
1.1300097751710656
1.1270772238514175
1.1270772238514175
1.1290322580645162
1.1300097751710656
1.1319648093841643
1.1329423264907137
1.1319648093841643
1.130987292277615
1.1319648093841643
1.1368523949169111
1.152492668621701
1.1837732160312806
1.2365591397849462
1.3010752688172045
1.383186705767351
1.4965786901270772
1.635386119257087
1.7927663734115349
1.959921798631476
2.1251221896383186
2.280547409579668
2.419354838709677
2.5376344086021505
2.631476050830889
2.7008797653958942
2.748778103616813
2.774193548387097
2.782991202346041
2.78494623655914
2.782013685239492
2.7722385141739982
2.7565982404692084
2.736070381231672
2.7096774193548385
2.67644183773216
2.636363636363636
2.5884652981427174
2.5317693059628543
2.4731182795698925
2.4115347018572826
2.3411534701857284
2.264907135874878
2.188660801564027
2.113391984359726
2.042033235581622
1.9775171065493649
1.921798631476051
1.873900293255132
1.833822091886608
1.8025415444770283
1.7771260997067448
1.7575757575757576
1.7409579667644184
1.7233626588465298
1.7038123167155426
1.6842619745845553
1.6637341153470186
1.6412512218963833
1.616813294232649
1.590420332355816
1.563049853372434
1.5347018572825024
1.5063538611925709
1.4819159335288368
1.458455522971652
1.4320625610948192
1.404692082111437
1.3792766373411536
1.3548387096774193
1.332355816226784
1.3128054740957966
1.2961876832844574
1.2825024437927663
1.2697947214076246
1.260019550342131
1.2512218963831867
1.24633431085044
1.2424242424242424
1.2375366568914956
1.2326490713587488
1.227761485826002
1.2218963831867058
1.2150537634408602
1.2072336265884651
1.198435972629521
1.1906158357771262
1.1827956989247312
1.1749755620723363
1.1700879765395895
1.166177908113392
1.1612903225806452
1.155425219941349
1.1485826001955035
1.142717497556207
0.9882697947214076
0.989247311827957
0.9980449657869012
1.0195503421309873
1.0596285434995112
1.1241446725317692
1.2003910068426198
1.295210166177908
1.4281524926686218
1.5913978494623655
1.7761485826001957
1.970674486803519
2.164222873900293
2.345063538611926
2.504398826979472
2.638318670576735
2.745845552297165
2.8269794721407626
2.8836754643206257
2.913978494623656
2.9257086999022484
2.929618768328446
2.9266862170087977
2.916911045943304
2.902248289345064
2.881720430107527
2.855327468230694
2.823069403714565
2.782991202346041
2.7331378299120237
2.674486803519061
2.611925708699902
2.544477028347996
2.466275659824047
2.3812316715542523
2.2932551319648096
2.206256109481916
2.12316715542522
2.04594330400782
1.9775171065493649
1.9188660801564028
1.8699902248289344
1.8299120234604105
1.7996089931573802
1.7771260997067448
1.7595307917888563
1.7419354838709675
1.7243401759530792
1.7057673509286413
1.6842619745845553
1.6608015640273706
1.635386119257087
1.608993157380254
1.5806451612903225
1.552297165200391
1.52297165200391
1.4965786901270772
1.4711632453567938
1.4428152492668622
1.414467253176931
1.3870967741935485
1.359726295210166
1.3343108504398826
1.3118279569892473
1.289345063538612
1.2697947214076246
1.2512218963831867
1.2336265884652982
1.2189638318670577
1.2082111436950147
1.1994134897360704
1.1886608015640274
1.1788856304985338
1.1700879765395895
1.1622678396871946
1.1544477028347997
1.1466275659824048
1.1397849462365592
1.133919843597263
1.1290322580645162
1.1251221896383188
1.1251221896383188
1.126099706744868
1.1251221896383188
1.1231671554252198
1.1192570869990224
1.1143695014662756
1.1094819159335287
1.1065493646138806
1.1036168132942326
1.0987292277614855
1.0957966764418376
1.0928641251221896
1.0879765395894427
1.086021505376344
1.0850439882697946
1.0821114369501466
1.078201368523949
1.0733137829912025
1.0684261974584557
1.0635386119257086
1.0586510263929618
1.0557184750733135
1.0547409579667644
1.0547409579667644
1.0547409579667644
1.056695992179863
1.0596285434995112
1.06158357771261
1.0606060606060606
1.0586510263929618
1.056695992179863
1.0557184750733135
1.0557184750733135
1.0596285434995112
1.0733137829912025
1.1026392961876832
1.1534701857282503
1.2297165200391007
1.316715542521994
1.4203323558162269
1.5591397849462365
1.7253176930596286
1.90811339198436
2.0987292277614857
2.283479960899316
2.452590420332356
2.5992179863147604
2.718475073313783
2.809384164222874
2.8729227761485827
2.9071358748778104
2.919843597262952
2.924731182795699
2.921798631476051
2.9120234604105573
2.8944281524926687
2.8719452590420333
2.8455522971652005
2.814271749755621
2.776148582600196
2.730205278592375
2.675464320625611
2.610948191593353
2.544477028347996
2.474095796676442
2.3929618768328447
2.3069403714565007
2.218963831867057
2.133919843597263
2.056695992179863
1.9902248289345064
1.935483870967742
1.8914956011730208
1.8563049853372435
1.827956989247312
1.8074291300097751
1.7917888563049853
1.7781036168132942
1.7653958944281525
1.750733137829912
1.7341153470185728
1.7145650048875856
1.6920821114369502
1.6656891495601174
1.6344086021505375
1.5992179863147604
1.5610948191593352
1.521016617790811
1.4868035190615836
1.456500488758553
1.423264907135875
1.3900293255131966
1.3587487781036167
1.332355816226784
1.310850439882698
1.2932551319648091
1.2795698924731185
1.2697947214076246
1.262952101661779
1.2590420332355816
1.2580645161290325
1.260019550342131
1.2609970674486803
1.2619745845552297
1.2619745845552297
1.2619745845552297
1.2639296187683284
1.2668621700879763
1.2717497556207231
1.278592375366569
1.2873900293255132
1.2981427174975562
1.3088954056695992
1.3196480938416422
1.3284457478005864
1.3362658846529814
1.3411534701857282
1.3401759530791788
1.3343108504398826
1.3235581622678396
1.3098729227761483
1.2942326490713587
1.2756598240469208
1.2561094819159335
1.2365591397849462
1.2209188660801564
1.2072336265884651
1.1867057673509287
1.163245356793744
1.1368523949169111
1.10752688172043
1.0791788856304985
1.053763440860215
1.029325513196481
1.0058651026392962
0.9863147605083088
0.9696969696969696
0.956989247311828
0.9511241446725318
0.9511241446725318
0.9530791788856304
0.9579667644183774
0.967741935483871
0.9804496578690128
0.9980449657869012
1.0205278592375366
1.050830889540567
1.0928641251221896
1.1515151515151516
1.2336265884652982
1.3235581622678396
1.4291300097751711
1.56891495601173
1.7350928641251222
1.9178885630498532
2.1055718475073317
2.2883675464320627
2.455522971652004
2.5992179863147604
2.7282502443792764
2.833822091886608
2.9012707722385143
2.935483870967742
2.946236559139785
2.9442815249266863
2.9335288367546437
2.9149560117302054
2.89247311827957
2.865102639296188
2.833822091886608
2.7966764418377323
2.752688172043011
2.701857282502444
2.641251221896383
2.572825024437928
2.504398826979472
2.434017595307918
2.35386119257087
2.2668621700879767
2.176930596285435
2.0879765395894427
2.004887585532747
1.9296187683284456
1.8641251221896384
1.8103616813294232
1.7673509286412512
1.7341153470185728
1.7096774193548387
1.6911045943304008
1.6744868035190617
1.6578690127077225
1.640273704789834
1.6226783968719452
1.6041055718475072
1.5826001955034212
1.5581622678396871
1.5317693059628543
1.501466275659824
1.4682306940371457
1.434017595307918
1.4027370478983383
1.3743890518084063
1.3411534701857282
1.3069403714565004
1.2727272727272727
1.2404692082111437
1.2101661779081134
1.1827956989247312
1.1583577712609971
1.1378299120234605
1.121212121212121
1.1065493646138806
1.0977517106549364
1.0909090909090908
1.0821114369501466
1.072336265884653
1.0625610948191593
1.0527859237536656
1.0449657869012707
1.0381231671554252
1.032258064516129
1.0263929618768328
