ppg
1.1573802541544478
1.1505376344086022
1.1436950146627567
1.1378299120234605
1.133919843597263
1.1290322580645162
1.1231671554252198
1.1202346041055715
1.1192570869990224
1.115347018572825
1.1094819159335287
1.1026392961876832
1.0957966764418376
1.0899315738025417
1.0850439882697946
1.029325513196481
1.0342130987292275
1.0596285434995112
1.115347018572825
1.1896383186705768
1.2913000977517106
1.4418377321603129
1.6304985337243405
1.8406647116324533
2.0557184750733137
2.26197458455523
2.4457478005865103
2.6021505376344085
2.7262952101661777
2.8211143695014664
2.8885630498533725
2.9335288367546437
2.95405669599218
2.9589442815249267
2.956011730205278
2.945259042033236
2.929618768328446
2.9071358748778104
2.878787878787879
2.844574780058651
2.8044965786901277
2.758553274682307
2.70772238514174
2.6510263929618767
2.595307917888563
2.5376344086021505
2.4711632453567938
2.396871945259042
2.317693059628544
2.233626588465298
2.144672531769306
2.0527859237536656
1.9579667644183771
1.865102639296188
1.7771260997067448
1.6950146627565983
1.629521016617791
1.576735092864125
1.525904203323558
1.4809384164222874
1.4418377321603129
1.409579667644184
1.3841642228739004
1.3626588465298142
1.346041055718475
1.3333333333333333
1.321603128054741
1.3118279569892473
1.303030303030303
1.2971652003910068
1.29227761485826
1.2854349951124144
1.2776148582600195
1.2688172043010753
1.260019550342131
1.2502443792766371
1.238514173998045
1.2258064516129032
1.2121212121212122
1.1994134897360704
1.1857282502443791
1.1759530791788857
1.1691104594330402
1.1612903225806452
1.1505376344086022
1.13880742913001
1.1270772238514175
1.1163245356793745
1.104594330400782
1.0928641251221896
1.0840664711632453
1.0762463343108504
1.067448680351906
1.0596285434995112
1.056695992179863
1.0557184750733135
1.053763440860215
1.050830889540567
1.0488758553274682
1.0478983382209188
1.0469208211143697
1.04594330400782
1.0439882697947214
1.0410557184750733
1.0381231671554252
1.035190615835777
1.0342130987292275
1.0342130987292275
1.0332355816226784
1.0303030303030305
1.0263929618768328
1.0205278592375366
1.013685239491691
1.0097751710654936
1.013685239491691
1.035190615835777
1.0811339198435972
1.1593352883675463
1.270772238514174
1.391006842619746
1.521994134897361
1.683284457478006
1.8563049853372435
2.024437927663734
2.177908113391984
2.3088954056695994
2.4115347018572826
2.4858260019550342
2.535679374389052
2.5640273704789838
2.572825024437928
2.565982404692082
2.548387096774193
2.5249266862170088
2.495601173020528
2.4613880742913
2.423264907135875
2.380254154447703
2.333333333333333
2.281524926686217
2.225806451612903
2.163245356793744
2.0957966764418376
2.022482893450636
1.9530791788856303
1.8866080156402736
1.8113391984359728
1.7331378299120237
1.6559139784946235
1.5835777126099706
1.517106549364614
1.457478005865103
1.4056695992179864
1.3626588465298142
1.3284457478005864
1.3040078201368523
1.289345063538612
1.281524926686217
1.2756598240469208
1.2727272727272727
1.2717497556207231
1.2697947214076246
1.2668621700879763
1.2639296187683284
1.260019550342131
1.2570869990224829
1.2531769305962854
1.2482893450635386
1.2443792766373412
1.2424242424242424
1.2394916911045943
1.2336265884652982
1.2267839687194526
1.2189638318670577
1.209188660801564
1.1974584555229717
1.18475073313783
1.1720430107526882
1.160312805474096
1.1505376344086022
1.141739980449658
1.1368523949169111
1.1329423264907137
1.1280547409579669
1.1221896383186705
1.115347018572825
1.1094819159335287
1.1026392961876832
1.0977517106549364
1.0957966764418376
1.0948191593352885
1.093841642228739
1.093841642228739
1.0918866080156402
1.0909090909090908
1.0909090909090908
1.088954056695992
1.0879765395894427
1.0869990224828934
1.0869990224828934
1.0869990224828934
1.086021505376344
1.0840664711632453
1.0791788856304985
1.072336265884653
1.0635386119257086
1.0586510263929618
1.0606060606060606
1.072336265884653
1.1055718475073313
1.1700879765395895
1.2688172043010753
1.401759530791789
1.564027370478983
1.7468230694037146
1.9345063538611929
2.114369501466276
2.2766373411534704
2.4144672531769307
2.512218963831867
2.5806451612903225
2.636363636363636
2.674486803519061
2.696969696969697
2.704789833822092
2.699902248289345
2.675464320625611
2.6480938416422286
2.624633431085044
2.592375366568915
2.5532746823069403
2.512218963831867
2.469208211143695
2.421309872922776
2.367546432062561
2.30791788856305
2.243401759530792
2.1739980449657867
2.099706744868035
2.0205278592375366
1.935483870967742
1.8465298142717497
1.7556207233626588
1.6627565982404693
1.5835777126099706
1.5131964809384164
1.439882697947214
1.370478983382209
1.3079178885630498
1.2531769305962854
1.3450635386119256
1.3391984359726294
1.3333333333333333
1.3294232649071358
1.3264907135874875
1.3206256109481915
1.3128054740957966
1.3040078201368523
1.295210166177908
1.2854349951124144
1.2756598240469208
1.2658846529814272
1.2551319648093842
1.2443792766373412
1.2336265884652982
1.2267839687194526
1.2218963831867058
1.2160312805474096
1.2101661779081134
1.2052785923753666
1.2003910068426198
1.1964809384164223
1.1925708699902249
1.1867057673509287
1.1808406647116323
1.1759530791788857
1.1720430107526882
1.1691104594330402
1.1700879765395895
1.1720430107526882
1.1720430107526882
1.1720430107526882
1.1720430107526882
1.1720430107526882
1.1720430107526882
1.1720430107526882
1.1720430107526882
1.1720430107526882
1.1466275659824048
1.1094819159335287
1.0928641251221896
1.0879765395894427
1.0850439882697946
1.0850439882697946
1.086021505376344
1.0879765395894427
1.0918866080156402
1.0948191593352885
1.0957966764418376
1.0957966764418376
1.0928641251221896
1.088954056695992
1.088954056695992
1.099706744868035
1.1270772238514175
1.1857282502443791
1.2834799608993157
1.4242424242424243
1.607038123167155
1.8201368523949168
2.050830889540567
2.283479960899316
2.5024437927663734
2.6989247311827955
2.866080156402737
2.9872922776148583
3.0762463343108504
3.15347018572825
3.2130987292277613
3.254154447702835
3.278592375366569
3.2873900293255134
3.2844574780058653
3.270772238514174
3.251221896383187
3.2248289345063537
3.1915933528836757
3.15347018572825
3.112414467253177
3.067448680351906
3.0175953079178885
2.962854349951124
2.900293255131965
2.8299120234604107
2.752688172043011
2.668621700879765
2.5777126099706744
2.4809384164222874
2.3792766373411536
2.275659824046921
2.1837732160312804
2.0977517106549364
2.006842619745845
1.9178885630498532
1.836754643206256
1.7653958944281525
1.7038123167155426
1.651026392961877
1.6080156402737047
1.573802541544477
1.5464320625610948
1.5249266862170088
1.5063538611925709
1.4926686217008798
1.4819159335288368
1.4701857282502444
1.458455522971652
1.4457478005865103
1.4320625610948192
1.418377321603128
1.4027370478983383
1.3851417399804498
1.3685239491691104
1.3528836754643203
1.33822091886608
1.327468230694037
1.3176930596285434
1.305962854349951
1.2932551319648091
1.2795698924731185
1.2658846529814272
1.2512218963831867
1.2365591397849462
1.2218963831867058
1.2082111436950147
1.1964809384164223
1.18475073313783
1.173998044965787
1.1671554252199414
1.1612903225806452
1.1544477028347997
1.147605083088954
1.1397849462365592
1.133919843597263
1.1290322580645162
1.1251221896383188
1.1202346041055715
1.115347018572825
1.110459433040078
1.10752688172043
1.1085043988269794
1.1114369501466277
1.1133919843597262
1.1143695014662756
1.1143695014662756
1.1143695014662756
1.1133919843597262
1.110459433040078
1.10752688172043
1.1085043988269794
1.1192570869990224
1.1495601173020529
1.1945259042033236
1.262952101661779
1.3714565004887584
1.5180840664711632
1.6959921798631477
1.8934506353861196
2.0977517106549364
2.294232649071359
2.472140762463343
2.6265884652981426
2.7536656891495603
2.852394916911046
2.924731182795699
2.967741935483871
2.989247311827957
3.0
3.0
2.988269794721408
2.9657869012707723
2.936461388074292
2.903225806451613
2.865102639296188
2.8211143695014664
2.7722385141739982
2.718475073313783
2.6637341153470184
2.606060606060606
2.5386119257087
2.462365591397849
2.3792766373411536
2.290322580645161
2.1974584555229715
2.102639296187683
2.007820136852395
1.916911045943304
1.828934506353861
1.7468230694037146
1.672531769305963
1.6138807429130009
1.5669599217986314
1.521994134897361
1.482893450635386
1.452590420332356
1.4291300097751711
1.4115347018572826
1.396871945259042
1.3861192570869991
1.3792766373411536
1.3714565004887584
1.364613880742913
1.3607038123167154
1.356793743890518
1.3509286412512218
1.3440860215053765
1.3362658846529814
1.3264907135874875
1.313782991202346
1.300097751710655
1.2864125122189638
1.2727272727272727
1.2580645161290325
1.2443792766373412
1.2336265884652982
1.227761485826002
1.2238514173998043
1.2179863147605083
1.2101661779081134
1.2023460410557183
1.1945259042033236
1.1857282502443791
1.1779081133919844
1.1700879765395895
1.1612903225806452
1.1534701857282503
1.1456500488758554
1.1397849462365592
1.1368523949169111
1.133919843597263
1.130987292277615
1.1270772238514175
1.1251221896383188
1.1241446725317692
1.1231671554252198
1.1231671554252198
1.1231671554252198
1.1231671554252198
1.1231671554252198
1.1221896383186705
1.121212121212121
1.1192570869990224
1.1124144672531768
1.1055718475073313
1.1065493646138806
1.1251221896383188
1.1700879765395895
1.252199413489736
1.375366568914956
1.5356793743890518
1.7253176930596286
1.9345063538611929
2.120234604105572
2.286412512218964
2.4604105571847508
2.621700879765396
2.7595307917888565
2.870967741935484
2.956989247311828
3.0205278592375366
3.065493646138808
3.093841642228739
3.1094819159335287
3.112414467253177
3.104594330400782
3.085043988269794
3.0576735092864125
3.027370478983382
2.9931573802541545
2.956011730205278
2.9149560117302054
2.868035190615836
2.814271749755621
2.7536656891495603
2.686217008797654
2.6099706744868034
2.525904203323558
2.444770283479961
2.364613880742913
2.2737047898338223
2.175953079178885
2.0772238514174
1.981427174975562
1.889540566959922
1.804496578690127
1.7282502443792769
1.66177908113392
1.6050830889540566
1.5581622678396871
1.521016617790811
1.4936461388074291
1.4760508308895406
1.4613880742913
1.4486803519061584
1.4105571847507332
1.359726295210166
1.3294232649071358
1.3088954056695992
1.2942326490713587
1.281524926686217
1.270772238514174
1.260019550342131
1.252199413489736
1.24633431085044
1.2375366568914956
1.2267839687194526
1.2160312805474096
1.206256109481916
1.195503421309873
1.1837732160312806
1.1710654936461389
1.1593352883675463
1.1485826001955035
1.1368523949169111
1.126099706744868
1.1192570869990224
1.1143695014662756
1.1065493646138806
1.0977517106549364
1.088954056695992
1.0791788856304985
1.0694037145650048
1.0596285434995112
1.050830889540567
1.043010752688172
1.0361681329423265
1.029325513196481
1.0273704789833822
1.0283479960899315
1.029325513196481
1.0312805474095796
1.0332355816226784
1.0361681329423265
1.040078201368524
1.043010752688172
1.0439882697947214
1.0439882697947214
1.0410557184750733
1.0381231671554252
1.0381231671554252
1.0439882697947214
1.0606060606060606
1.096774193548387
1.160312805474096
1.2570869990224829
1.388074291300098
1.5483870967741935
1.7282502443792769
1.9159335288367547
2.0987292277614857
2.2658846529814274
2.4115347018572826
2.5180840664711632
2.5943304007820136
2.659824046920821
2.708699902248289
2.7419354838709675
2.7595307917888565
2.763440860215054
2.755620723362659
2.7390029325513194
2.7145650048875853
2.684261974584555
2.6510263929618767
2.613880742913001
2.573802541544477
2.530791788856305
2.482893450635386
2.429130009775171
2.3685239491691106
2.302052785923754
2.2297165200391005
2.1515151515151514
2.0684261974584555
1.981427174975562
1.8914956011730208
1.8035190615835777
1.7282502443792769
1.6627565982404693
1.5962854349951123
1.5347018572825024
1.478983382209189
1.4320625610948192
1.393939393939394
1.3626588465298142
1.3372434017595307
1.316715542521994
1.3010752688172045
1.2883675464320623
1.2805474095796676
1.2746823069403714
1.267839687194526
1.2609970674486803
1.2531769305962854
1.24633431085044
1.238514173998045
1.2287390029325511
1.2189638318670577
1.209188660801564
1.1994134897360704
1.1896383186705768
1.1808406647116323
1.1749755620723363
1.1681329423264908
1.1593352883675463
1.1505376344086022
1.13880742913001
1.126099706744868
1.1143695014662756
1.1036168132942326
1.0928641251221896
1.083088954056696
1.0733137829912025
1.0635386119257086
1.056695992179863
1.0527859237536656
1.0488758553274682
1.0469208211143697
1.04594330400782
1.04594330400782
1.04594330400782
1.0449657869012707
1.0439882697947214
1.043010752688172
1.043010752688172
1.043010752688172
1.043010752688172
1.0439882697947214
1.04594330400782
1.04594330400782
1.0449657869012707
1.0420332355816226
1.0381231671554252
1.0361681329423265
1.0391006842619743
1.0547409579667644
1.0909090909090908
1.1564027370478984
1.2580645161290325
1.3714565004887584
1.501466275659824
1.667644183773216
1.8523949169110456
2.0391006842619745
2.21505376344086
2.3714565004887587
2.5034213098729228
2.610948191593353
2.6940371456500487
2.7565982404692084
2.7996089931573804
2.8260019550342133
2.8367546432062563
2.834799608993157
2.8289345063538613
2.8181818181818183
2.801564027370479
2.780058651026393
2.7536656891495603
2.7223851417399803
2.687194525904203
2.6471163245356792
2.6021505376344085
2.5513196480938416
2.4995112414467253
2.443792766373412
2.3792766373411536
2.3069403714565007
2.2277614858260018
2.1436950146627565
2.056695992179863
1.9696969696969695
1.884652981427175
1.8005865102639296
1.7204301075268815
1.6480938416422288
1.5826001955034212
1.530791788856305
1.490713587487781
1.4545454545454546
1.4222873900293256
1.3949169110459434
1.3734115347018572
1.356793743890518
1.3440860215053765
1.332355816226784
1.321603128054741
1.3118279569892473
1.3020527859237536
1.295210166177908
1.289345063538612
1.281524926686217
1.270772238514174
1.2580645161290325
1.2453567937438903
1.2326490713587488
1.219941348973607
1.2072336265884651
1.1935483870967742
1.1788856304985338
1.1652003910068427
1.1534701857282503
1.1456500488758554
1.1397849462365592
1.1319648093841643
1.1231671554252198
1.1143695014662756
1.104594330400782
1.0957966764418376
1.086021505376344
1.0762463343108504
1.0664711632453567
1.0576735092864125
1.050830889540567
1.0478983382209188
1.0478983382209188
1.0469208211143697
1.0449657869012707
1.0439882697947214
1.0420332355816226
1.040078201368524
1.0381231671554252
1.0371456500488758
1.0361681329423265
2.7722385141739982
2.7966764418377323
2.8299120234604107
2.8299120234604107
2.811339198435973
2.7810361681329425
2.7438905180840663
2.7008797653958942
2.6529814271749754
2.598240469208211
2.5376344086021505
2.4711632453567938
2.396871945259042
2.315738025415445
2.2297165200391005
2.1495601173020527
2.072336265884653
1.9853372434017595
1.895405669599218
1.8074291300097751
1.7223851417399805
1.643206256109482
1.5718475073313782
1.5102639296187683
1.458455522971652
1.414467253176931
1.380254154447703
1.3548387096774193
1.3391984359726294
1.3284457478005864
1.3176930596285434
1.3079178885630498
1.2991202346041055
1.289345063538612
1.278592375366569
1.2688172043010753
1.2590420332355816
1.2502443792766371
1.2424242424242424
1.2336265884652982
1.2258064516129032
1.2179863147605083
1.2072336265884651
1.1945259042033236
1.1779081133919844
1.1612903225806452
1.1456500488758554
1.130987292277615
1.1173020527859236
1.1055718475073313
1.093841642228739
1.083088954056696
1.072336265884653
1.0654936461388074
1.0596285434995112
1.0518084066471165
1.043010752688172
1.035190615835777
1.029325513196481
1.024437927663734
1.021505376344086
1.0195503421309873
1.018572825024438
1.018572825024438
1.018572825024438
1.0205278592375366
1.024437927663734
1.0263929618768328
1.0273704789833822
1.0283479960899315
1.029325513196481
1.029325513196481
1.029325513196481
1.0273704789833822
1.024437927663734
1.024437927663734
1.0342130987292275
1.0557184750733135
1.096774193548387
1.1700879765395895
1.281524926686217
1.4301075268817205
1.6099706744868034
1.8084066471163245
2.013685239491691
2.212121212121212
2.3919843597262958
2.549364613880743
2.679374389051808
2.782013685239492
2.850439882697948
2.895405669599218
2.932551319648094
2.9579667644183774
2.9716520039100685
2.9745845552297165
2.9687194525904204
2.9530791788856305
2.929618768328446
2.8993157380254155
2.8641251221896384
2.825024437927664
2.78494623655914
2.740957966764418
2.69208211143695
2.6373411534701856
2.575757575757576
2.50733137829912
2.432062561094819
2.3489736070381237
2.2580645161290325
2.1622678396871944
2.065493646138808
1.9696969696969695
1.87683284457478
1.7976539589442817
1.7302052785923754
1.6637341153470186
1.6011730205278591
1.5454545454545454
1.498533724340176
1.4604105571847508
1.4301075268817205
1.4066471163245358
1.388074291300098
1.3734115347018572
1.3616813294232648
1.3528836754643203
1.346041055718475
1.3372434017595307
1.3264907135874875
1.3147605083088951
1.3020527859237536
1.2873900293255132
1.270772238514174
1.2561094819159335
1.2443792766373412
1.23069403714565
1.217008797653959
1.203323558162268
1.1935483870967742
1.18475073313783
1.1720430107526882
1.1583577712609971
1.1436950146627567
1.1290322580645162
1.1163245356793745
1.104594330400782
1.093841642228739
1.083088954056696
1.072336265884653
1.06158357771261
1.0547409579667644
1.0488758553274682
1.0410557184750733
1.0332355816226784
1.0263929618768328
1.0224828934506354
1.0205278592375366
1.0195503421309873
1.018572825024438
1.018572825024438
1.018572825024438
1.018572825024438
1.018572825024438
1.0205278592375366
1.024437927663734
1.0254154447702837
1.0234604105571847
1.018572825024438
1.0146627565982405
1.0166177908113392
1.0303030303030305
1.0654936461388074
1.1300097751710656
1.2326490713587488
1.3734115347018572
1.5180840664711632
1.6715542521994136
1.855327468230694
2.046920821114369
2.231671554252199
2.398826979472141
2.541544477028348
2.6559139784946235
2.744868035190616
2.8103616813294234
2.854349951124145
2.8807429130009776
2.89247311827957
2.889540566959922
2.87683284457478
2.859237536656892
2.835777126099707
2.807429130009776
2.7751710654936463
2.7370478983382207
2.6930596285435
2.644183773216031
2.5884652981427174
2.525904203323558
2.4565004887585533
2.3870967741935485
2.317693059628544
2.236559139784946
2.1485826001955037
2.053763440860215
1.956989247311828
1.8621700879765395
1.7712609970674489
1.686217008797654
1.6099706744868034
1.543499511241447
1.4887585532746823
1.4437927663734116
1.4105571847507332
1.3861192570869991
1.364613880742913
1.346041055718475
1.332355816226784
1.3196480938416422
1.3079178885630498
1.2971652003910068
1.2864125122189638
1.2766373411534702
1.267839687194526
1.2590420332355816
1.252199413489736
1.2473118279569892
1.241446725317693
1.2336265884652982
1.2218963831867058
1.209188660801564
1.1964809384164223
1.1827956989247312
1.1691104594330402
1.155425219941349
1.1436950146627567
1.1319648093841643
1.1202346041055715
1.1124144672531768
1.1065493646138806
1.0977517106549364
1.0879765395894427
1.0772238514173995
1.0654936461388074
1.0527859237536656
1.0420332355816226
1.0332355816226784
1.0254154447702837
1.0175953079178883
1.010752688172043
1.0068426197458455
1.0048875855327468
1.0009775171065494
0.9951124144672532
0.989247311827957
0.9882697947214076
0.9931573802541545
0.9941348973607038
0.9941348973607038
0.9931573802541545
0.9902248289345064
0.9853372434017597
0.978494623655914
0.9765395894428152
0.9794721407624634
0.9882697947214076
1.013685239491691
1.064516129032258
1.1505376344086022
1.2746823069403714
1.4349951124144673
1.6226783968719452
1.825024437927664
2.0283479960899315
2.219941348973607
2.3714565004887587
2.4916911045943304
2.603128054740958
2.697947214076246
2.773216031280548
2.8289345063538613
2.865102639296188
2.886608015640274
2.8963831867057674
2.8944281524926687
2.884652981427175
2.8690127077223853
2.84652981427175
2.8181818181818183
2.7859237536656893
2.747800586510264
2.704789833822092
2.6559139784946235
2.60019550342131
2.5376344086021505
2.4682306940371457
2.391006842619746
2.30791788856305
2.219941348973607
2.129032258064516
2.04594330400782
1.9667644183773216
1.881720430107527
1.796676441837732
1.7165200391006843
1.6441837732160314
1.581622678396872
1.5278592375366569
1.482893450635386
1.444770283479961
1.414467253176931
1.391006842619746
1.3763440860215057
1.3655913978494625
1.3558162267839686
1.3450635386119256
1.3343108504398826
1.3235581622678396
1.313782991202346
1.3020527859237536
1.2883675464320623
1.2746823069403714
1.2619745845552297
1.2502443792766371
1.2394916911045943
1.23069403714565
1.2228739002932552
1.2111436950146628
1.198435972629521
1.1857282502443791
1.1730205278592376
1.1612903225806452
1.1495601173020529
1.13880742913001
1.1280547409579669
1.1173020527859236
1.10752688172043
1.1006842619745845
1.096774193548387
1.0918866080156402
1.0850439882697946
1.078201368523949
1.0713587487781036
1.0654936461388074
1.0596285434995112
1.0547409579667644
1.0518084066471165
1.0478983382209188
1.0449657869012707
1.0439882697947214
1.0449657869012707
1.0478983382209188
1.0488758553274682
1.0498533724340176
1.0518084066471165
1.0518084066471165
1.0498533724340176
1.04594330400782
1.043010752688172
1.0439882697947214
1.0547409579667644
1.086021505376344
1.1348973607038124
1.2082111436950147
1.3206256109481915
1.469208211143695
1.6451612903225807
1.8377321603128052
2.0332355816226784
2.2218963831867056
2.393939393939394
2.5434995112414467
2.6666666666666665
2.7624633431085046
2.831867057673509
2.8719452590420333
2.89247311827957
2.905180840664712
2.909090909090909
2.9042033235581624
2.89345063538612
2.87683284457478
2.854349951124145
2.8269794721407626
2.793743890518084
2.7546432062561097
2.7096774193548385
2.66177908113392
2.611925708699902
2.5562072336265884
2.4916911045943304
2.418377321603128
2.337243401759531
2.2502443792766376
2.1593352883675463
2.0664711632453567
1.9726295210166176
1.8807429130009776
1.7927663734115349
1.710654936461388
1.6441837732160314
1.590420332355816
1.5376344086021505
1.490713587487781
1.4506353861192571
1.418377321603128
1.393939393939394
1.3773216031280548
1.3665689149560116
1.359726295210166
1.3528836754643203
1.3440860215053765
1.3372434017595307
1.3304007820136852
1.321603128054741
1.3128054740957966
1.3020527859237536
1.2903225806451613
1.278592375366569
1.2658846529814272
1.252199413489736
1.238514173998045
1.224828934506354
1.2111436950146628
1.1964809384164223
1.1857282502443791
1.176930596285435
1.166177908113392
1.1564027370478984
1.1456500488758554
1.1348973607038124
1.1241446725317692
1.1143695014662756
1.1036168132942326
1.0928641251221896
1.0840664711632453
1.078201368523949
1.0762463343108504
1.0762463343108504
1.075268817204301
1.075268817204301
1.075268817204301
1.075268817204301
1.0742913000977516
1.0713587487781036
1.0684261974584557
1.0654936461388074
1.0625610948191593
1.0606060606060606
1.0596285434995112
1.0625610948191593
1.0654936461388074
1.0654936461388074
1.06158357771261
1.0557184750733135
1.050830889540567
1.050830889540567
1.064516129032258
1.1006842619745845
1.1691104594330402
1.2746823069403714
1.4173998044965788
1.564027370478983
1.7174975562072337
1.900293255131965
2.089931573802541
2.269794721407625
2.43108504398827
2.565982404692082
2.6725317693059627
2.752688172043011
2.8084066471163247
2.844574780058651
2.865102639296188
