ppg
1.2346041055718475
1.2355816226783969
1.2316715542521994
1.2228739002932552
1.2101661779081134
1.1945259042033236
1.1759530791788857
1.1564027370478984
1.1368523949169111
1.1163245356793745
1.096774193548387
1.083088954056696
1.0733137829912025
1.06158357771261
1.0478983382209188
1.0342130987292275
1.021505376344086
1.0097751710654936
0.9980449657869012
0.989247311827957
0.9833822091886608
0.9794721407624634
0.975562072336266
0.9726295210166178
0.9726295210166178
0.9736070381231672
0.9736070381231672
0.9736070381231672
0.9736070381231672
0.9745845552297164
0.975562072336266
0.9765395894428152
0.978494623655914
0.9794721407624634
0.981427174975562
0.9833822091886608
0.9863147605083088
0.9912023460410556
0.9941348973607038
0.9960899315738024
0.9990224828934506
1.0009775171065494
1.0019550342130987
1.002932551319648
1.002932551319648
1.0019550342130987
0.9990224828934506
0.9951124144672532
0.9912023460410556
0.9902248289345064
0.9902248289345064
0.9912023460410556
1.0
1.0234604105571847
1.0684261974584557
1.1407624633431086
1.2453567937438903
1.3822091886608017
1.5454545454545454
1.729227761485826
1.9227761485826005
2.09188660801564
2.241446725317693
2.3958944281524928
2.5386119257087
2.6608015640273703
2.760508308895406
2.835777126099707
2.8885630498533725
2.919843597262952
2.932551319648094
2.9315738025415445
2.919843597262952
2.8993157380254155
2.8719452590420333
2.838709677419355
2.8025415444770285
2.7653958944281527
2.7262952101661777
2.686217008797654
2.644183773216031
2.60019550342131
2.555229716520039
2.5083088954056696
2.4594330400782014
2.406647116324536
2.3548387096774195
2.300097751710655
2.2375366568914954
2.1681329423264906
2.090909090909091
2.007820136852395
1.920821114369501
1.8328445747800584
1.7458455522971652
1.6637341153470186
1.5894428152492668
1.5268817204301075
1.4760508308895406
1.4408602150537635
1.4164222873900294
1.3978494623655917
1.3851417399804498
1.3782991202346042
1.3763440860215057
1.3782991202346042
1.3812316715542523
1.3822091886608017
1.383186705767351
1.3822091886608017
1.3773216031280548
1.3724340175953078
1.3655913978494625
1.35386119257087
1.33822091886608
1.3196480938416422
1.2981427174975562
1.2746823069403714
1.252199413489736
1.2316715542521994
1.2121212121212122
1.1935483870967742
1.176930596285435
1.1622678396871946
1.152492668621701
1.1466275659824048
1.13880742913001
1.130987292277615
1.1231671554252198
1.1163245356793745
1.110459433040078
1.1065493646138806
1.1026392961876832
1.099706744868035
1.096774193548387
1.093841642228739
1.0928641251221896
1.0928641251221896
1.0918866080156402
1.0899315738025417
1.0869990224828934
1.0840664711632453
1.083088954056696
1.0821114369501466
1.0821114369501466
1.083088954056696
1.0850439882697946
1.0879765395894427
1.0899315738025417
1.0928641251221896
1.0957966764418376
1.0977517106549364
1.0977517106549364
1.096774193548387
1.0948191593352885
1.0928641251221896
1.0909090909090908
1.088954056695992
1.0879765395894427
1.086021505376344
1.0850439882697946
1.086021505376344
1.0909090909090908
1.099706744868035
1.121212121212121
1.163245356793744
1.2316715542521994
1.3313782991202343
1.4633431085043989
1.624633431085044
1.8064516129032255
1.997067448680352
2.1867057673509285
2.343108504398827
2.4731182795698925
2.603128054740958
2.763440860215054
2.844574780058651
2.9012707722385143
2.9501466275659824
2.956989247311828
2.949169110459433
2.9315738025415445
2.9120234604105573
2.889540566959922
2.859237536656892
2.825024437927664
2.7869012707722387
2.745845552297165
2.701857282502444
2.6559139784946235
2.608993157380254
2.560117302052786
2.5102639296187683
2.458455522971652
2.404692082111437
2.3499511241446727
2.2961876832844577
2.2404692082111435
2.174975562072336
2.101661779081134
2.021505376344086
1.935483870967742
1.847507331378299
1.7605083088954057
1.6774193548387095
1.6011730205278591
1.5347018572825024
1.478983382209189
1.435972629521017
1.4086021505376345
1.393939393939394
1.3851417399804498
1.383186705767351
1.3851417399804498
1.3890518084066472
1.392961876832845
1.3958944281524928
1.3958944281524928
1.3919843597262953
1.3861192570869991
1.3782991202346042
1.370478983382209
1.3616813294232648
1.3499511241446724
1.3343108504398826
1.316715542521994
1.2873900293255132
1.267839687194526
1.2482893450635386
1.2218963831867058
1.206256109481916
1.1935483870967742
1.1827956989247312
1.1759530791788857
1.1720430107526882
1.1691104594330402
1.166177908113392
1.164222873900293
1.163245356793744
1.164222873900293
1.1671554252199414
1.1730205278592376
1.1779081133919844
1.1837732160312806
1.1964809384164223
1.2013685239491692
1.206256109481916
1.2130987292277615
1.217008797653959
1.2189638318670577
1.2218963831867058
1.224828934506354
1.2287390029325511
1.2336265884652982
1.238514173998045
1.2434017595307918
1.2482893450635386
1.2531769305962854
1.2570869990224829
1.260019550342131
1.262952101661779
1.2668621700879763
1.270772238514174
1.273704789833822
1.2766373411534702
1.2776148582600195
1.278592375366569
1.2825024437927663
1.289345063538612
1.3040078201368523
1.3333333333333333
1.3841642228739004
1.4604105571847508
1.565982404692082
1.6989247311827955
1.8563049853372435
2.027370478983382
2.2023460410557183
2.372434017595308
2.5288367546432062
2.665689149560117
2.7653958944281527
2.835777126099707
2.897360703812317
2.9442815249266863
2.973607038123167
2.986314760508309
2.983382209188661
2.967741935483871
2.9423264907135875
2.911045943304008
2.875855327468231
2.8396871945259043
2.801564027370479
2.7624633431085046
2.7223851417399803
2.681329423264907
2.6392961876832843
2.5962854349951123
2.5513196480938416
2.504398826979472
2.4545454545454546
2.39980449657869
2.3411534701857284
2.27761485826002
2.2082111436950145
2.1417399804496577
2.0733137829912023
1.9931573802541545
1.906158357771261
1.8162267839687196
1.7253176930596286
1.6383186705767352
1.5571847507331378
1.4858260019550342
1.4252199413489737
1.3773216031280548
1.3401759530791788
1.3157380254154447
1.3020527859237536
1.295210166177908
1.2932551319648091
1.2942326490713587
1.295210166177908
1.295210166177908
1.2932551319648091
1.2903225806451613
1.2854349951124144
1.2776148582600195
1.2668621700879763
1.2512218963831867
1.2375366568914956
1.2228739002932552
1.203323558162268
1.1798631476050832
1.155425219941349
1.130987292277615
1.1065493646138806
1.083088954056696
1.0606060606060606
1.0410557184750733
1.024437927663734
1.0087976539589445
0.9980449657869012
0.9902248289345064
0.981427174975562
0.9726295210166178
0.9638318670576737
0.9560117302052786
0.9511241446725318
0.9472140762463344
0.9433040078201368
0.9403714565004888
0.9374389051808406
0.9345063538611924
0.9315738025415444
0.9325513196480938
0.935483870967742
0.9374389051808406
0.9403714565004888
0.9433040078201368
0.946236559139785
0.9481915933528836
0.9481915933528836
0.9472140762463344
0.9452590420332356
0.9423264907135877
0.9393939393939394
0.9393939393939394
0.9423264907135877
0.9433040078201368
0.9433040078201368
0.9413489736070382
0.9393939393939394
0.9364613880742912
0.9335288367546432
0.9286412512218964
0.9247311827956988
0.9247311827956988
0.9335288367546432
0.959921798631476
1.0
1.0596285434995112
1.1515151515151516
1.2756598240469208
1.4301075268817205
1.607038123167155
1.796676441837732
1.9872922776148585
2.1681329423264906
2.3313782991202348
2.4711632453567938
2.5855327468230693
2.6637341153470184
2.7145650048875853
2.7546432062561097
2.7810361681329425
2.7947214076246336
2.795698924731183
2.7859237536656893
2.7673509286412514
2.7438905180840663
2.7155425219941347
2.684261974584555
2.6510263929618767
2.616813294232649
2.581622678396872
2.5454545454545454
2.5083088954056696
2.469208211143695
2.4271749755620724
2.3822091886608017
2.333333333333333
2.280547409579668
2.2218963831867056
2.158357771260997
2.089931573802541
2.016617790811339
1.946236559139785
1.87683284457478
1.7986314760508308
1.718475073313783
1.640273704789834
1.5698924731182795
1.5083088954056696
1.457478005865103
1.418377321603128
1.391006842619746
1.3743890518084063
1.3665689149560116
1.3655913978494625
1.3685239491691104
1.3734115347018572
1.3773216031280548
1.3792766373411536
1.3958944281524928
1.418377321603128
1.426197458455523
1.4252199413489737
1.418377321603128
1.4066471163245358
1.391006842619746
1.3724340175953078
1.356793743890518
1.3411534701857282
1.3235581622678396
1.3049853372434017
1.2873900293255132
1.270772238514174
1.2561094819159335
1.241446725317693
1.2287390029325511
1.2179863147605083
1.2082111436950147
1.1994134897360704
1.1935483870967742
1.1886608015640274
1.1837732160312806
1.1808406647116323
1.1788856304985338
1.1779081133919844
1.1779081133919844
1.1779081133919844
1.1779081133919844
1.1779081133919844
1.1779081133919844
1.1779081133919844
1.1788856304985338
1.181818181818182
1.1857282502443791
1.1896383186705768
1.1925708699902249
1.1945259042033236
1.195503421309873
1.1964809384164223
1.198435972629521
1.1994134897360704
1.2003910068426198
1.2003910068426198
1.2003910068426198
1.2013685239491692
1.203323558162268
1.2043010752688172
1.2052785923753666
1.2043010752688172
1.2023460410557183
1.2003910068426198
1.198435972629521
1.1994134897360704
1.206256109481916
1.224828934506354
1.2619745845552297
1.3235581622678396
1.396871945259042
1.487781036168133
1.6138807429130009
1.7673509286412512
1.9393939393939397
2.1192570869990224
2.2952101661779083
2.458455522971652
2.6021505376344085
2.721407624633431
2.814271749755621
2.881720430107527
2.919843597262952
2.935483870967742
2.941348973607038
2.936461388074292
2.921798631476051
2.8993157380254155
2.870967741935484
2.8377321603128056
2.803519061583578
2.7673509286412514
2.729227761485826
2.6901270772238512
2.650048875855328
2.611925708699902
2.573802541544477
2.532746823069404
2.489736070381232
2.444770283479961
2.396871945259042
2.3440860215053765
2.286412512218964
2.222873900293255
2.15347018572825
2.0791788856304985
2.0
1.927663734115347
1.8592375366568916
1.7849462365591398
1.7116324535679377
1.6441837732160314
1.585532746823069
1.5386119257087
1.5024437927663734
1.4760508308895406
1.4594330400782014
1.4506353861192571
1.4467253176930597
1.4467253176930597
1.4486803519061584
1.4506353861192571
1.4516129032258065
1.4506353861192571
1.447702834799609
1.4418377321603129
1.43108504398827
1.4173998044965788
1.4007820136852396
1.383186705767351
1.364613880742913
1.3450635386119256
1.3294232649071358
1.3157380254154447
1.300097751710655
1.2834799608993157
1.267839687194526
1.2531769305962854
1.238514173998045
1.224828934506354
1.2121212121212122
1.1994134897360704
1.1896383186705768
1.181818181818182
1.1749755620723363
1.1720430107526882
1.1710654936461389
1.1691104594330402
1.1671554252199414
1.1652003910068427
1.163245356793744
1.1622678396871946
1.1612903225806452
1.1612903225806452
1.1612903225806452
1.1612903225806452
1.1612903225806452
1.163245356793744
1.166177908113392
1.1681329423264908
1.1700879765395895
1.1720430107526882
1.1749755620723363
1.1779081133919844
1.1788856304985338
1.1798631476050832
1.1798631476050832
1.1798631476050832
1.1798631476050832
1.1798631476050832
1.181818181818182
1.1827956989247312
1.181818181818182
1.1808406647116323
1.1808406647116323
1.181818181818182
1.187683284457478
1.2023460410557183
1.2316715542521994
1.2825024437927663
1.3607038123167154
1.4672531769305963
1.5796676441837731
1.7028347996089932
1.857282502443793
2.027370478983382
2.20039100684262
2.366568914956012
2.517106549364614
2.6471163245356792
2.7517106549364616
2.831867057673509
2.8885630498533725
2.9237536656891496
2.941348973607038
2.941348973607038
2.9286412512218964
2.9100684261974585
2.8856304985337244
2.8582600195503423
2.827956989247312
2.7947214076246336
2.7614858260019552
2.727272727272727
2.69208211143695
2.654936461388074
2.6158357771261
2.576735092864125
2.535679374389052
2.490713587487781
2.442815249266862
2.3900293255131966
2.333333333333333
2.270772238514174
2.203323558162268
2.1309872922776147
2.053763440860215
1.9736070381231672
1.89247311827957
1.8211143695014664
1.7556207233626588
1.6881720430107527
1.624633431085044
1.5679374389051808
1.521016617790811
1.4868035190615836
1.4643206256109482
1.452590420332356
1.4486803519061584
1.4496578690127078
1.452590420332356
1.455522971652004
1.457478005865103
1.458455522971652
1.455522971652004
1.4496578690127078
1.4418377321603129
1.43108504398827
1.4173998044965788
1.3998044965786902
1.380254154447703
1.3587487781036167
1.3372434017595307
1.3147605083088951
1.2971652003910068
1.2834799608993157
1.2688172043010753
1.252199413489736
1.2355816226783969
1.2179863147605083
1.2023460410557183
1.1886608015640274
1.1759530791788857
1.164222873900293
1.152492668621701
1.141739980449658
1.130987292277615
1.1241446725317692
1.1192570869990224
1.1124144672531768
1.104594330400782
1.096774193548387
1.088954056695992
1.0821114369501466
1.075268817204301
1.0694037145650048
1.064516129032258
1.0596285434995112
1.0420332355816226
1.021505376344086
1.010752688172043
1.0019550342130987
0.9931573802541545
0.9853372434017597
0.978494623655914
0.9726295210166178
0.967741935483871
0.9638318670576737
0.9589442815249268
0.9550342130987292
0.9511241446725318
0.946236559139785
0.9442815249266864
0.9442815249266864
0.9403714565004888
0.935483870967742
0.9335288367546432
0.9403714565004888
0.9628543499511242
1.0097751710654936
1.086021505376344
1.1945259042033236
1.3333333333333333
1.4965786901270772
1.651026392961877
1.7996089931573802
1.9657869012707725
2.1300097751710654
2.2795698924731185
2.407624633431085
2.5112414467253177
2.587487781036168
2.6402737047898337
2.6695992179863146
2.681329423264907
2.678396871945259
2.664711632453568
2.6422287390029324
2.6148582600195502
2.58455522971652
2.552297165200391
2.5190615835777126
2.4838709677419355
2.4486803519061584
2.4134897360703813
2.377321603128055
2.3391984359726297
2.3010752688172045
2.260019550342131
2.220918866080156
2.1808406647116323
2.133919843597263
2.081133919843597
2.021505376344086
1.9550342130987293
1.881720430107527
1.8025415444770283
1.718475073313783
1.632453567937439
1.5483870967741935
1.469208211143695
1.4007820136852396
1.3499511241446724
1.3128054740957966
1.2805474095796676
1.2580645161290325
1.24633431085044
1.2424242424242424
1.2453567937438903
1.252199413489736
1.2619745845552297
1.270772238514174
1.278592375366569
1.2834799608993157
1.2864125122189638
1.2873900293255132
1.2834799608993157
1.2746823069403714
1.262952101661779
1.2482893450635386
1.2336265884652982
1.2160312805474096
1.1974584555229717
1.1779081133919844
1.160312805474096
1.144672531769306
1.1300097751710656
1.1202346041055715
1.1133919843597262
1.1036168132942326
1.0928641251221896
1.083088954056696
1.075268817204301
1.0684261974584557
1.0625610948191593
1.056695992179863
1.050830889540567
1.0469208211143697
1.043010752688172
1.0420332355816226
1.0420332355816226
1.0410557184750733
1.0391006842619743
1.0381231671554252
1.0391006842619743
1.0410557184750733
1.043010752688172
1.0439882697947214
1.0439882697947214
1.0439882697947214
1.0439882697947214
1.0439882697947214
1.04594330400782
1.0498533724340176
1.0518084066471165
1.0527859237536656
1.0527859237536656
1.0527859237536656
1.0527859237536656
1.0518084066471165
1.0488758553274682
1.04594330400782
1.0420332355816226
1.0381231671554252
1.0371456500488758
1.040078201368524
1.0469208211143697
1.0664711632453567
1.10752688172043
1.1749755620723363
1.2746823069403714
1.4056695992179864
1.563049853372434
1.7419354838709675
1.932551319648094
2.124144672531769
2.304985337243402
2.447702834799609
2.5591397849462365
2.66177908113392
2.745845552297165
2.809384164222874
2.8514173998044967
2.873900293255132
2.8807429130009776
2.874877810361681
2.8582600195503423
2.832844574780059
2.801564027370479
2.766373411534702
2.729227761485826
2.6901270772238512
2.6510263929618767
2.613880742913001
2.576735092864125
2.539589442815249
2.501466275659824
2.462365591397849
2.419354838709677
2.3714565004887587
2.318670576735093
2.2658846529814274
2.2111436950146626
2.147605083088954
2.0762463343108504
1.997067448680352
1.9130009775171064
1.825024437927664
1.7380254154447703
1.6549364613880744
1.5806451612903225
1.517106549364614
1.4652981427174976
1.426197458455523
1.4007820136852396
1.3861192570869991
1.3782991202346042
1.3763440860215057
1.3792766373411536
1.3851417399804498
1.3919843597262953
1.3988269794721409
1.4027370478983383
1.4037145650048877
1.401759530791789
1.3958944281524928
1.3890518084066472
1.380254154447703
1.3665689149560116
1.348973607038123
1.3304007820136852
1.310850439882698
1.2903225806451613
1.2697947214076246
1.249266862170088
1.2287390029325511
1.209188660801564
1.1915933528836755
1.1749755620723363
1.163245356793744
1.1534701857282503
1.1436950146627567
1.1358748778103618
1.1290322580645162
1.1221896383186705
1.1163245356793745
1.1124144672531768
1.1085043988269794
1.1055718475073313
1.1026392961876832
1.1006842619745845
1.1016617790811338
1.104594330400782
1.1055718475073313
1.1065493646138806
1.1065493646138806
1.1065493646138806
1.1065493646138806
1.1065493646138806
1.1065493646138806
1.1065493646138806
1.1065493646138806
1.1065493646138806
1.1065493646138806
1.1085043988269794
1.1124144672531768
1.1143695014662756
1.115347018572825
1.115347018572825
1.115347018572825
1.115347018572825
1.115347018572825
1.1143695014662756
1.110459433040078
1.10752688172043
1.10752688172043
1.115347018572825
1.1348973607038124
1.1710654936461389
1.2326490713587488
1.324535679374389
1.447702834799609
1.5992179863147604
1.772238514173998
1.9560117302052784
2.1407624633431084
2.317693059628544
2.4780058651026398
2.613880742913001
2.710654936461388
2.7781036168132944
2.832844574780059
2.8719452590420333
2.89247311827957
2.918866080156403
2.943304007820137
2.941348973607038
2.924731182795699
2.8993157380254155
2.8670576735092865
2.83088954056696
2.792766373411535
2.752688172043011
2.710654936461388
2.6695992179863146
2.6285434995112413
2.5884652981427174
2.547409579667644
2.504398826979472
2.458455522971652
2.406647116324536
2.347996089931574
2.2825024437927666
2.212121212121212
2.145650048875855
2.0791788856304985
2.003910068426197
1.9227761485826005
1.839687194525904
1.7605083088954057
1.6871945259042034
1.6217008797653958
1.56891495601173
1.530791788856305
1.5053763440860215
1.4916911045943304
1.487781036168133
1.4887585532746823
1.4936461388074291
1.500488758553275
1.5073313782991202
1.5141739980449658
1.521016617790811
1.525904203323558
1.5268817204301075
1.52297165200391
1.5151515151515151
1.504398826979472
1.490713587487781
1.478005865102639
1.4652981427174976
1.4506353861192571
1.4349951124144673
1.4193548387096775
1.4027370478983383
1.3861192570869991
1.3695014662756595
1.3548387096774193
1.3421309872922775
1.3294232649071358
1.3176930596285434
1.310850439882698
1.3069403714565004
1.3040078201368523
1.3010752688172045
1.2981427174975562
1.295210166177908
1.29227761485826
1.289345063538612
1.2873900293255132
1.2864125122189638
1.2873900293255132
1.289345063538612
1.29227761485826
1.2961876832844574
1.3010752688172045
1.305962854349951
1.3118279569892473
1.3176930596285434
1.3225806451612905
1.3264907135874875
1.3294232649071358
1.332355816226784
1.3333333333333333
1.3343108504398826
1.3343108504398826
1.3362658846529814
1.33822091886608
1.3391984359726294
1.3401759530791788
1.3401759530791788
1.3401759530791788
1.3391984359726294
1.33822091886608
1.33822091886608
1.3391984359726294
1.346041055718475
1.3655913978494625
1.4037145650048877
1.452590420332356
1.521016617790811
1.6226783968719452
1.75366568914956
1.9071358748778104
2.074291300097752
2.244379276637341
2.407624633431085
2.5542521994134897
2.678396871945259
2.7781036168132944
2.854349951124145
2.902248289345064
2.9266862170087977
2.940371456500489
2.941348973607038
2.9315738025415445
2.9120234604105573
2.8856304985337244
2.8533724340175954
2.817204301075269
2.779081133919844
2.740957966764418
2.7008797653958942
2.6608015640273703
2.622678396871945
2.5855327468230693
2.548387096774193
2.509286412512219
2.4682306940371457
2.4222873900293256
2.3714565004887587
2.3167155425219943
2.2561094819159337
2.189638318670577
2.117302052785924
2.0391006842619745
1.9657869012707725
1.8934506353861196
1.8113391984359728
1.726295210166178
1.6441837732160314
1.56891495601173
1.5053763440860215
1.4535679374389052
1.414467253176931
1.3870967741935485
1.370478983382209
1.3616813294232648
1.3607038123167154
1.3655913978494625
1.3734115347018572
1.3812316715542523
1.3870967741935485
1.391006842619746
1.391006842619746
1.388074291300098
1.3822091886608017
1.3734115347018572
1.3616813294232648
1.3479960899315735
1.3313782991202343
1.3176930596285434
1.3049853372434017
1.2883675464320623
1.2688172043010753
1.2502443792766371
1.2336265884652982
1.2189638318670577
1.2052785923753666
1.1906158357771262
1.176930596285435
1.164222873900293
1.1515151515151516
1.142717497556207
1.1368523949169111
1.1280547409579669
1.1192570869990224
1.110459433040078
1.1016617790811338
1.093841642228739
1.0879765395894427
1.0821114369501466
1.0762463343108504
1.0713587487781036
1.067448680351906
1.0635386119257086
1.0635386119257086
1.0664711632453567
1.0684261974584557
1.0703812316715542
1.0733137829912025
1.0742913000977516
1.0733137829912025
1.0713587487781036
1.0684261974584557
1.064516129032258
1.0606060606060606
1.0576735092864125
1.0576735092864125
1.0596285434995112
1.0596285434995112
1.0586510263929618
1.0547409579667644
1.0488758553274682
1.043010752688172
1.0410557184750733
1.0498533724340176
1.0742913000977516
1.1221896383186705
1.198435972629521
1.3069403714565004
1.4242424242424243
1.5532746823069403
1.7165200391006843
1.8993157380254155
2.085043988269794
2.260997067448681
2.4173998044965788
2.5513196480938416
2.659824046920821
2.742913000977517
2.801564027370479
2.8367546432062563
2.850439882697948
2.8475073313782997
2.8377321603128056
2.820136852394917
2.7966764418377323
2.76930596285435
2.7390029325513194
2.705767350928641
2.6715542521994133
2.6373411534701856
2.603128054740958
2.5669599217986314
2.530791788856305
2.496578690127077
1.4418377321603129
1.4408602150537635
1.4379276637341154
1.43108504398827
1.4203323558162269
1.4066471163245358
1.3890518084066472
1.370478983382209
1.3499511241446724
1.3294232649071358
1.3079178885630498
1.2913000977517106
1.278592375366569
1.2639296187683284
1.2482893450635386
1.2316715542521994
1.2160312805474096
1.2013685239491692
1.1886608015640274
1.1788856304985338
1.1710654936461389
1.163245356793744
1.1573802541544478
1.152492668621701
1.1515151515151516
1.1534701857282503
1.1534701857282503
1.152492668621701
1.1515151515151516
1.1495601173020529
1.1485826001955035
1.147605083088954
1.147605083088954
1.147605083088954
1.147605083088954
1.147605083088954
1.1495601173020529
1.152492668621701
1.1544477028347997
1.155425219941349
1.155425219941349
1.155425219941349
1.155425219941349
1.155425219941349
1.155425219941349
1.155425219941349
1.155425219941349
1.155425219941349
1.155425219941349
1.1573802541544478
1.1583577712609971
1.155425219941349
1.152492668621701
1.1534701857282503
1.173998044965787
1.2013685239491692
1.2346041055718475
1.2991202346041055
1.396871945259042
1.5268817204301075
1.6852394916911049
1.8377321603128052
1.988269794721408
2.161290322580645
2.337243401759531
2.501466275659824
2.64613880742913
2.766373411534702
2.860215053763441
