ppg
1.06158357771261
1.064516129032258
1.0654936461388074
1.064516129032258
1.0635386119257086
1.06158357771261
1.0586510263929618
1.056695992179863
1.053763440860215
1.050830889540567
1.0488758553274682
1.04594330400782
1.0449657869012707
1.0469208211143697
1.050830889540567
1.053763440860215
1.0557184750733135
1.056695992179863
1.0576735092864125
1.0576735092864125
1.056695992179863
1.056695992179863
1.0576735092864125
1.0576735092864125
1.0586510263929618
1.06158357771261
1.064516129032258
1.0654936461388074
1.0654936461388074
1.0654936461388074
1.0664711632453567
1.072336265884653
1.0850439882697946
1.1114369501466277
1.1544477028347997
1.2179863147605083
1.3069403714565004
1.401759530791789
1.5083088954056696
1.6451612903225807
1.801564027370479
1.967741935483871
2.136852394916911
2.300097751710655
2.450635386119257
2.5855327468230693
2.7008797653958942
2.7947214076246336
2.8670576735092865
2.919843597262952
2.949169110459433
2.960899315738025
2.9667644183773216
2.964809384164223
2.95405669599218
2.935483870967742
2.909090909090909
2.875855327468231
2.835777126099707
2.789833822091887
2.73802541544477
2.678396871945259
2.6177908113391983
2.555229716520039
2.482893450635386
2.4027370478983383
2.3196480938416424
2.2375366568914954
2.158357771260997
2.0821114369501466
2.013685239491691
1.9550342130987293
1.905180840664712
1.8631476050830889
1.827956989247312
1.8005865102639296
1.7781036168132942
1.7565982404692082
1.7350928641251222
1.7135874877810362
1.6911045943304008
1.667644183773216
1.643206256109482
1.616813294232649
1.587487781036168
1.5571847507331378
1.5249266862170088
1.4965786901270772
1.4721407624633431
1.4428152492668622
1.412512218963832
1.383186705767351
1.3528836754643203
1.3235581622678396
1.2961876832844574
1.2697947214076246
1.2443792766373412
1.2218963831867058
1.2013685239491692
1.1827956989247312
1.1700879765395895
1.1612903225806452
1.1515151515151516
1.1407624633431086
1.130987292277615
1.1202346041055715
1.1094819159335287
1.099706744868035
1.0899315738025417
1.0811339198435972
1.0742913000977516
1.0694037145650048
1.067448680351906
1.067448680351906
1.0664711632453567
1.0654936461388074
1.064516129032258
1.064516129032258
1.0635386119257086
1.06158357771261
1.0586510263929618
1.056695992179863
1.053763440860215
1.050830889540567
1.0488758553274682
1.0488758553274682
1.0498533724340176
1.0488758553274682
1.0478983382209188
1.04594330400782
1.0449657869012707
1.0449657869012707
1.04594330400782
1.0469208211143697
1.0478983382209188
1.0498533724340176
1.050830889540567
1.0527859237536656
1.056695992179863
1.0576735092864125
1.056695992179863
1.0557184750733135
1.053763440860215
1.050830889540567
1.0488758553274682
1.0488758553274682
1.0498533724340176
1.0518084066471165
1.0547409579667644
1.0596285434995112
1.0684261974584557
1.0821114369501466
1.1055718475073313
1.1436950146627567
1.2013685239491692
1.2805474095796676
1.3822091886608017
1.5073313782991202
1.651026392961877
1.8084066471163245
1.9716520039100685
2.134897360703812
2.271749755620724
2.389051808406647
2.5102639296187683
2.621700879765396
2.717497556207233
2.793743890518084
2.852394916911046
2.89247311827957
2.9159335288367547
2.924731182795699
2.9227761485826003
2.9120234604105573
2.8914956011730206
2.863147605083089
2.8289345063538613
2.788856304985337
2.7419354838709675
2.6881720430107525
2.627565982404692
2.560117302052786
2.486803519061584
2.4086021505376345
2.3274682306940373
2.24633431085044
2.166177908113392
2.096774193548387
2.037145650048876
1.978494623655914
1.9237536656891496
1.87683284457478
1.8377321603128052
1.804496578690127
1.7761485826001957
1.7517106549364614
1.7282502443792769
1.704789833822092
1.6813294232649072
1.6588465298142718
1.6392961876832846
1.619745845552297
1.5962854349951123
1.5698924731182795
1.542521994134897
1.5131964809384164
1.482893450635386
1.4506353861192571
1.418377321603128
1.3851417399804498
1.3519061583577712
1.3206256109481915
1.2961876832844574
1.2746823069403714
1.252199413489736
1.2287390029325511
1.206256109481916
1.1857282502443791
1.1671554252199414
1.1505376344086022
1.1368523949169111
1.1251221896383188
1.1133919843597262
1.1026392961876832
1.0918866080156402
1.0850439882697946
1.0791788856304985
1.072336265884653
1.0654936461388074
1.0596285434995112
1.0557184750733135
1.0518084066471165
1.0381231671554252
1.0195503421309873
1.0097751710654936
1.0039100684261977
1.0
1.0
1.0009775171065494
1.0
0.9980449657869012
0.9960899315738024
0.9931573802541545
0.9912023460410556
0.9882697947214076
0.9853372434017597
0.9824046920821116
0.9804496578690128
0.9775171065493646
0.9745845552297164
0.9745845552297164
0.9765395894428152
0.9775171065493646
0.9775171065493646
0.9775171065493646
0.9775171065493646
0.9765395894428152
0.975562072336266
0.9745845552297164
0.9736070381231672
0.9716520039100685
0.9696969696969696
0.9696969696969696
0.9706744868035192
0.9706744868035192
0.9687194525904204
0.967741935483871
0.9687194525904204
0.9726295210166178
0.9824046920821116
1.0009775171065494
1.0332355816226784
1.083088954056696
1.1534701857282503
1.23069403714565
1.321603128054741
1.4428152492668622
1.587487781036168
1.7487781036168133
1.919843597262952
2.090909090909091
2.2561094819159337
2.409579667644184
2.5454545454545454
2.6608015640273703
2.7546432062561097
2.8269794721407626
2.8719452590420333
2.8963831867057674
2.913000977517106
2.920821114369501
2.917888563049853
2.9042033235581624
2.8826979472140764
2.854349951124145
2.8181818181818183
2.773216031280548
2.720430107526881
2.659824046920821
2.598240469208211
2.5347018572825024
2.463343108504399
2.386119257086999
2.3059628543499517
2.225806451612903
2.1485826001955037
2.075268817204301
2.0087976539589443
1.949169110459433
1.8993157380254155
1.858260019550342
1.825024437927664
1.7986314760508308
1.7771260997067448
1.7575757575757576
1.737047898338221
1.7165200391006843
1.6959921798631477
1.6735092864125125
1.6490713587487782
1.6226783968719452
1.595307917888563
1.5669599217986314
1.5376344086021505
1.5112414467253177
1.4848484848484849
1.4545454545454546
1.423264907135875
1.3919843597262953
1.359726295210166
1.3284457478005864
1.2991202346041055
1.270772238514174
1.2434017595307918
1.2189638318670577
1.1974584555229717
1.1779081133919844
1.1622678396871946
1.1505376344086022
1.1378299120234605
1.1251221896383188
1.115347018572825
1.10752688172043
1.1016617790811338
1.096774193548387
1.0918866080156402
1.0879765395894427
1.0850439882697946
1.0821114369501466
1.0821114369501466
1.083088954056696
1.0840664711632453
1.0840664711632453
1.083088954056696
1.0811339198435972
1.0791788856304985
1.0772238514173995
1.0742913000977516
1.0694037145650048
1.0664711632453567
1.0635386119257086
1.0606060606060606
1.0606060606060606
1.0625610948191593
1.0625610948191593
1.06158357771261
1.0596285434995112
1.0576735092864125
1.0557184750733135
1.0527859237536656
1.0498533724340176
1.0469208211143697
1.0439882697947214
1.0420332355816226
1.0420332355816226
1.043010752688172
1.043010752688172
1.0420332355816226
1.040078201368524
1.0381231671554252
1.035190615835777
1.032258064516129
1.029325513196481
1.0273704789833822
1.0263929618768328
1.0254154447702837
1.0273704789833822
1.0342130987292275
1.0469208211143697
1.0684261974584557
1.1026392961876832
1.1544477028347997
1.2287390029325511
1.327468230694037
1.4496578690127078
1.595307917888563
1.758553274682307
1.9315738025415443
2.10752688172043
2.2561094819159337
2.386119257086999
2.520039100684262
2.644183773216031
2.752688172043011
2.841642228739003
2.909090909090909
2.9579667644183774
2.9902248289345064
3.006842619745845
3.0117302052785924
3.006842619745845
2.992179863147605
2.9687194525904204
2.9374389051808407
2.9012707722385143
2.8582600195503423
2.8084066471163247
2.750733137829912
2.687194525904203
2.6177908113391983
2.541544477028348
2.4613880742913
2.378299120234604
2.294232649071359
2.218963831867057
2.1485826001955037
2.0772238514174
2.010752688172043
1.951124144672532
1.8983382209188664
1.8533724340175952
1.8162267839687196
1.7859237536656891
1.7595307917888563
1.7341153470185728
1.7086999022482894
1.6842619745845553
1.6627565982404693
1.6412512218963833
1.6177908113391983
1.5913978494623655
1.564027370478983
1.5356793743890518
1.5053763440860215
1.4731182795698925
1.4408602150537635
1.4066471163245358
1.3724340175953078
1.3391984359726294
1.3118279569892473
1.289345063538612
1.2649071358748778
1.2394916911045943
1.2160312805474096
1.1945259042033236
1.1749755620723363
1.1564027370478984
1.13880742913001
1.1231671554252198
1.1085043988269794
1.0957966764418376
1.0840664711632453
1.0762463343108504
1.0713587487781036
1.0654936461388074
1.0596285434995112
1.0547409579667644
1.0488758553274682
1.0439882697947214
1.0488758553274682
1.0498533724340176
1.050830889540567
1.0527859237536656
1.053763440860215
1.056695992179863
1.0596285434995112
1.0606060606060606
1.0596285434995112
1.0586510263929618
1.0586510263929618
1.0596285434995112
1.064516129032258
1.0762463343108504
1.0977517106549364
1.1348973607038124
1.1925708699902249
1.2590420332355816
1.33822091886608
1.4467253176930597
1.581622678396872
1.7350928641251222
1.9012707722385145
2.072336265884653
2.2385141739980448
2.393939393939394
2.532746823069404
2.6529814271749754
2.752688172043011
2.831867057673509
2.881720430107527
2.9100684261974585
2.932551319648094
2.9442815249266863
2.946236559139785
2.9393939393939394
2.9237536656891496
2.900293255131965
2.868035190615836
2.8299120234604107
2.7859237536656893
2.7341153470185726
2.6803519061583576
2.6236559139784945
2.558162267839687
2.484848484848485
2.4056695992179864
2.32355816226784
2.241446725317693
2.1622678396871944
2.0879765395894427
2.0195503421309877
1.9589442815249267
1.906158357771261
1.8602150537634408
1.8240469208211143
1.7956989247311828
1.76930596285435
1.7458455522971652
1.7243401759530792
1.704789833822092
1.6842619745845553
1.6608015640273706
1.6344086021505375
1.607038123167155
1.576735092864125
1.544477028347996
1.517106549364614
1.4926686217008798
1.4643206256109482
1.4349951124144673
1.4066471163245358
1.3773216031280548
1.348973607038123
1.3206256109481915
1.2932551319648091
1.2668621700879763
1.241446725317693
1.2189638318670577
1.1994134897360704
1.1837732160312806
1.1710654936461389
1.1564027370478984
1.141739980449658
1.1280547409579669
1.1163245356793745
1.1055718475073313
1.0948191593352885
1.0850439882697946
1.078201368523949
1.072336265884653
1.0664711632453567
1.0635386119257086
1.06158357771261
1.0586510263929618
1.056695992179863
1.053763440860215
1.050830889540567
1.0488758553274682
1.0469208211143697
1.0469208211143697
1.0469208211143697
1.0449657869012707
1.043010752688172
1.0410557184750733
1.040078201368524
1.040078201368524
1.0391006842619743
1.0371456500488758
1.035190615835777
1.0332355816226784
1.0303030303030305
1.029325513196481
1.029325513196481
1.0283479960899315
1.0263929618768328
1.024437927663734
1.0254154447702837
1.0273704789833822
1.0283479960899315
1.0283479960899315
1.0263929618768328
1.0254154447702837
1.024437927663734
1.024437927663734
1.024437927663734
1.0234604105571847
1.0234604105571847
1.0234604105571847
1.024437927663734
1.0283479960899315
1.0361681329423265
1.0488758553274682
1.0713587487781036
1.1085043988269794
1.163245356793744
1.241446725317693
1.343108504398827
1.4672531769305963
1.6109481915933528
1.76930596285435
1.9364613880742916
2.081133919843597
2.210166177908113
2.347018572825025
2.4780058651026398
2.593352883675464
2.689149560117302
2.7653958944281527
2.823069403714565
2.86217008797654
2.8856304985337244
2.8963831867057674
2.8944281524926687
2.8836754643206257
2.863147605083089
2.835777126099707
2.8025415444770285
2.7624633431085046
2.716520039100684
2.664711632453568
2.6070381231671558
2.541544477028348
2.469208211143695
2.3929618768328447
2.313782991202346
2.233626588465298
2.164222873900293
2.1006842619745845
2.037145650048876
1.978494623655914
1.9257086999022484
1.8797653958944285
1.8406647116324533
1.8084066471163245
1.7810361681329423
1.7565982404692082
1.7350928641251222
1.7135874877810362
1.6911045943304008
1.6705767350928642
1.6490713587487782
1.624633431085044
1.5962854349951123
1.5669599217986314
1.5356793743890518
1.504398826979472
1.4731182795698925
1.4418377321603129
1.4105571847507332
1.3792766373411536
1.3479960899315735
1.3225806451612905
1.3010752688172045
1.2776148582600195
1.2531769305962854
1.2297165200391007
1.2072336265884651
1.1867057673509287
1.1671554252199414
1.1495601173020529
1.1329423264907137
1.1173020527859236
1.104594330400782
1.0928641251221896
1.0850439882697946
1.0791788856304985
1.072336265884653
1.0664711632453567
1.06158357771261
1.0576735092864125
1.0547409579667644
1.0518084066471165
1.0498533724340176
1.0478983382209188
1.04594330400782
1.0439882697947214
1.04594330400782
1.0488758553274682
1.0488758553274682
1.0478983382209188
1.04594330400782
1.043010752688172
1.0410557184750733
1.0381231671554252
1.035190615835777
1.0332355816226784
1.0303030303030305
1.0273704789833822
1.0273704789833822
1.029325513196481
1.029325513196481
1.029325513196481
1.0303030303030305
1.0312805474095796
1.0312805474095796
1.032258064516129
1.032258064516129
1.0312805474095796
1.029325513196481
1.0273704789833822
1.0254154447702837
1.0273704789833822
1.0303030303030305
1.0312805474095796
1.0332355816226784
1.0342130987292275
1.0361681329423265
1.0391006842619743
1.0449657869012707
1.050830889540567
1.0664711632453567
1.099706744868035
1.1544477028347997
1.2189638318670577
1.2991202346041055
1.4105571847507332
1.5464320625610948
1.7018572825024438
1.8699902248289344
2.043010752688172
2.2140762463343107
2.376344086021505
2.52297165200391
2.650048875855328
2.7565982404692084
2.841642228739003
2.8963831867057674
2.9286412512218964
2.951124144672532
2.962854349951124
2.963831867057673
2.9550342130987293
2.9374389051808407
2.911045943304008
2.877810361681329
2.838709677419355
2.792766373411535
2.739980449657869
2.6852394916911044
2.6265884652981426
2.5591397849462365
2.484848484848485
2.406647116324536
2.326490713587488
2.2453567937438903
2.167155425219941
2.093841642228739
2.027370478983382
1.967741935483871
1.9159335288367547
1.8729227761485825
1.8406647116324533
1.81524926686217
1.7917888563049853
1.7712609970674489
1.750733137829912
1.7302052785923754
1.7086999022482894
1.6852394916911049
1.6608015640273706
1.6344086021505375
1.6050830889540566
1.5757575757575757
1.5503421309872922
1.5249266862170088
1.495601173020528
1.4652981427174976
1.4330400782013686
1.401759530791789
1.3714565004887584
1.3411534701857282
1.3118279569892473
1.284457478005865
1.2590420332355816
1.2346041055718475
1.2121212121212122
1.195503421309873
1.181818181818182
1.1671554252199414
1.1534701857282503
1.1397849462365592
1.1290322580645162
1.121212121212121
1.1143695014662756
1.1085043988269794
1.1026392961876832
1.0977517106549364
1.0918866080156402
1.088954056695992
1.0879765395894427
1.0869990224828934
1.086021505376344
1.0840664711632453
1.083088954056696
1.0811339198435972
1.078201368523949
1.0762463343108504
1.0742913000977516
1.0713587487781036
1.0684261974584557
1.0654936461388074
1.064516129032258
1.0654936461388074
1.064516129032258
1.0635386119257086
1.0635386119257086
1.0635386119257086
1.0635386119257086
1.0635386119257086
1.0635386119257086
1.0625610948191593
1.06158357771261
1.0596285434995112
1.0586510263929618
1.0576735092864125
1.0547409579667644
1.050830889540567
1.0478983382209188
1.0449657869012707
1.0420332355816226
1.040078201368524
1.0391006842619743
1.0391006842619743
1.0391006842619743
1.0391006842619743
1.040078201368524
1.0449657869012707
1.0547409579667644
1.072336265884653
1.1016617790811338
1.147605083088954
1.2140762463343109
1.303030303030303
1.4164222873900294
1.5542521994134897
1.7116324535679377
1.8807429130009776
2.0557184750733137
2.2052785923753664
2.3362658846529816
2.474095796676442
2.6050830889540566
2.719452590420332
2.8152492668621703
2.8914956011730206
2.948191593352884
2.986314760508309
3.0097751710654936
3.0205278592375366
3.0205278592375366
3.0097751710654936
2.988269794721408
2.9589442815249267
2.9257086999022484
2.886608015640274
2.8406647116324537
2.7869012707722387
2.724340175953079
2.6529814271749754
2.575757575757576
2.493646138807429
2.409579667644184
2.324535679374389
2.2482893450635384
2.1788856304985336
2.10850439882698
2.042033235581622
1.9804496578690127
1.9266862170087975
1.881720430107527
1.844574780058651
1.8132942326490715
1.7859237536656891
1.761485826001955
1.7380254154447703
1.7145650048875856
1.6930596285434996
1.672531769305963
1.6500488758553276
1.624633431085044
1.5962854349951123
1.5650048875855327
1.5317693059628543
1.4965786901270772
1.4604105571847508
1.4252199413489737
1.392961876832845
1.3616813294232648
1.3362658846529814
1.3157380254154447
1.2932551319648091
1.2688172043010753
1.2443792766373412
1.2209188660801564
1.2003910068426198
1.1808406647116323
1.1622678396871946
1.1456500488758554
1.130987292277615
1.118279569892473
1.1094819159335287
1.1036168132942326
1.0957966764418376
1.0879765395894427
1.0801564027370478
1.072336265884653
1.0664711632453567
1.0606060606060606
1.0557184750733135
1.050830889540567
1.0469208211143697
1.0439882697947214
1.0410557184750733
1.0410557184750733
1.0410557184750733
1.040078201368524
1.0381231671554252
1.0361681329423265
1.0342130987292275
1.0312805474095796
1.0303030303030305
1.0303030303030305
1.0312805474095796
1.032258064516129
1.0342130987292275
1.0381231671554252
1.0410557184750733
1.0420332355816226
1.0410557184750733
1.0391006842619743
1.0361681329423265
1.0342130987292275
1.0332355816226784
1.032258064516129
1.032258064516129
1.032258064516129
1.0332355816226784
1.035190615835777
1.0391006842619743
1.0420332355816226
1.0420332355816226
1.0420332355816226
1.0410557184750733
1.040078201368524
1.040078201368524
1.0439882697947214
1.0547409579667644
1.0772238514173995
1.1163245356793745
1.1759530791788857
1.2434017595307918
1.324535679374389
1.4349951124144673
1.5698924731182795
1.7243401759530792
1.8905180840664717
2.06158357771261
2.2297165200391005
2.389051808406647
2.533724340175953
2.658846529814272
2.7624633431085046
2.844574780058651
2.898338220918866
2.929618768328446
2.9442815249266863
2.945259042033236
2.941348973607038
2.930596285434995
2.913000977517106
2.887585532746823
2.8563049853372435
2.81622678396872
2.768328445747801
2.7116324535679373
2.653958944281525
2.5943304007820136
2.5268817204301075
2.453567937438905
2.376344086021505
2.297165200391007
2.2170087976539588
2.1378299120234603
2.0625610948191597
1.9931573802541545
1.9305962854349952
1.8758553274682308
1.8299120234604105
1.7947214076246334
1.7673509286412512
1.7409579667644184
1.7165200391006843
1.6930596285434996
1.6695992179863148
1.6451612903225807
1.6217008797653958
1.598240469208211
1.573802541544477
1.5483870967741935
1.521016617790811
1.495601173020528
1.4701857282502444
1.439882697947214
1.4056695992179864
1.370478983382209
1.3362658846529814
1.3040078201368523
1.2727272727272727
1.2443792766373412
1.217008797653959
1.1915933528836755
1.166177908113392
1.142717497556207
1.126099706744868
1.1133919843597262
1.0987292277614855
1.083088954056696
1.067448680351906
1.0527859237536656
1.040078201368524
1.029325513196481
1.0205278592375366
1.0146627565982405
1.010752688172043
1.007820136852395
1.007820136852395
1.0087976539589445
1.007820136852395
1.0058651026392962
1.0039100684261977
1.0009775171065494
0.9990224828934506
0.9960899315738024
0.9931573802541545
0.9902248289345064
0.9882697947214076
0.9863147605083088
0.9853372434017597
0.9872922776148584
0.9902248289345064
0.9902248289345064
0.989247311827957
0.9872922776148584
0.9853372434017597
0.9824046920821116
0.9794721407624634
0.9775171065493646
0.9745845552297164
0.9716520039100685
0.9687194525904204
0.9687194525904204
0.9706744868035192
0.9696969696969696
0.967741935483871
0.9657869012707724
0.9638318670576737
0.9608993157380256
0.959921798631476
0.9589442815249268
0.9579667644183774
0.9579667644183774
0.959921798631476
0.9628543499511242
0.9696969696969696
0.981427174975562
0.9990224828934506
1.029325513196481
1.0762463343108504
1.144672531769306
1.2375366568914956
1.3548387096774193
1.4946236559139785
1.6529814271749756
1.823069403714565
1.9980449657869013
2.146627565982405
2.275659824046921
2.409579667644184
2.533724340175953
2.6402737047898337
2.727272727272727
2.793743890518084
2.8406647116324537
2.870967741935484
2.886608015640274
2.889540566959922
2.881720430107527
2.863147605083089
2.8367546432062563
2.8044965786901277
2.766373411534702
2.7223851417399803
2.6715542521994133
2.6129032258064515
2.5454545454545454
2.472140762463343
2.393939393939394
2.3118279569892475
2.228739002932551
2.147605083088954
2.0772238514174
2.01564027370479
1.9560117302052784
1.902248289345064
1.8563049853372435
1.8172043010752688
1.7839687194525904
1.7556207233626588
1.7311827956989247
1.7086999022482894
1.6881720430107527
1.667644183773216
1.64613880742913
1.624633431085044
1.603128054740958
1.5777126099706744
1.5503421309872922
1.521016617790811
1.4897360703812317
1.457478005865103
1.4242424242424243
1.3900293255131966
1.356793743890518
1.324535679374389
1.2942326490713587
1.270772238514174
1.2502443792766371
1.2258064516129032
1.2013685239491692
1.176930596285435
1.1534701857282503
1.1329423264907137
1.1133919843597262
1.096774193548387
1.0840664711632453
1.0742913000977516
1.0664711632453567
1.0625610948191593
1.0606060606060606
1.0576735092864125
1.0527859237536656
1.0478983382209188
1.043010752688172
1.0381231671554252
1.032258064516129
1.0273704789833822
1.024437927663734
1.0234604105571847
1.0224828934506354
1.021505376344086
1.0224828934506354
1.0234604105571847
1.021505376344086
1.0195503421309873
1.0175953079178883
1.0146627565982405
1.0127077223851415
1.0117302052785924
1.0117302052785924
1.0117302052785924
1.0117302052785924
1.0117302052785924
1.0127077223851415
1.0146627565982405
1.0146627565982405
1.013685239491691
1.0127077223851415
1.0117302052785924
1.010752688172043
1.0097751710654936
1.010752688172043
1.010752688172043
1.010752688172043
1.010752688172043
1.010752688172043
1.0127077223851415
1.0156402737047898
1.0175953079178883
1.0175953079178883
1.0175953079178883
1.0175953079178883
1.021505376344086
1.0342130987292275
1.0576735092864125
1.0977517106549364
1.1583577712609971
1.241446725317693
1.3313782991202343
1.4320625610948192
1.564027370478983
1.718475073313783
1.8866080156402736
2.060606060606061
2.23069403714565
2.3900293255131966
2.5317693059628543
2.6529814271749754
2.7517106549364616
2.827956989247312
2.8826979472140764
2.911045943304008
2.921798631476051
2.9257086999022484
2.921798631476051
2.9100684261974585
2.8905180840664717
2.865102639296188
2.832844574780059
2.793743890518084
2.748778103616813
2.6959921798631474
2.636363636363636
2.576735092864125
2.5141739980449658
2.443792766373412
2.367546432062561
2.2873900293255134
2.206256109481916
2.1270772238514173
2.050830889540567
1.981427174975562
1.932551319648094
1.8973607038123168
1.86119257086999
1.828934506353861
1.8035190615835777
1.7820136852394917
1.7624633431085044
1.7438905180840665
1.7253176930596286
1.7057673509286413
1.6842619745845553
1.6608015640273706
1.6363636363636365
1.6099706744868034
1.5826001955034212
1.5532746823069403
1.5268817204301075
1.501466275659824
1.4721407624633431
