ppg
2.820136852394917
2.7839687194525906
2.7468230694037143
2.708699902248289
2.667644183773216
2.621700879765396
2.5698924731182795
2.5112414467253177
2.4457478005865103
2.3743890518084068
2.2981427174975564
2.218963831867057
2.1417399804496577
2.067448680351906
1.9980449657869013
1.9403714565004888
1.89247311827957
1.847507331378299
1.8074291300097751
1.7741935483870968
1.747800586510264
1.726295210166178
1.70772238514174
1.6901270772238517
1.672531769305963
1.653958944281525
1.6344086021505375
1.616813294232649
1.5992179863147604
1.5777126099706744
1.5542521994134897
1.5278592375366569
1.500488758553275
1.4731182795698925
1.444770283479961
1.4164222873900294
1.3870967741935485
1.3577712609970674
1.3294232649071358
1.3010752688172045
1.278592375366569
1.2580645161290325
1.2346041055718475
1.2111436950146628
1.1867057673509287
1.1622678396871946
1.1397849462365592
1.118279569892473
1.0977517106549364
1.078201368523949
1.06158357771261
1.04594330400782
1.0361681329423265
1.029325513196481
1.0205278592375366
1.0117302052785924
1.0019550342130987
0.9941348973607038
0.9872922776148584
0.981427174975562
0.9775171065493646
0.9745845552297164
0.9736070381231672
0.9726295210166178
0.9765395894428152
0.981427174975562
0.9843597262952102
0.9872922776148584
0.989247311827957
0.9921798631476052
0.9951124144672532
0.9980449657869012
1.0
1.002932551319648
1.0058651026392962
1.0087976539589445
1.0117302052785924
1.0166177908113392
1.029325513196481
1.043010752688172
1.050830889540567
1.0547409579667644
1.056695992179863
1.056695992179863
1.0557184750733135
1.0547409579667644
1.053763440860215
1.053763440860215
1.0586510263929618
1.0713587487781036
1.0957966764418376
1.1407624633431086
1.2111436950146628
1.310850439882698
1.4389051808406648
1.5933528836754642
1.7653958944281525
1.945259042033236
2.124144672531769
2.291300097751711
2.439882697947214
2.565982404692082
2.654936461388074
2.716520039100684
2.766373411534702
2.801564027370479
2.8211143695014664
2.8269794721407626
2.8211143695014664
2.8054740957966766
2.782013685239492
2.752688172043011
2.719452590420332
2.6823069403714563
2.6451612903225805
2.6070381231671558
2.5650048875855327
2.5190615835777126
2.4701857282502444
2.4164222873900294
2.358748778103617
2.2961876832844577
2.228739002932551
2.157380254154448
2.086021505376344
2.016617790811339
1.951124144672532
1.8973607038123168
1.8523949169110456
1.8113391984359728
1.7771260997067448
1.7497556207233629
1.7282502443792769
1.7126099706744868
1.699902248289345
1.6901270772238517
1.6813294232649072
1.6715542521994136
1.6608015640273706
1.651026392961877
1.640273704789834
1.6265884652981428
1.6099706744868034
1.5913978494623655
1.5708699902248289
1.5483870967741935
1.5249266862170088
1.501466275659824
1.47702834799609
1.4516129032258065
1.4252199413489737
1.3988269794721409
1.3763440860215057
1.3558162267839686
1.332355816226784
1.3079178885630498
1.2825024437927663
1.2590420332355816
1.2365591397849462
1.2150537634408602
1.1945259042033236
1.1749755620723363
1.155425219941349
1.1378299120234605
1.126099706744868
1.1163245356793745
1.1055718475073313
1.093841642228739
1.0821114369501466
1.0713587487781036
1.0625610948191593
1.0547409579667644
1.0488758553274682
1.0439882697947214
1.040078201368524
1.0381231671554252
1.0361681329423265
1.0371456500488758
1.0410557184750733
1.0439882697947214
1.04594330400782
1.0478983382209188
1.0498533724340176
1.0527859237536656
1.0547409579667644
1.0557184750733135
1.0576735092864125
1.0606060606060606
1.0635386119257086
1.0684261974584557
1.0733137829912025
1.0762463343108504
1.078201368523949
1.0791788856304985
1.0791788856304985
1.078201368523949
1.0762463343108504
1.0733137829912025
1.0703812316715542
1.067448680351906
1.0654936461388074
1.0684261974584557
1.0791788856304985
1.099706744868035
1.1397849462365592
1.2043010752688172
1.2981427174975562
1.4222873900293256
1.5728250244379276
1.7419354838709675
1.921798631476051
2.101661779081134
2.270772238514174
2.421309872922776
2.5347018572825024
2.619745845552297
2.695014662756598
2.752688172043011
2.791788856304985
2.812316715542522
2.81622678396872
2.807429130009776
2.788856304985337
2.7614858260019552
2.727272727272727
2.6881720430107525
2.6451612903225805
2.6021505376344085
2.558162267839687
2.509286412512219
2.4565004887585533
2.398826979472141
2.3382209188660803
2.2737047898338223
2.2052785923753664
2.134897360703812
2.064516129032258
1.9951124144672527
1.9296187683284456
1.8748778103616808
1.8299120234604105
1.7869012707722385
1.7517106549364614
1.7243401759530792
1.704789833822092
1.6930596285434996
1.686217008797654
1.6823069403714566
1.6793743890518085
1.6764418377321604
1.672531769305963
1.6656891495601174
1.6578690127077225
1.6490713587487782
1.635386119257087
1.6187683284457477
1.5992179863147604
1.5786901270772238
1.5562072336265884
1.5327468230694037
1.5083088954056696
1.482893450635386
1.457478005865103
1.43108504398827
1.409579667644184
1.3890518084066472
1.3655913978494625
1.3401759530791788
1.3147605083088951
1.2903225806451613
1.2668621700879763
1.2434017595307918
1.2218963831867058
1.2013685239491692
1.181818181818182
1.164222873900293
1.1485826001955035
1.13880742913001
1.130987292277615
1.121212121212121
1.1124144672531768
1.104594330400782
1.0977517106549364
1.0928641251221896
1.088954056695992
1.086021505376344
1.0840664711632453
1.083088954056696
1.0821114369501466
1.0840664711632453
1.0879765395894427
1.0909090909090908
1.0948191593352885
1.0987292277614855
1.1026392961876832
1.1065493646138806
1.1114369501466277
1.1163245356793745
1.121212121212121
1.126099706744868
1.1319648093841643
1.13880742913001
1.1456500488758554
1.1505376344086022
1.155425219941349
1.1593352883675463
1.1622678396871946
1.164222873900293
1.1652003910068427
1.164222873900293
1.163245356793744
1.163245356793744
1.1691104594330402
1.1857282502443791
1.2130987292277615
1.2570869990224829
1.3304007820136852
1.435972629521017
1.5728250244379276
1.7360703812316716
1.9178885630498532
2.10850439882698
2.2961876832844577
2.472140762463343
2.6285434995112413
2.760508308895406
2.854349951124145
2.919843597262952
2.975562072336266
3.0175953079178885
3.0449657869012707
3.0576735092864125
3.058651026392962
3.050830889540567
3.0175953079178885
2.9687194525904204
2.930596285434995
2.897360703812317
2.865102639296188
2.832844574780059
2.7996089931573804
2.7673509286412514
2.7341153470185726
2.697947214076246
2.6578690127077222
2.6129032258064515
2.5620723362658846
2.504398826979472
2.439882697947214
2.3685239491691106
2.2932551319648096
2.222873900293255
2.156402737047898
2.085043988269794
2.013685239491691
1.9472140762463344
1.8875855327468232
1.836754643206256
1.793743890518084
1.7575757575757576
1.729227761485826
1.7057673509286413
1.6852394916911049
1.6666666666666667
1.6520039100684265
1.6383186705767352
1.6236559139784943
1.607038123167155
1.587487781036168
1.565982404692082
1.543499511241447
1.520039100684262
1.495601173020528
1.4721407624633431
1.447702834799609
1.423264907135875
1.401759530791789
1.3822091886608017
1.359726295210166
1.3362658846529814
1.3118279569892473
1.2873900293255132
1.2639296187683284
1.241446725317693
1.219941348973607
1.198435972629521
1.1779081133919844
1.1583577712609971
1.1397849462365592
1.126099706744868
1.1163245356793745
1.104594330400782
1.0928641251221896
1.0821114369501466
1.072336265884653
1.0635386119257086
1.0547409579667644
1.0469208211143697
1.040078201368524
1.0342130987292275
1.029325513196481
1.0283479960899315
1.029325513196481
1.0283479960899315
1.0263929618768328
1.0254154447702837
1.0254154447702837
1.0254154447702837
1.0273704789833822
1.029325513196481
1.0332355816226784
1.0371456500488758
1.0420332355816226
1.0469208211143697
1.0527859237536656
1.0586510263929618
1.06158357771261
1.064516129032258
1.067448680351906
1.0703812316715542
1.0733137829912025
1.075268817204301
1.0772238514173995
1.078201368523949
1.078201368523949
1.078201368523949
1.0801564027370478
1.0850439882697946
1.093841642228739
1.115347018572825
1.1564027370478984
1.2228739002932552
1.3186705767350928
1.4437927663734116
1.5962854349951123
1.76930596285435
1.9530791788856303
2.1358748778103616
2.3088954056695994
2.4457478005865103
2.5542521994134897
2.6578690127077222
2.745845552297165
2.814271749755621
2.8641251221896384
2.8963831867057674
2.913000977517106
2.916911045943304
2.9100684261974585
2.895405669599218
2.875855327468231
2.850439882697948
2.822091886608016
2.792766373411535
2.7624633431085046
2.7311827956989245
2.697947214076246
2.662756598240469
2.624633431085044
2.582600195503421
2.535679374389052
2.482893450635386
2.423264907135875
2.356793743890518
2.2932551319648096
2.2297165200391005
2.160312805474096
2.0879765395894427
2.0175953079178885
1.951124144672532
1.8914956011730208
1.839687194525904
1.7956989247311828
1.7595307917888563
1.7302052785923754
1.7067448680351909
1.6901270772238517
1.675464320625611
1.6608015640273706
1.64613880742913
1.6304985337243405
1.6148582600195502
1.5972629521016617
1.5777126099706744
1.5571847507331378
1.5347018572825024
1.5102639296187683
1.4858260019550342
1.4604105571847508
1.4379276637341154
1.4173998044965788
1.393939393939394
1.367546432062561
1.3411534701857282
1.3147605083088951
1.2883675464320623
1.262952101661779
1.2375366568914956
1.2130987292277615
1.1896383186705768
1.1671554252199414
1.1495601173020529
1.1358748778103618
1.1202346041055715
1.1036168132942326
1.0879765395894427
1.0733137829912025
1.0596285434995112
1.0469208211143697
1.035190615835777
1.024437927663734
1.0156402737047898
1.007820136852395
1.0009775171065494
0.9990224828934506
0.9990224828934506
0.997067448680352
0.9941348973607038
0.9921798631476052
0.9902248289345064
0.989247311827957
0.9902248289345064
0.9912023460410556
0.9941348973607038
0.997067448680352
1.0009775171065494
1.0068426197458455
1.013685239491691
1.0195503421309873
1.0234604105571847
1.0263929618768328
1.029325513196481
1.032258064516129
1.035190615835777
1.0371456500488758
1.0391006842619743
1.0410557184750733
1.043010752688172
1.0469208211143697
1.050830889540567
1.0527859237536656
1.053763440860215
1.0527859237536656
1.050830889540567
1.050830889540567
1.0557184750733135
1.0713587487781036
1.1026392961876832
1.1564027370478984
1.238514173998045
1.3509286412512218
1.4682306940371457
1.595307917888563
1.75366568914956
1.9266862170087975
2.1006842619745845
2.264907135874878
2.412512218963832
2.5386119257087
2.6402737047898337
2.717497556207233
2.7722385141739982
2.807429130009776
2.8211143695014664
2.8211143695014664
2.814271749755621
2.80058651026393
2.780058651026393
2.7546432062561097
2.7253176930596283
2.6930596285435
2.658846529814272
2.621700879765396
2.582600195503421
2.5405669599217986
2.495601173020528
2.449657869012708
2.401759530791789
2.346041055718475
2.2844574780058653
2.2170087976539588
2.146627565982405
2.075268817204301
2.004887585532747
1.93841642228739
1.878787878787879
1.8269794721407624
1.7839687194525904
1.7517106549364614
1.7272727272727273
1.7135874877810362
1.70772238514174
1.6989247311827955
1.6881720430107527
1.6774193548387095
1.6656891495601174
1.6520039100684265
1.6373411534701858
1.6207233626588464
1.6021505376344083
1.581622678396872
1.563049853372434
1.5454545454545454
1.5239491691104594
1.499511241446725
1.474095796676442
1.4486803519061584
1.4222873900293256
1.3958944281524928
1.3695014662756595
1.3421309872922775
1.3147605083088951
1.2883675464320623
1.267839687194526
1.249266862170088
1.2287390029325511
1.2082111436950147
1.187683284457478
1.1681329423264908
1.1485826001955035
1.1300097751710656
1.1133919843597262
1.0977517106549364
1.0840664711632453
1.0713587487781036
1.0606060606060606
1.0547409579667644
1.050830889540567
1.04594330400782
1.0420332355816226
1.0371456500488758
1.0332355816226784
1.0312805474095796
1.029325513196481
1.0273704789833822
1.0263929618768328
1.0254154447702837
1.0254154447702837
1.0283479960899315
1.0312805474095796
1.032258064516129
1.0332355816226784
1.0332355816226784
1.0332355816226784
1.0332355816226784
1.032258064516129
1.0312805474095796
1.0283479960899315
1.0254154447702837
1.0224828934506354
1.021505376344086
1.0254154447702837
1.0361681329423265
1.0576735092864125
1.0957966764418376
1.1573802541544478
1.2473118279569892
1.364613880742913
1.5073313782991202
1.6695992179863148
1.8435972629521016
2.018572825024438
2.1847507331378297
2.3167155425219943
2.423264907135875
2.52297165200391
2.6070381231671558
2.6715542521994133
2.7155425219941347
2.740957966764418
2.750733137829912
2.747800586510264
2.735092864125122
2.713587487781036
2.686217008797654
2.653958944281525
2.619745845552297
2.5835777126099706
2.5434995112414467
2.501466275659824
2.4565004887585533
2.407624633431085
2.35386119257087
2.2952101661779083
2.23069403714565
2.1622678396871944
2.090909090909091
2.0175953079178885
1.9530791788856303
1.895405669599218
1.836754643206256
1.7820136852394917
1.7350928641251222
1.6959921798631477
1.664711632453568
1.6422287390029326
1.6256109481915937
1.6129032258064515
1.6041055718475072
1.5972629521016617
1.5913978494623655
1.585532746823069
1.5796676441837731
1.5708699902248289
1.5591397849462365
1.5454545454545454
1.5288367546432062
1.5102639296187683
1.4897360703812317
1.4682306940371457
1.444770283479961
1.4213098729227762
1.3978494623655917
1.3773216031280548
1.3587487781036167
1.3372434017595307
1.313782991202346
1.289345063538612
1.2649071358748778
1.241446725317693
1.2189638318670577
1.1974584555229717
1.176930596285435
1.1573802541544478
1.1397849462365592
1.1231671554252198
1.1114369501466277
1.1026392961876832
1.0909090909090908
1.078201368523949
1.0664711632453567
1.0557184750733135
1.04594330400782
1.0391006842619743
1.0332355816226784
1.0283479960899315
1.0254154447702837
1.0224828934506354
1.0234604105571847
1.0263929618768328
1.0273704789833822
1.0273704789833822
1.0283479960899315
1.0303030303030305
1.032258064516129
1.035190615835777
1.0391006842619743
1.0439882697947214
1.0488758553274682
1.0547409579667644
1.0625610948191593
1.0713587487781036
1.0791788856304985
1.0869990224828934
1.093841642228739
1.1006842619745845
1.10752688172043
1.1143695014662756
1.1202346041055715
1.1241446725317692
1.1270772238514175
1.1300097751710656
1.1329423264907137
1.1358748778103618
1.1378299120234605
1.1378299120234605
1.1378299120234605
1.142717497556207
1.1573802541544478
1.1896383186705768
1.2473118279569892
1.3362658846529814
1.457478005865103
1.6099706744868034
1.7878787878787878
1.95405669599218
2.112414467253177
2.289345063538612
2.463343108504399
2.622678396871945
2.760508308895406
2.8729227761485827
2.959921798631476
3.022482893450636
3.064516129032258
3.088954056695992
3.099706744868035
3.0987292277614857
3.085043988269794
3.064516129032258
3.042033235581622
3.0175953079178885
2.9902248289345064
2.961876832844575
2.9315738025415445
2.900293255131965
2.868035190615836
2.833822091886608
2.795698924731183
2.7536656891495603
2.7096774193548385
2.6608015640273703
2.603128054740958
2.5376344086021505
2.464320625610948
2.386119257086999
2.304007820136853
2.2218963831867056
2.1417399804496577
2.0664711632453567
1.9980449657869013
1.9374389051808407
1.8856304985337244
1.8455522971652003
1.8142717497556209
1.7859237536656891
1.7605083088954057
1.7390029325513197
1.7194525904203324
1.7008797653958945
1.6823069403714566
1.6627565982404693
1.6412512218963833
1.619745845552297
1.5972629521016617
1.576735092864125
1.5571847507331378
1.5347018572825024
1.5102639296187683
1.4838709677419355
1.458455522971652
1.4320625610948192
1.4056695992179864
1.3792766373411536
1.3528836754643203
1.327468230694037
1.3020527859237536
1.2776148582600195
1.2590420332355816
1.2424242424242424
1.2238514173998043
1.203323558162268
1.1837732160312806
1.1652003910068427
1.147605083088954
1.130987292277615
1.110459433040078
1.088954056695992
1.0733137829912025
1.06158357771261
1.0547409579667644
1.050830889540567
1.04594330400782
1.040078201368524
1.0342130987292275
1.029325513196481
1.0254154447702837
1.021505376344086
1.0195503421309873
1.018572825024438
1.018572825024438
1.0195503421309873
1.021505376344086
1.0254154447702837
1.0303030303030305
1.0342130987292275
1.0371456500488758
1.040078201368524
1.0439882697947214
1.0469208211143697
1.0498533724340176
1.0527859237536656
1.0557184750733135
1.0576735092864125
1.0596285434995112
1.0625610948191593
1.0664711632453567
1.0684261974584557
1.0684261974584557
1.067448680351906
1.067448680351906
1.0713587487781036
1.083088954056696
1.110459433040078
1.1593352883675463
1.2346041055718475
1.3401759530791788
1.474095796676442
1.608993157380254
1.7487781036168133
1.9149560117302051
2.088954056695992
2.259042033235582
2.4134897360703813
2.5464320625610948
2.654936461388074
2.73802541544477
2.798631476050831
2.8396871945259043
2.8641251221896384
2.870967741935484
2.866080156402737
2.8563049853372435
2.8406647116324537
2.8211143695014664
2.798631476050831
2.774193548387097
2.747800586510264
2.719452590420332
2.689149560117302
2.656891495601173
2.621700879765396
2.5835777126099706
2.5434995112414467
2.4995112414467253
2.4486803519061584
2.391006842619746
2.326490713587488
2.257086999022483
2.1837732160312804
2.1094819159335287
2.035190615835777
1.963831867057673
1.8983382209188664
1.8406647116324533
1.7947214076246334
1.758553274682307
1.726295210166178
1.699902248289345
1.6774193548387095
1.6588465298142718
1.6422287390029326
1.6275659824046922
1.6129032258064515
1.598240469208211
1.5826001955034212
1.565982404692082
1.5483870967741935
1.530791788856305
1.5141739980449658
1.4946236559139785
1.474095796676442
1.4516129032258065
1.4271749755620724
1.4027370478983383
1.3782991202346042
1.35386119257087
1.3284457478005864
1.303030303030303
1.2776148582600195
1.2570869990224829
1.2394916911045943
1.219941348973607
1.2003910068426198
1.1808406647116323
1.1612903225806452
1.142717497556207
1.1251221896383188
1.1085043988269794
1.0928641251221896
1.0791788856304985
1.0664711632453567
1.0557184750733135
1.0498533724340176
1.04594330400782
1.0410557184750733
1.0361681329423265
1.0303030303030305
1.0254154447702837
1.021505376344086
1.018572825024438
1.0166177908113392
1.0156402737047898
1.0156402737047898
1.0156402737047898
1.018572825024438
1.0224828934506354
1.024437927663734
1.0263929618768328
1.0273704789833822
1.029325513196481
1.032258064516129
1.0342130987292275
1.0371456500488758
1.040078201368524
1.0420332355816226
1.0439882697947214
1.0478983382209188
1.0527859237536656
1.0547409579667644
1.0557184750733135
1.0557184750733135
1.0547409579667644
1.0527859237536656
1.050830889540567
1.0498533724340176
1.0518084066471165
1.06158357771261
1.0850439882697946
1.1300097751710656
1.1867057673509287
1.2609970674486803
1.370478983382209
1.509286412512219
1.6705767350928642
1.844574780058651
2.022482893450636
2.1925708699902247
2.347996089931574
2.4819159335288368
2.592375366568915
2.678396871945259
2.7341153470185726
2.7673509286412514
2.790811339198436
2.803519061583578
2.806451612903226
2.80058651026393
2.7869012707722387
2.768328445747801
2.7438905180840663
2.716520039100684
2.687194525904203
2.654936461388074
2.6207233626588464
2.5855327468230693
2.549364613880743
2.5102639296187683
2.466275659824047
2.4173998044965788
2.3626588465298144
2.3010752688172045
2.233626588465298
2.163245356793744
2.09188660801564
2.021505376344086
1.95405669599218
1.8983382209188664
1.8514173998044965
1.8064516129032255
1.7663734115347018
1.7331378299120237
1.7057673509286413
1.683284457478006
1.6656891495601174
1.651026392961877
1.6373411534701858
1.624633431085044
1.6109481915933528
1.5962854349951123
1.5835777126099706
1.5698924731182795
1.5532746823069403
1.5347018572825024
1.5141739980449658
1.4926686217008798
1.469208211143695
1.4457478005865103
1.4213098729227762
1.3958944281524928
1.370478983382209
1.3450635386119256
1.3235581622678396
1.3040078201368523
1.2825024437927663
1.260019550342131
1.2365591397849462
1.2140762463343109
1.1925708699902249
1.1720430107526882
1.152492668621701
1.133919843597263
1.1173020527859236
1.1026392961876832
1.088954056695992
1.0801564027370478
1.0733137829912025
1.064516129032258
1.0557184750733135
1.0478983382209188
1.040078201368524
1.032258064516129
1.0254154447702837
1.0205278592375366
1.0166177908113392
1.013685239491691
1.0127077223851415
1.013685239491691
1.0166177908113392
1.018572825024438
1.0195503421309873
1.0205278592375366
1.021505376344086
1.0224828934506354
1.0234604105571847
1.0254154447702837
1.0263929618768328
1.0283479960899315
1.0303030303030305
1.032258064516129
1.0361681329423265
1.0410557184750733
1.0410557184750733
1.0391006842619743
1.0381231671554252
1.0361681329423265
1.0342130987292275
1.032258064516129
1.029325513196481
1.0254154447702837
1.0205278592375366
1.0175953079178883
1.0205278592375366
1.0312805474095796
1.0527859237536656
1.0928641251221896
1.1583577712609971
1.252199413489736
1.3763440860215057
1.5268817204301075
1.696969696969697
1.8758553274682308
2.0557184750733137
2.2248289345063537
2.375366568914956
2.4887585532746823
2.573802541544477
2.6480938416422286
2.704789833822092
2.7438905180840663
2.7653958944281527
2.7702834799608995
2.7624633431085046
2.744868035190616
2.718475073313783
2.6852394916911044
2.6480938416422286
2.608993157380254
2.56891495601173
2.5249266862170088
2.4780058651026398
2.4271749755620724
2.3714565004887587
2.3118279569892475
2.247311827956989
2.1788856304985336
2.10752688172043
2.034213098729228
1.9618768328445748
1.89247311827957
1.833822091886608
1.7849462365591398
1.739980449657869
1.7008797653958945
1.6705767350928642
1.6480938416422288
1.6334310850439884
1.6236559139784943
1.6177908113391983
1.6138807429130009
1.6099706744868034
1.6050830889540566
1.5992179863147604
1.5923753665689149
1.581622678396872
1.5679374389051808
1.5513196480938416
1.5327468230694037
1.512218963831867
1.490713587487781
1.4672531769305963
1.4428152492668622
1.418377321603128
1.392961876832845
1.3665689149560116
1.3450635386119256
1.324535679374389
1.300097751710655
1.2746823069403714
1.249266862170088
1.224828934506354
1.2003910068426198
1.1779081133919844
1.1564027370478984
1.1358748778103618
1.1163245356793745
1.0987292277614855
1.086021505376344
1.0772238514173995
1.0664711632453567
1.0557184750733135
1.0469208211143697
1.0391006842619743
1.032258064516129
1.0263929618768328
1.0205278592375366
1.0166177908113392
1.0146627565982405
1.013685239491691
1.0156402737047898
1.0205278592375366
1.024437927663734
1.0273704789833822
1.0312805474095796
1.035190615835777
1.0391006842619743
1.0439882697947214
1.0488758553274682
1.0527859237536656
1.056695992179863
1.0606060606060606
1.0625610948191593
1.0664711632453567
1.0713587487781036
1.0733137829912025
1.0742913000977516
1.0762463343108504
1.0850439882697946
1.104594330400782
1.1436950146627567
1.2072336265884651
1.3010752688172045
1.4271749755620724
1.581622678396872
1.732160312805474
1.8826979472140764
2.0576735092864125
2.2375366568914954
2.4086021505376345
2.5610948191593352
2.6911045943304006
2.7966764418377323
2.87683284457478
2.9335288367546437
2.9696969696969697
2.989247311827957
2.995112414467253
2.9872922776148583
2.9696969696969697
2.949169110459433
2.9257086999022484
2.8993157380254155
2.870967741935484
2.8406647116324537
2.809384164222874
2.777126099706745
2.7438905180840663
2.70772238514174
2.668621700879765
2.6265884652981426
