ppg
3.0527859237536656
3.056695992179863
3.0518084066471163
3.0361681329423265
3.0097751710654936
2.9716520039100685
2.920821114369501
2.859237536656892
2.787878787878788
2.7096774193548385
2.635386119257087
2.5620723362658846
2.484848484848485
2.4086021505376345
2.3362658846529816
2.269794721407625
2.210166177908113
2.157380254154448
2.110459433040078
2.0684261974584555
2.029325513196481
1.991202346041056
1.956989247311828
1.9257086999022484
1.89247311827957
1.8592375366568916
1.8240469208211143
1.7878787878787878
1.750733137829912
1.7116324535679377
1.6715542521994136
1.6314760508308896
1.5923753665689149
1.5542521994134897
1.5180840664711632
1.4897360703812317
1.4652981427174976
1.4389051808406648
1.412512218963832
1.3870967741935485
1.3636363636363635
1.3411534701857282
1.3206256109481915
1.3020527859237536
1.284457478005865
1.267839687194526
1.252199413489736
1.2404692082111437
1.23069403714565
1.2179863147605083
1.2052785923753666
1.1925708699902249
1.181818181818182
1.1720430107526882
1.1622678396871946
1.1534701857282503
1.1436950146627567
1.133919843597263
1.1251221896383188
1.1202346041055715
1.1163245356793745
1.110459433040078
1.1026392961876832
1.0948191593352885
1.086021505376344
1.0772238514173995
1.0694037145650048
1.0635386119257086
1.056695992179863
1.050830889540567
1.0449657869012707
1.040078201368524
1.0391006842619743
1.0391006842619743
1.0381231671554252
1.0381231671554252
1.0371456500488758
1.035190615835777
1.0312805474095796
1.0273704789833822
1.0234604105571847
1.0195503421309873
1.0156402737047898
1.0127077223851415
1.013685239491691
1.0166177908113392
1.0195503421309873
1.0273704789833822
1.0439882697947214
1.0742913000977516
1.1241446725317692
1.1964809384164223
1.295210166177908
1.418377321603128
1.5610948191593352
1.7165200391006843
1.8778103616813293
2.0175953079178885
2.1407624633431084
2.270772238514174
2.393939393939394
2.504398826979472
2.5992179863147604
2.679374389051808
2.744868035190616
2.7976539589442817
2.8396871945259043
2.8719452590420333
2.8963831867057674
2.9071358748778104
2.90811339198436
2.905180840664712
2.8963831867057674
2.877810361681329
2.8484848484848486
2.806451612903226
2.752688172043011
2.689149560117302
2.6177908113391983
2.5425219941348973
2.463343108504399
2.3851417399804498
2.315738025415445
2.2531769305962857
2.190615835777126
2.132942326490713
2.0821114369501466
2.0361681329423265
1.9951124144672527
1.9589442815249267
1.924731182795699
1.89247311827957
1.86119257086999
1.8299120234604105
1.8025415444770283
1.775171065493646
1.7438905180840665
1.7116324535679377
1.6774193548387095
1.643206256109482
1.608993157380254
1.5757575757575757
1.542521994134897
1.5102639296187683
1.478983382209189
1.4486803519061584
1.4193548387096775
1.3949169110459434
1.375366568914956
1.35386119257087
1.3333333333333333
1.3118279569892473
1.2913000977517106
1.273704789833822
1.2570869990224829
1.241446725317693
1.2267839687194526
1.2121212121212122
1.1994134897360704
1.1915933528836755
1.1857282502443791
1.176930596285435
1.166177908113392
1.1544477028347997
1.1436950146627567
1.1329423264907137
1.1221896383186705
1.1114369501466277
1.1006842619745845
1.0899315738025417
1.0801564027370478
1.0713587487781036
1.067448680351906
1.0664711632453567
1.064516129032258
1.06158357771261
1.0586510263929618
1.056695992179863
1.0557184750733135
1.0547409579667644
1.0547409579667644
1.0557184750733135
1.056695992179863
1.0586510263929618
1.0625610948191593
1.0664711632453567
1.0684261974584557
1.0694037145650048
1.0703812316715542
1.0703812316715542
1.0684261974584557
1.0654936461388074
1.06158357771261
1.0576735092864125
1.0547409579667644
1.053763440860215
1.0557184750733135
1.0635386119257086
1.0801564027370478
1.1085043988269794
1.155425219941349
1.224828934506354
1.3186705767350928
1.435972629521017
1.5747800586510263
1.7282502443792769
1.889540566959922
2.0518084066471163
2.206256109481916
2.3313782991202348
2.434017595307918
2.536656891495601
2.63049853372434
2.710654936461388
2.7781036168132944
2.833822091886608
2.878787878787879
2.9159335288367547
2.946236559139785
2.9687194525904204
2.983382209188661
2.989247311827957
2.983382209188661
2.9667644183773216
2.940371456500489
2.903225806451613
2.8533724340175954
2.793743890518084
2.7253176930596283
2.650048875855328
2.5718475073313782
2.493646138807429
2.419354838709677
2.3499511241446727
2.290322580645161
2.2404692082111435
2.1925708699902247
2.1495601173020527
2.1114369501466275
2.0772238514174
2.04594330400782
2.01564027370479
1.9853372434017595
1.9550342130987293
1.9227761485826005
1.8905180840664717
1.8563049853372435
1.825024437927664
1.7947214076246334
1.7605083088954057
1.4301075268817205
1.4007820136852396
1.3714565004887584
1.3421309872922775
1.3128054740957966
1.2903225806451613
1.2697947214076246
1.2443792766373412
1.217008797653959
1.187683284457478
1.1573802541544478
1.126099706744868
1.0918866080156402
1.056695992179863
1.021505376344086
0.9863147605083088
0.9530791788856304
0.9296187683284456
0.9149560117302052
0.9022482893450636
0.8963831867057673
0.9002932551319648
0.9149560117302052
0.9393939393939394
0.9706744868035192
1.0068426197458455
1.0469208211143697
1.0909090909090908
1.1397849462365592
1.1974584555229717
1.2570869990224829
1.3264907135874875
1.418377321603128
1.5317693059628543
1.6637341153470186
1.8103616813294232
1.963831867057673
2.117302052785924
2.264907135874878
2.401759530791789
2.52297165200391
2.6265884652981426
2.7008797653958942
2.752688172043011
2.798631476050831
2.834799608993157
2.859237536656892
2.8729227761485827
2.875855327468231
2.8670576735092865
2.8455522971652005
2.8132942326490715
2.768328445747801
2.7116324535679373
2.6510263929618767
2.5865102639296187
2.5112414467253177
2.429130009775171
2.3440860215053765
2.259042033235582
2.1788856304985336
2.1065493646138806
2.0439882697947214
1.994134897360704
1.9560117302052784
1.927663734115347
1.90811339198436
1.895405669599218
1.8856304985337244
1.8758553274682308
1.866080156402737
1.8543499511241448
1.8406647116324533
1.8240469208211143
1.8035190615835777
1.7790811339198436
1.7517106549364614
1.7223851417399805
1.689149560117302
1.6588465298142718
1.629521016617791
1.5972629521016617
1.5620723362658846
1.525904203323558
1.4897360703812317
1.4535679374389052
1.4173998044965788
1.3812316715542523
1.346041055718475
1.3118279569892473
1.2795698924731185
1.2482893450635386
1.2238514173998043
1.2043010752688172
1.1837732160312806
1.1652003910068427
1.1495601173020529
1.1358748778103618
1.1251221896383188
1.1163245356793745
1.1094819159335287
1.1016617790811338
1.093841642228739
1.0869990224828934
1.1094819159335287
1.1466275659824048
1.164222873900293
1.1720430107526882
1.1759530791788857
1.1779081133919844
1.1779081133919844
1.176930596285435
1.1749755620723363
1.1730205278592376
1.1710654936461389
1.1691104594330402
1.166177908113392
1.1652003910068427
1.1652003910068427
1.1612903225806452
1.155425219941349
1.147605083088954
1.1378299120234605
1.1280547409579669
1.1202346041055715
1.1143695014662756
1.1094819159335287
1.104594330400782
1.1006842619745845
1.099706744868035
1.099706744868035
1.0977517106549364
1.0948191593352885
1.0928641251221896
1.0918866080156402
1.0918866080156402
1.0918866080156402
1.0928641251221896
1.0987292277614855
1.1114369501466277
1.1358748778103618
1.176930596285435
1.2287390029325511
1.2971652003910068
1.3958944281524928
1.520039100684262
1.6656891495601174
1.825024437927664
1.9902248289345064
2.1524926686217007
2.304985337243402
2.441837732160313
2.5610948191593352
2.662756598240469
2.736070381231672
2.789833822091887
2.841642228739003
2.886608015640274
2.9237536656891496
2.95405669599218
2.9765395894428157
2.992179863147605
2.99902248289345
2.997067448680352
2.9853372434017595
2.964809384164223
2.9335288367546437
2.89345063538612
2.844574780058651
2.78494623655914
2.7155425219941347
2.638318670576735
2.5562072336265884
2.474095796676442
2.393939393939394
2.318670576735093
2.2502443792766376
2.189638318670577
2.1358748778103616
2.0928641251221896
2.0576735092864125
2.0254154447702835
1.9951124144672527
1.9657869012707725
1.9374389051808407
1.9090909090909087
1.878787878787879
1.8465298142717497
1.812316715542522
1.7771260997067448
1.7419354838709675
1.7057673509286413
1.6735092864125125
1.6441837732160314
1.611925708699902
1.5786901270772238
1.5464320625610948
1.5151515151515151
1.4858260019550342
1.458455522971652
1.4330400782013686
1.4105571847507332
1.3900293255131966
1.3714565004887584
1.3577712609970674
1.346041055718475
1.3313782991202343
1.316715542521994
1.3040078201368523
1.29227761485826
1.2795698924731185
1.2668621700879763
1.2561094819159335
1.24633431085044
1.2375366568914956
1.2297165200391007
1.2228739002932552
1.2189638318670577
1.2160312805474096
1.2111436950146628
1.2043010752688172
1.1964809384164223
1.1886608015640274
1.1808406647116323
1.1749755620723363
1.1700879765395895
1.1652003910068427
1.1612903225806452
1.1573802541544478
1.155425219941349
1.155425219941349
1.1534701857282503
1.1505376344086022
1.147605083088954
1.1456500488758554
1.1436950146627567
1.141739980449658
1.1397849462365592
1.1378299120234605
1.1348973607038124
1.1329423264907137
1.130987292277615
1.1319648093841643
1.1348973607038124
1.1358748778103618
1.1358748778103618
1.1358748778103618
1.1358748778103618
1.1368523949169111
1.1397849462365592
1.147605083088954
1.1652003910068427
1.1974584555229717
1.249266862170088
1.310850439882698
1.3870967741935485
1.4936461388074291
1.6236559139784943
1.7712609970674489
1.9296187683284456
2.089931573802541
2.2453567937438903
2.389051808406647
2.5161290322580645
2.625610948191593
2.716520039100684
2.7810361681329425
2.8260019550342133
2.8690127077223853
2.906158357771261
2.9374389051808407
2.961876832844575
2.9804496578690127
2.992179863147605
2.995112414467253
2.989247311827957
2.972629521016618
2.9442815249266863
2.903225806451613
2.855327468230694
2.80058651026393
2.7341153470185726
2.6578690127077222
2.576735092864125
2.493646138807429
2.4134897360703813
2.3382209188660803
2.271749755620724
2.2140762463343107
2.1652003910068425
2.124144672531769
2.09188660801564
2.064516129032258
2.038123167155425
2.010752688172043
1.9824046920821117
1.9530791788856303
1.921798631476051
1.8885630498533723
1.8543499511241448
1.8191593352883677
1.782991202346041
1.7468230694037146
1.710654936461388
1.6793743890518085
1.651026392961877
1.6207233626588464
1.5884652981427174
1.5581622678396871
1.5298142717497556
1.5024437927663734
1.47702834799609
1.452590420332356
1.43108504398827
1.4115347018572826
1.392961876832845
1.380254154447703
1.3695014662756595
1.3577712609970674
1.3440860215053765
1.3294232649071358
1.3147605083088951
1.300097751710655
1.2854349951124144
1.2717497556207231
1.2580645161290325
1.24633431085044
1.2346041055718475
1.2238514173998043
1.217008797653959
1.2121212121212122
1.2043010752688172
1.195503421309873
1.1857282502443791
1.176930596285435
1.1691104594330402
1.1612903225806452
1.1534701857282503
1.1466275659824048
1.1397849462365592
1.1329423264907137
1.1300097751710656
1.1300097751710656
1.1290322580645162
1.1270772238514175
1.1251221896383188
1.1221896383186705
1.1202346041055715
1.118279569892473
1.115347018572825
1.1133919843597262
1.110459433040078
1.1085043988269794
1.1065493646138806
1.1065493646138806
1.1085043988269794
1.1085043988269794
1.10752688172043
1.10752688172043
1.1094819159335287
1.0948191593352885
1.0791788856304985
1.0948191593352885
1.1397849462365592
1.2130987292277615
1.313782991202346
1.4203323558162269
1.5356793743890518
1.6793743890518085
1.8377321603128052
2.0
2.157380254154448
2.303030303030303
2.4330400782013686
2.5454545454545454
2.6402737047898337
2.717497556207233
2.779081133919844
2.827956989247312
2.859237536656892
2.877810361681329
2.895405669599218
2.909090909090909
2.916911045943304
2.917888563049853
2.909090909090909
2.8885630498533725
2.855327468230694
2.809384164222874
2.7497556207233624
2.6803519061583576
2.6099706744868034
2.5386119257087
2.4574780058651027
2.3743890518084068
2.2932551319648096
2.218963831867057
2.1524926686217007
2.093841642228739
2.0439882697947214
2.0019550342130987
1.9657869012707725
1.9315738025415443
1.8983382209188664
1.869012707722385
1.8406647116324533
1.8093841642228736
1.7771260997067448
1.7429130009775171
1.7086999022482894
1.6735092864125125
1.6373411534701858
1.6001955034213098
1.563049853372434
1.5268817204301075
1.4926686217008798
1.4643206256109482
1.439882697947214
1.412512218963832
1.3870967741935485
1.3636363636363635
1.3421309872922775
1.3225806451612905
1.3040078201368523
1.2854349951124144
1.267839687194526
1.2502443792766371
1.2336265884652982
1.2179863147605083
1.206256109481916
1.1964809384164223
1.1857282502443791
1.1749755620723363
1.164222873900293
1.1544477028347997
1.1466275659824048
1.13880742913001
1.1300097751710656
1.121212121212121
1.1124144672531768
1.1026392961876832
1.096774193548387
1.0918866080156402
1.0850439882697946
1.078201368523949
1.0713587487781036
1.064516129032258
1.0586510263929618
1.0518084066471165
1.0449657869012707
1.0381231671554252
1.032258064516129
1.0283479960899315
1.024437927663734
1.024437927663734
1.0263929618768328
1.0263929618768328
1.0254154447702837
1.0234604105571847
1.021505376344086
1.0205278592375366
1.0205278592375366
1.0205278592375366
1.0205278592375366
1.0205278592375366
1.0205278592375366
1.0224828934506354
1.0254154447702837
1.0254154447702837
1.0254154447702837
1.0263929618768328
1.0312805474095796
1.04594330400782
1.0733137829912025
1.1192570869990224
1.1867057673509287
1.2805474095796676
1.3998044965786902
1.541544477028348
1.6774193548387095
1.8113391984359728
1.9657869012707725
2.124144672531769
2.275659824046921
2.4144672531769307
2.536656891495601
2.6422287390029324
2.730205278592375
2.801564027370479
2.8582600195503423
2.903225806451613
2.930596285434995
2.9472140762463344
2.963831867057673
2.9765395894428157
2.983382209188661
2.981427174975562
2.9687194525904204
2.9442815249266863
2.9071358748778104
2.857282502443793
2.793743890518084
2.720430107526881
2.64613880742913
2.5718475073313782
2.4916911045943304
2.410557184750733
2.332355816226784
2.260019550342131
2.1955034213098727
2.1388074291300097
2.089931573802541
2.046920821114369
2.0087976539589443
1.9745845552297163
1.9423264907135875
1.9149560117302051
1.8875855327468232
1.858260019550342
1.8269794721407624
1.793743890518084
1.758553274682307
1.721407624633431
1.6842619745845553
1.6471163245356797
1.6099706744868034
1.5747800586510263
1.541544477028348
1.5151515151515151
1.4926686217008798
1.469208211143695
1.4467253176930597
1.4242424242424243
1.401759530791789
1.380254154447703
1.359726295210166
1.3391984359726294
1.3206256109481915
1.3040078201368523
1.2883675464320623
1.2746823069403714
1.2639296187683284
1.2551319648093842
1.2453567937438903
1.2355816226783969
1.2267839687194526
1.2179863147605083
1.2101661779081134
1.2013685239491692
1.1915933528836755
1.1808406647116323
1.1710654936461389
1.1612903225806452
1.1544477028347997
1.1495601173020529
1.142717497556207
1.1348973607038124
1.1270772238514175
1.1202346041055715
1.1133919843597262
1.1065493646138806
1.099706744868035
1.093841642228739
1.088954056695992
1.0850439882697946
1.0821114369501466
1.0821114369501466
1.0840664711632453
1.083088954056696
1.0821114369501466
1.0821114369501466
1.0821114369501466
1.0821114369501466
1.0811339198435972
1.0801564027370478
1.078201368523949
1.0762463343108504
1.0742913000977516
1.0742913000977516
1.0762463343108504
1.0762463343108504
1.0762463343108504
1.0772238514173995
1.0801564027370478
1.0909090909090908
1.1133919843597262
1.1534701857282503
1.2140762463343109
1.300097751710655
1.412512218963832
1.547409579667644
1.6764418377321604
1.8054740957966764
1.9550342130987293
2.1094819159335287
2.259042033235582
2.3958944281524928
2.517106549364614
2.619745845552297
2.704789833822092
2.774193548387097
2.8299120234604107
2.873900293255132
2.9012707722385143
2.917888563049853
2.9345063538611926
2.9472140762463344
2.952101661779081
2.9472140762463344
2.932551319648094
2.906158357771261
2.868035190615836
2.817204301075269
2.755620723362659
2.684261974584555
2.6050830889540566
2.527859237536657
2.4516129032258065
2.367546432062561
2.281524926686217
2.198435972629521
2.120234604105572
2.048875855327468
1.986314760508309
1.932551319648094
1.8885630498533723
1.8563049853372435
1.833822091886608
1.8211143695014664
1.81524926686217
1.818181818181818
1.828934506353861
1.844574780058651
1.8631476050830889
1.881720430107527
1.8963831867057677
1.905180840664712
1.906158357771261
1.8993157380254155
1.8836754643206255
1.8602150537634408
1.8347996089931573
1.8064516129032255
1.7712609970674489
1.732160312805474
1.6911045943304008
1.6490713587487782
1.6080156402737047
1.5669599217986314
1.5268817204301075
1.487781036168133
1.4496578690127078
1.4115347018572826
1.3792766373411536
1.348973607038123
1.3118279569892473
1.270772238514174
1.2258064516129032
1.1788856304985338
1.130987292277615
1.083088954056696
1.0371456500488758
0.9951124144672532
0.959921798631476
0.935483870967742
0.9237536656891496
0.9247311827956988
0.9364613880742912
0.9589442815249268
0.9912023460410556
1.029325513196481
1.0703812316715542
1.110459433040078
1.144672531769306
1.1710654936461389
1.1886608015640274
1.198435972629521
1.2023460410557183
1.2043010752688172
1.2043010752688172
1.2003910068426198
1.1945259042033236
1.1886608015640274
1.181818181818182
1.1749755620723363
1.1671554252199414
1.1573802541544478
1.1456500488758554
1.130987292277615
1.1124144672531768
1.0899315738025417
1.0703812316715542
1.0527859237536656
1.0303030303030305
1.0068426197458455
0.989247311827957
0.9853372434017597
1.0009775171065494
1.0420332355816226
1.1124144672531768
1.2130987292277615
1.3401759530791788
1.4897360703812317
1.6304985337243405
1.7673509286412512
1.920821114369501
2.0772238514174
2.2267839687194524
2.3626588465298144
2.4819159335288368
2.58455522971652
2.6715542521994133
2.744868035190616
2.806451612903226
2.857282502443793
2.898338220918866
2.9227761485826003
2.9335288367546437
2.941348973607038
2.941348973607038
2.929618768328446
2.9042033235581624
2.8641251221896384
2.809384164222874
2.740957966764418
2.66177908113392
2.573802541544477
2.4819159335288368
2.3978494623655915
2.3196480938416424
2.239491691104594
2.1622678396871944
2.09188660801564
2.029325513196481
1.9745845552297163
1.9266862170087975
1.884652981427175
1.8455522971652003
1.8084066471163245
1.7732160312805474
1.7429130009775171
1.715542521994135
1.6842619745845553
1.651026392961877
1.6177908113391983
1.585532746823069
1.5562072336265884
1.5278592375366569
1.500488758553275
1.474095796676442
1.4506353861192571
1.4291300097751711
1.409579667644184
1.393939393939394
1.3822091886608017
1.3695014662756595
1.356793743890518
1.3440860215053765
1.3304007820136852
1.3157380254154447
1.300097751710655
1.2834799608993157
1.2658846529814272
1.2482893450635386
1.2316715542521994
1.2189638318670577
1.2072336265884651
1.1915933528836755
1.173998044965787
1.155425219941349
1.1368523949169111
1.1192570869990224
1.1016617790811338
1.0850439882697946
1.0713587487781036
1.0586510263929618
1.0449657869012707
1.032258064516129
1.024437927663734
1.018572825024438
1.010752688172043
1.0058651026392962
1.002932551319648
1.0019550342130987
1.0019550342130987
1.0019550342130987
1.0009775171065494
1.0009775171065494
1.0009775171065494
1.0009775171065494
1.002932551319648
1.0058651026392962
1.0058651026392962
1.0048875855327468
1.002932551319648
1.0019550342130987
1.0009775171065494
1.0009775171065494
1.0009775171065494
1.0009775171065494
1.0009775171065494
1.0
1.0
1.0
1.0
1.0
1.0
1.0
0.9951124144672532
1.0087976539589445
1.0391006842619743
1.0909090909090908
1.1681329423264908
1.2727272727272727
1.4056695992179864
1.5366568914956011
1.6715542521994136
1.8328445747800584
2.002932551319648
2.1710654936461387
2.3284457478005867
2.469208211143695
2.592375366568915
2.6959921798631474
2.782013685239492
2.852394916911046
2.9100684261974585
2.956989247311828
2.9872922776148583
3.004887585532747
3.0234604105571847
3.0391006842619745
3.048875855327468
3.0498533724340176
3.040078201368524
3.0175953079178885
2.9824046920821115
2.932551319648094
2.870967741935484
2.7976539589442817
2.7223851417399803
2.6451612903225805
2.5591397849462365
2.469208211143695
2.3792766373411536
2.2952101661779083
2.219941348973607
2.1524926686217007
2.093841642228739
2.0439882697947214
2.002932551319648
1.9667644183773216
1.9335288367546437
1.906158357771261
1.8807429130009776
1.8533724340175952
1.8240469208211143
1.7927663734115349
1.758553274682307
1.7223851417399805
1.6852394916911049
1.6471163245356797
1.6099706744868034
1.573802541544477
1.5386119257087
1.5102639296187683
1.4858260019550342
1.4594330400782014
1.4320625610948192
1.4056695992179864
1.380254154447703
1.3577712609970674
1.3519061583577712
1.3558162267839686
1.348973607038123
1.3372434017595307
1.3225806451612905
1.3079178885630498
1.2961876832844574
1.2864125122189638
1.2756598240469208
1.2649071358748778
1.2531769305962854
1.241446725317693
1.23069403714565
1.2209188660801564
1.2121212121212122
1.203323558162268
1.1945259042033236
1.1857282502443791
1.1808406647116323
1.176930596285435
1.1710654936461389
1.164222873900293
1.1573802541544478
1.1515151515151516
1.1466275659824048
1.142717497556207
1.1397849462365592
1.1378299120234605
1.1348973607038124
1.1329423264907137
1.130987292277615
1.130987292277615
1.1329423264907137
1.1329423264907137
1.1319648093841643
1.130987292277615
1.1300097751710656
1.1290322580645162
1.1290322580645162
1.1290322580645162
1.1290322580645162
1.1280547409579669
1.1280547409579669
1.1300097751710656
1.1329423264907137
1.1329423264907137
1.1319648093841643
1.1319648093841643
1.133919843597263
1.1397849462365592
1.1534701857282503
1.1798631476050832
1.2258064516129032
1.2942326490713587
1.3870967741935485
1.5024437927663734
1.6177908113391983
1.737047898338221
1.8778103616813293
2.027370478983382
2.175953079178885
2.314760508308896
2.4389051808406648
2.5454545454545454
2.635386119257087
2.708699902248289
2.768328445747801
2.81622678396872
2.8475073313782997
2.868035190615836
2.887585532746823
2.905180840664712
2.916911045943304
2.920821114369501
2.9159335288367547
2.900293255131965
2.8729227761485827
2.833822091886608
2.782013685239492
2.719452590420332
2.654936461388074
2.587487781036168
2.5112414467253177
2.43108504398827
2.3528836754643208
2.278592375366569
2.2111436950146626
2.1495601173020527
2.0948191593352883
2.047898338220919
2.006842619745845
1.9696969696969695
1.9364613880742916
1.9071358748778104
1.8807429130009776
1.8533724340175952
1.825024437927664
1.793743890518084
1.7605083088954057
1.726295210166178
1.6911045943304008
1.656891495601173
1.6226783968719452
1.5884652981427174
1.555229716520039
1.5278592375366569
1.504398826979472
1.479960899315738
1.455522971652004
1.4320625610948192
1.4105571847507332
1.3900293255131966
1.370478983382209
1.3499511241446724
1.3304007820136852
1.3118279569892473
1.2942326490713587
1.2776148582600195
1.2658846529814272
1.2570869990224829
1.2482893450635386
1.238514173998045
1.227761485826002
1.217008797653959
1.2072336265884651
1.198435972629521
1.1886608015640274
1.1788856304985338
