ppg
1.7038123167155426
1.6735092864125125
1.6412512218963833
1.6080156402737047
1.5777126099706744
1.547409579667644
1.5180840664711632
1.490713587487781
1.4652981427174976
1.444770283479961
1.4301075268817205
1.4164222873900294
1.3998044965786902
1.3812316715542523
1.3636363636363635
1.3450635386119256
1.324535679374389
1.3040078201368523
1.2854349951124144
1.2688172043010753
1.2551319648093842
1.2434017595307918
1.2375366568914956
1.2346041055718475
1.23069403714565
1.2238514173998043
1.2150537634408602
1.2052785923753666
1.1945259042033236
1.181818181818182
1.1700879765395895
1.1612903225806452
1.1534701857282503
1.1466275659824048
1.1407624633431086
1.1378299120234605
1.1368523949169111
1.1319648093841643
1.1231671554252198
1.1133919843597262
1.1026392961876832
1.0918866080156402
1.0801564027370478
1.0694037145650048
1.0596285434995112
1.0527859237536656
1.050830889540567
1.0557184750733135
1.0694037145650048
1.0977517106549364
1.147605083088954
1.2238514173998043
1.3294232649071358
1.4604105571847508
1.6129032258064515
1.7839687194525904
1.9618768328445748
2.136852394916911
2.303030303030303
2.4545454545454546
2.570869990224829
2.644183773216031
2.7008797653958942
2.7517106549364616
2.789833822091887
2.8132942326490715
2.822091886608016
2.819159335288368
2.8084066471163247
2.788856304985337
2.758553274682307
2.718475073313783
2.6725317693059627
2.619745845552297
2.555229716520039
2.4819159335288368
2.39980449657869
2.310850439882698
2.218963831867057
2.1309872922776147
2.048875855327468
1.9726295210166176
1.903225806451613
1.842619745845552
1.7927663734115349
1.7546432062561097
1.7253176930596286
1.699902248289345
1.6774193548387095
1.6588465298142718
1.6441837732160314
1.632453567937439
1.6226783968719452
1.611925708699902
1.6021505376344083
1.5913978494623655
1.5777126099706744
1.565982404692082
1.5542521994134897
1.5376344086021505
1.517106549364614
1.4926686217008798
1.466275659824047
1.439882697947214
1.41544477028348
1.3919843597262953
1.3665689149560116
1.33822091886608
1.3098729227761483
1.2825024437927663
1.2619745845552297
1.24633431085044
1.2297165200391007
1.2130987292277615
1.1964809384164223
1.1788856304985338
1.160312805474096
1.13880742913001
1.1163245356793745
1.0948191593352885
1.0762463343108504
1.0606060606060606
1.0518084066471165
1.04594330400782
1.0371456500488758
1.0283479960899315
1.021505376344086
1.013685239491691
1.0058651026392962
0.9990224828934506
0.9941348973607038
0.9902248289345064
0.9853372434017597
0.9804496578690128
0.9736070381231672
0.9687194525904204
0.9648093841642228
0.956989247311828
0.9472140762463344
0.9374389051808406
0.9266862170087976
0.916911045943304
0.9090909090909092
0.9012707722385142
0.8944281524926686
0.8895405669599218
0.8836754643206256
0.8826979472140762
0.8836754643206256
0.8836754643206256
0.8856304985337243
0.8905180840664711
0.9071358748778104
0.9413489736070382
0.9980449657869012
1.083088954056696
1.1974584555229717
1.3401759530791788
1.5034213098729228
1.6764418377321604
1.8299120234604105
1.970674486803519
2.121212121212121
2.264907135874878
2.3919843597262958
2.4995112414467253
2.58455522971652
2.650048875855328
2.696969696969697
2.7262952101661777
2.740957966764418
2.7419354838709675
2.730205278592375
2.7067448680351904
2.67644183773216
2.6392961876832843
2.592375366568915
2.5376344086021505
2.474095796676442
2.4027370478983383
2.326490713587488
2.244379276637341
2.160312805474096
2.0791788856304985
2.0019550342130987
1.9374389051808407
1.8836754643206255
1.833822091886608
1.7917888563049853
1.758553274682307
1.732160312805474
1.710654936461388
1.6920821114369502
1.6774193548387095
1.6627565982404693
1.6490713587487782
1.6344086021505375
1.6217008797653958
1.6099706744868034
1.598240469208211
1.587487781036168
1.5728250244379276
1.5571847507331378
1.5405669599217986
1.5239491691104594
1.5073313782991202
1.487781036168133
1.4633431085043989
1.4389051808406648
1.4193548387096775
1.4027370478983383
1.380254154447703
1.3528836754643203
1.3255131964809383
1.2961876832844574
1.2668621700879763
1.241446725317693
1.2160312805474096
1.1915933528836755
1.1681329423264908
1.1456500488758554
1.1221896383186705
1.1026392961876832
1.0850439882697946
1.0654936461388074
1.0439882697947214
1.0224828934506354
0.9990224828934506
0.9745845552297164
0.9481915933528836
0.9217986314760508
0.9012707722385142
0.8885630498533724
0.8866080156402737
0.895405669599218
0.9149560117302052
0.9511241446725318
1.0039100684261977
1.0742913000977516
1.1593352883675463
1.2531769305962854
1.348973607038123
1.4457478005865103
1.5376344086021505
1.619745845552297
1.6920821114369502
1.7526881720430108
1.7956989247311828
1.826001955034213
1.8494623655913975
1.8641251221896384
1.8699902248289344
1.8699902248289344
1.8670576735092863
1.866080156402737
1.871945259042033
1.8934506353861196
1.935483870967742
2.0009775171065494
2.0733137829912023
2.158357771260997
2.274682306940372
2.412512218963832
2.5620723362658846
2.7116324535679373
2.855327468230694
2.986314760508309
3.0987292277614857
3.188660801564027
3.2580645161290325
3.3069403714565007
3.335288367546432
3.3440860215053765
3.340175953079179
3.329423264907136
3.310850439882698
3.2854349951124147
3.251221896383187
3.210166177908113
3.161290322580645
3.103616813294233
3.040078201368524
2.9696969696969697
2.8944281524926687
2.823069403714565
2.7536656891495603
2.6803519061583576
2.6070381231671558
2.5347018572825024
2.464320625610948
2.396871945259042
2.3362658846529816
2.2844574780058653
2.241446725317693
2.207233626588465
2.179863147605083
2.158357771260997
2.1388074291300097
2.120234604105572
2.101661779081134
2.081133919843597
2.058651026392962
2.035190615835777
2.007820136852395
1.978494623655914
1.949169110459433
1.920821114369501
1.89247311827957
1.86119257086999
1.8299120234604105
1.8005865102639296
1.7683284457478006
1.7331378299120237
1.6950146627565983
1.6559139784946235
1.6187683284457477
1.585532746823069
1.555229716520039
1.5268817204301075
1.501466275659824
1.478005865102639
1.455522971652004
1.4389051808406648
1.4242424242424243
1.4086021505376345
1.392961876832845
1.3792766373411536
1.367546432062561
1.3558162267839686
1.343108504398827
1.3284457478005864
1.3147605083088951
1.3020527859237536
1.2913000977517106
1.2854349951124144
1.2825024437927663
1.2795698924731185
1.2756598240469208
1.270772238514174
1.2668621700879763
1.2619745845552297
1.2551319648093842
1.24633431085044
1.2375366568914956
1.2267839687194526
1.217008797653959
1.2082111436950147
1.2013685239491692
1.1964809384164223
1.1896383186705768
1.181818181818182
1.1730205278592376
1.164222873900293
1.155425219941349
1.1485826001955035
1.144672531769306
1.1436950146627567
1.1495601173020529
1.166177908113392
1.1915933528836755
1.2297165200391007
1.289345063538612
1.3724340175953078
1.47702834799609
1.5972629521016617
1.729227761485826
1.8670576735092863
2.002932551319648
2.1300097751710654
2.24633431085044
2.3489736070381237
2.434017595307918
2.493646138807429
2.532746823069404
2.5640273704789838
2.587487781036168
2.603128054740958
2.608993157380254
2.606060606060606
2.5943304007820136
2.5747800586510263
2.548387096774193
2.515151515151515
2.474095796676442
2.43108504398827
2.383186705767351
2.3274682306940373
2.264907135874878
2.198435972629521
2.1300097751710654
2.06158357771261
1.9951124144672527
1.932551319648094
1.8758553274682308
1.827956989247312
1.7898338220918866
1.7595307917888563
1.7380254154447703
1.7243401759530792
1.7126099706744868
1.704789833822092
1.6979472140762464
1.6911045943304008
1.6842619745845553
1.6764418377321604
1.6686217008797657
1.6598240469208212
1.651026392961877
1.6412512218963833
1.6304985337243405
1.6177908113391983
1.6021505376344083
1.5865102639296187
1.5718475073313782
1.555229716520039
1.5366568914956011
1.5161290322580645
1.4936461388074291
1.4711632453567938
1.4496578690127078
1.4301075268817205
1.4115347018572826
1.3958944281524928
1.3822091886608017
1.367546432062561
1.3528836754643203
1.3362658846529814
1.3186705767350928
1.3020527859237536
1.2864125122189638
1.2727272727272727
1.2609970674486803
1.249266862170088
1.238514173998045
1.2316715542521994
1.2267839687194526
1.2189638318670577
1.2130987292277615
1.2082111436950147
1.203323558162268
1.198435972629521
1.1915933528836755
1.1837732160312806
1.176930596285435
1.1720430107526882
1.1671554252199414
1.164222873900293
1.163245356793744
1.160312805474096
1.1564027370478984
1.1534701857282503
1.152492668621701
1.1515151515151516
1.1485826001955035
1.144672531769306
1.141739980449658
1.1397849462365592
1.1397849462365592
1.1436950146627567
1.1534701857282503
1.173998044965787
1.2101661779081134
1.2658846529814272
1.343108504398827
1.4418377321603129
1.5591397849462365
1.6911045943304008
1.83088954056696
1.9716520039100685
2.1055718475073317
2.2297165200391005
2.326490713587488
2.404692082111437
2.4819159335288368
2.547409579667644
2.601173020527859
2.644183773216031
2.675464320625611
2.695014662756598
2.702834799608993
2.702834799608993
2.6930596285435
2.674486803519061
2.6471163245356792
2.613880742913001
2.575757575757576
2.530791788856305
2.4809384164222874
2.426197458455523
2.366568914956012
2.304985337243402
2.2404692082111435
2.174975562072336
2.112414467253177
2.0547409579667644
2.004887585532747
1.963831867057673
1.9305962854349952
1.902248289345064
1.8807429130009776
1.865102639296188
1.855327468230694
1.847507331378299
1.8416422287390029
1.836754643206256
1.8318670576735088
1.826001955034213
1.8172043010752688
1.804496578690127
1.790811339198436
1.7741935483870968
1.7526881720430108
1.7272727272727273
1.7018572825024438
1.6764418377321604
1.651026392961877
1.6256109481915937
1.6011730205278591
1.5777126099706744
1.555229716520039
1.533724340175953
1.5161290322580645
1.5024437927663734
1.4858260019550342
1.4701857282502444
1.4535679374389052
1.4379276637341154
1.423264907135875
1.409579667644184
1.3988269794721409
1.3890518084066472
1.3792766373411536
1.3695014662756595
1.3607038123167154
1.35386119257087
1.3479960899315735
1.3401759530791788
1.332355816226784
1.3235581622678396
1.3147605083088951
1.305962854349951
1.2981427174975562
1.2913000977517106
1.2854349951124144
1.2805474095796676
1.278592375366569
1.2805474095796676
1.2854349951124144
1.2883675464320623
1.289345063538612
1.2873900293255132
1.2834799608993157
1.2795698924731185
1.2756598240469208
1.270772238514174
1.2668621700879763
1.2609970674486803
1.2531769305962854
1.2453567937438903
1.2404692082111437
1.2394916911045943
1.2453567937438903
1.2619745845552297
1.2942326490713587
1.3470185728250244
1.423264907135875
1.52297165200391
1.6412512218963833
1.7741935483870968
1.9130009775171064
2.053763440860215
2.1700879765395893
2.2688172043010755
2.4281524926686218
2.613880742913001
2.7497556207233624
2.8533724340175954
2.9315738025415445
2.9872922776148583
3.0234604105571847
3.04594330400782
3.056695992179863
3.056695992179863
3.0449657869012707
3.0234604105571847
2.9931573802541545
2.9550342130987293
2.9071358748778104
2.8484848484848486
2.780058651026393
2.705767350928641
2.6265884652981426
2.544477028347996
2.462365591397849
2.380254154447703
2.302052785923754
2.233626588465298
2.175953079178885
2.124144672531769
2.081133919843597
2.047898338220919
2.024437927663734
2.006842619745845
1.992179863147605
1.9794721407624636
1.9667644183773216
1.9530791788856303
1.9374389051808407
1.920821114369501
1.906158357771261
1.8914956011730208
1.8748778103616808
1.8563049853372435
1.8347996089931573
1.8093841642228736
1.7820136852394917
1.7526881720430108
1.7204301075268815
1.6871945259042034
1.6529814271749756
1.619745845552297
1.5913978494623655
1.5679374389051808
1.5464320625610948
1.5239491691104594
1.499511241446725
1.474095796676442
1.4467253176930597
1.4193548387096775
1.3919843597262953
1.3665689149560116
1.343108504398827
1.3196480938416422
1.2971652003910068
1.2825024437927663
1.2717497556207231
1.2609970674486803
1.249266862170088
1.2375366568914956
1.2258064516129032
1.2140762463343109
1.2043010752688172
1.1964809384164223
1.1867057673509287
1.1759530791788857
1.1681329423264908
1.164222873900293
1.1622678396871946
1.1583577712609971
1.1534701857282503
1.1466275659824048
1.1368523949169111
1.1280547409579669
1.121212121212121
1.1114369501466277
1.1006842619745845
1.0909090909090908
1.0801564027370478
1.0733137829912025
1.0703812316715542
1.0654936461388074
1.0606060606060606
1.0557184750733135
1.053763440860215
1.06158357771261
1.086021505376344
1.130987292277615
1.2013685239491692
1.3010752688172045
1.4252199413489737
1.5708699902248289
1.710654936461388
1.8484848484848484
2.003910068426197
2.161290322580645
2.3098729227761488
2.441837732160313
2.555229716520039
2.649071358748778
2.7223851417399803
2.7751710654936463
2.8084066471163247
2.8240469208211145
2.823069403714565
2.811339198435973
2.791788856304985
2.763440860215054
2.724340175953079
2.679374389051808
2.627565982404692
2.5669599217986314
2.4995112414467253
2.426197458455523
2.347996089931574
2.264907135874878
2.182795698924731
2.113391984359726
2.050830889540567
1.988269794721408
1.9305962854349952
1.8797653958944285
1.8377321603128052
1.804496578690127
1.780058651026393
1.7605083088954057
1.7458455522971652
1.7341153470185728
1.7223851417399805
1.7126099706744868
1.7028347996089932
1.6930596285434996
1.6793743890518085
1.6608015640273706
1.6392961876832846
1.6158357771260996
1.590420332355816
1.563049853372434
1.5347018572825024
1.5063538611925709
1.478005865102639
1.447702834799609
1.4193548387096775
1.3919843597262953
1.3636363636363635
1.335288367546432
1.3069403714565004
1.281524926686217
1.2551319648093842
1.23069403714565
1.2101661779081134
1.1906158357771262
1.1720430107526882
1.1544477028347997
1.1407624633431086
1.1300097751710656
1.1192570869990224
1.110459433040078
1.1036168132942326
1.096774193548387
1.0909090909090908
1.0850439882697946
1.0791788856304985
1.0733137829912025
1.067448680351906
1.06158357771261
1.0576735092864125
1.056695992179863
1.0576735092864125
1.0576735092864125
1.056695992179863
1.0234604105571847
1.0195503421309873
1.0127077223851415
1.0048875855327468
0.9980449657869012
0.9902248289345064
0.9863147605083088
0.9843597262952102
0.9804496578690128
0.978494623655914
0.9775171065493646
0.9765395894428152
0.9765395894428152
0.9765395894428152
0.9765395894428152
0.9765395894428152
0.9794721407624634
0.9912023460410556
1.0146627565982405
1.053763440860215
1.1173020527859236
1.2111436950146628
1.3362658846529814
1.487781036168133
1.6578690127077225
1.839687194525904
2.022482893450636
2.20039100684262
2.364613880742913
2.5083088954056696
2.627565982404692
2.7096774193548385
2.768328445747801
2.819159335288368
2.8563049853372435
2.8797653958944283
2.889540566959922
2.8905180840664717
2.881720430107527
2.863147605083089
2.835777126099707
2.798631476050831
2.752688172043011
2.701857282502444
2.644183773216031
2.575757575757576
2.5004887585532747
2.419354838709677
2.334310850439883
2.247311827956989
2.163245356793744
2.086021505376344
2.016617790811339
1.9560117302052784
1.9042033235581624
1.8631476050830889
1.833822091886608
1.812316715542522
1.7986314760508308
1.790811339198436
1.7849462365591398
1.7790811339198436
1.7702834799608993
1.7595307917888563
1.747800586510264
1.7360703812316716
1.7204301075268815
1.7008797653958945
1.6813294232649072
1.6627565982404693
1.6392961876832846
1.6129032258064515
1.587487781036168
1.564027370478983
1.5395894428152492
1.517106549364614
1.4936461388074291
1.4682306940371457
1.4535679374389052
1.4437927663734116
1.426197458455523
1.409579667644184
1.392961876832845
1.3714565004887584
1.3479960899315735
1.3235581622678396
1.3020527859237536
1.281524926686217
1.2639296187683284
1.2482893450635386
1.2326490713587488
1.2179863147605083
1.203323558162268
1.1925708699902249
1.1867057673509287
1.1808406647116323
1.1749755620723363
1.1691104594330402
1.1622678396871946
1.1564027370478984
1.1495601173020529
1.1436950146627567
1.1368523949169111
1.1290322580645162
1.118279569892473
1.1085043988269794
1.1036168132942326
1.1016617790811338
1.096774193548387
1.0918866080156402
1.086021505376344
1.0801564027370478
1.072336265884653
1.0635386119257086
1.0576735092864125
1.0547409579667644
1.0547409579667644
1.0547409579667644
1.0547409579667644
1.0547409579667644
1.0547409579667644
1.0547409579667644
1.0547409579667644
1.0684261974584557
1.1026392961876832
1.1612903225806452
1.2482893450635386
1.364613880742913
1.5073313782991202
1.6705767350928642
1.8494623655913975
2.0127077223851417
2.164222873900293
2.329423264907136
2.489736070381232
2.635386119257087
2.760508308895406
2.863147605083089
2.941348973607038
2.997067448680352
3.032258064516129
3.0498533724340176
3.053763440860215
3.046920821114369
3.032258064516129
3.0117302052785924
2.9824046920821115
2.9442815249266863
2.8963831867057674
2.838709677419355
2.771260997067449
2.695014662756598
2.611925708699902
2.5239491691104594
2.4359726295210167
2.3519061583577714
2.2795698924731185
2.21505376344086
2.150537634408602
2.0928641251221896
2.0449657869012707
2.006842619745845
1.9765395894428155
1.9550342130987293
1.9403714565004888
1.9305962854349952
1.921798631476051
1.911045943304008
1.8983382209188664
1.8836754643206255
1.8670576735092863
1.8504398826979471
1.8347996089931573
1.81524926686217
1.7927663734115349
1.76930596285435
1.7448680351906158
1.7194525904203324
1.694037145650049
1.6686217008797657
1.6422287390029326
1.6177908113391983
1.5962854349951123
1.5708699902248289
1.541544477028348
1.5112414467253177
1.4819159335288368
1.456500488758553
1.434017595307918
1.4134897360703813
1.392961876832845
1.3734115347018572
1.35386119257087
1.3391984359726294
1.3255131964809383
1.3088954056695992
1.2913000977517106
1.2727272727272727
1.2590420332355816
1.249266862170088
1.241446725317693
1.2336265884652982
1.2267839687194526
1.219941348973607
1.2130987292277615
1.2072336265884651
1.2052785923753666
1.206256109481916
1.203323558162268
1.198435972629521
1.1935483870967742
1.187683284457478
1.1798631476050832
1.1681329423264908
1.155425219941349
1.1466275659824048
1.13880742913001
1.1319648093841643
1.1280547409579669
1.126099706744868
1.1221896383186705
1.1173020527859236
1.1133919843597262
1.1094819159335287
1.104594330400782
1.0987292277614855
1.0909090909090908
1.0821114369501466
1.0742913000977516
1.072336265884653
1.0840664711632453
1.1085043988269794
1.1495601173020529
1.2150537634408602
1.3079178885630498
1.43108504398827
1.581622678396872
1.7556207233626588
1.9442815249266865
2.1378299120234603
2.3255131964809386
2.4975562072336266
2.649071358748778
2.7624633431085046
2.8484848484848486
2.924731182795699
2.983382209188661
3.0234604105571847
3.04594330400782
3.050830889540567
3.042033235581622
3.021505376344086
2.989247311827957
2.9472140762463344
2.8993157380254155
2.8484848484848486
2.790811339198436
2.7233626588465296
2.6480938416422286
2.565982404692082
2.4789833822091887
2.388074291300098
2.2961876832844577
2.209188660801564
2.1300097751710654
2.060606060606061
2.0
1.9501466275659824
1.913978494623656
1.8885630498533723
1.869012707722385
1.8563049853372435
1.8484848484848484
1.842619745845552
1.836754643206256
1.83088954056696
1.823069403714565
1.812316715542522
1.7996089931573802
1.7820136852394917
1.7634408602150538
1.7448680351906158
1.7223851417399805
1.6989247311827955
1.6744868035190617
1.651026392961877
1.6265884652981428
1.598240469208211
1.56891495601173
1.5376344086021505
1.5063538611925709
1.4760508308895406
1.4486803519061584
1.4271749755620724
1.4086021505376345
1.3861192570869991
1.3616813294232648
1.33822091886608
1.3176930596285434
1.2971652003910068
1.2776148582600195
1.260019550342131
1.2443792766373412
1.2326490713587488
1.2228739002932552
1.2179863147605083
1.2160312805474096
1.2111436950146628
1.206256109481916
1.1974584555229717
1.1867057673509287
1.1779081133919844
1.1671554252199414
1.155425219941349
1.1466275659824048
1.13880742913001
1.1319648093841643
1.1251221896383188
1.121212121212121
1.1192570869990224
1.115347018572825
1.110459433040078
1.104594330400782
1.0987292277614855
1.0928641251221896
1.086021505376344
1.078201368523949
1.067448680351906
1.0596285434995112
1.0557184750733135
1.053763440860215
1.050830889540567
1.04594330400782
1.040078201368524
1.024437927663734
1.0058651026392962
0.997067448680352
0.9941348973607038
1.0
1.0224828934506354
1.064516129032258
1.1290322580645162
1.2228739002932552
1.3255131964809383
1.4408602150537635
1.5894428152492668
1.7605083088954057
1.943304007820137
2.12316715542522
2.2952101661779083
2.4516129032258065
2.58455522971652
2.6930596285435
2.780058651026393
2.8455522971652005
2.884652981427175
2.9042033235581624
2.913978494623656
2.9120234604105573
2.8993157380254155
2.873900293255132
2.835777126099707
2.7869012707722387
2.730205278592375
2.665689149560117
2.592375366568915
2.512218963831867
2.4271749755620724
2.347018572825025
2.270772238514174
2.190615835777126
2.1114369501466275
2.037145650048876
1.9716520039100685
1.9159335288367547
1.869012707722385
1.8347996089931573
1.8113391984359728
1.7927663734115349
1.7771260997067448
1.7653958944281525
1.7546432062561097
1.7448680351906158
1.7360703812316716
1.7272727272727273
1.7204301075268815
1.7135874877810362
1.7038123167155426
1.6920821114369502
1.6803519061583578
1.664711632453568
1.6451612903225807
1.624633431085044
1.606060606060606
1.5865102639296187
1.5610948191593352
1.5327468230694037
1.5024437927663734
1.4721407624633431
1.4428152492668622
1.41544477028348
1.3890518084066472
1.3636363636363635
1.33822091886608
1.3128054740957966
1.29227761485826
1.2746823069403714
1.2551319648093842
1.2375366568914956
1.2218963831867058
1.2082111436950147
1.1945259042033236
1.1798631476050832
1.1671554252199414
1.1573802541544478
1.1495601173020529
1.142717497556207
1.1329423264907137
1.1241446725317692
1.1202346041055715
1.115347018572825
1.1094819159335287
1.1036168132942326
1.0977517106549364
1.0909090909090908
1.0850439882697946
1.0791788856304985
1.072336265884653
1.0625610948191593
1.0518084066471165
1.0469208211143697
1.0439882697947214
1.0391006842619743
1.0342130987292275
1.0283479960899315
1.0234604105571847
1.021505376344086
1.0205278592375366
1.0166177908113392
1.0097751710654936
1.0019550342130987
0.9931573802541545
0.9872922776148584
0.9872922776148584
0.9912023460410556
0.997067448680352
1.0146627565982405
1.0478983382209188
1.1055718475073313
1.1906158357771262
1.3040078201368523
1.444770283479961
1.607038123167155
1.7849462365591398
1.9726295210166176
2.134897360703812
2.278592375366569
2.429130009775171
2.5698924731182795
2.6930596285435
2.795698924731183
2.873900293255132
2.9286412512218964
2.963831867057673
2.981427174975562
2.983382209188661
2.973607038123167
2.9550342130987293
2.927663734115347
2.89247311827957
2.84652981427175
2.792766373411535
2.7311827956989245
2.6608015640273703
2.5835777126099706
2.5004887585532747
2.4115347018572826
2.32355816226784
2.2404692082111435
2.1622678396871944
2.096774193548387
2.0439882697947214
1.997067448680352
1.956989247311828
1.9227761485826005
1.8944281524926687
1.870967741935484
1.8523949169110456
1.8406647116324533
1.8299120234604105
1.818181818181818
1.8074291300097751
1.7986314760508308
1.7898338220918866
1.7790811339198436
1.7673509286412512
1.7526881720430108
1.732160312805474
1.7096774193548387
1.686217008797654
