ppg
1.0596285434995112
1.0928641251221896
1.1466275659824048
1.2238514173998043
1.3255131964809383
1.4506353861192571
1.595307917888563
1.7546432062561097
1.919843597262952
2.064516129032258
2.193548387096774
2.3304007820136854
2.462365591397849
2.581622678396872
2.684261974584555
2.7702834799608995
2.8396871945259043
2.89345063538612
2.935483870967742
2.9657869012707723
2.986314760508309
2.992179863147605
2.989247311827957
2.983382209188661
2.9716520039100685
2.951124144672532
2.921798631476051
2.8807429130009776
2.827956989247312
2.763440860215054
2.6901270772238512
2.608993157380254
2.5249266862170088
2.4389051808406648
2.361681329423265
2.2932551319648096
2.2248289345063537
2.163245356793744
2.112414467253177
2.0733137829912023
2.043010752688172
2.0205278592375366
2.002932551319648
1.989247311827957
1.9765395894428155
1.9618768328445748
1.945259042033236
1.9266862170087975
1.903225806451613
1.873900293255132
1.839687194525904
1.801564027370479
1.761485826001955
1.718475073313783
1.6735092864125125
1.6275659824046922
1.5806451612903225
1.5347018572825024
1.495601173020528
1.4604105571847508
1.4213098729227762
1.383186705767351
1.3470185728250244
1.313782991202346
1.284457478005865
1.2590420332355816
1.2365591397849462
1.217008797653959
1.2003910068426198
1.1867057673509287
1.173998044965787
1.166177908113392
1.1612903225806452
1.155425219941349
1.1485826001955035
1.141739980449658
1.1358748778103618
1.1300097751710656
1.1241446725317692
1.118279569892473
1.1124144672531768
1.1055718475073313
1.0977517106549364
1.0918866080156402
1.0879765395894427
1.0811339198435972
1.0713587487781036
1.0596285434995112
1.0469208211143697
1.0332355816226784
1.0195503421309873
1.0058651026392962
0.9912023460410556
0.978494623655914
0.967741935483871
0.956989247311828
0.9521016617790812
0.9501466275659824
0.9472140762463344
0.9433040078201368
0.9393939393939394
0.9374389051808406
0.9364613880742912
0.9364613880742912
0.93841642228739
0.9423264907135877
0.9501466275659824
0.9638318670576737
0.9843597262952102
1.013685239491691
1.0576735092864125
1.1202346041055715
1.203323558162268
1.3079178885630498
1.4330400782013686
1.5747800586510263
1.7282502443792769
1.8856304985337244
2.040078201368524
2.1847507331378297
2.317693059628544
2.420332355816227
2.496578690127077
2.565982404692082
2.6236559139784945
2.668621700879765
2.7008797653958942
2.721407624633431
2.732160312805474
2.735092864125122
2.730205278592375
2.716520039100684
2.6930596285435
2.662756598240469
2.6265884652981426
2.5806451612903225
2.5249266862170088
2.4613880742913
2.391006842619746
2.318670576735093
2.24633431085044
2.177908113391984
2.114369501466276
2.058651026392962
2.010752688172043
1.970674486803519
1.9403714565004888
1.9149560117302051
1.89247311827957
1.871945259042033
1.8504398826979471
1.828934506353861
1.8054740957966764
1.780058651026393
1.7526881720430108
1.7233626588465298
1.694037145650049
1.6637341153470186
1.6363636363636365
1.6099706744868034
1.581622678396872
1.5503421309872922
1.5180840664711632
1.4858260019550342
1.4535679374389052
1.4222873900293256
1.392961876832845
1.3665689149560116
1.3421309872922775
1.3196480938416422
1.300097751710655
1.2854349951124144
1.2746823069403714
1.262952101661779
1.2502443792766371
1.238514173998045
1.2287390029325511
1.2209188660801564
1.2150537634408602
1.2111436950146628
1.2072336265884651
1.2043010752688172
1.2023460410557183
1.2023460410557183
1.203323558162268
1.2023460410557183
1.2013685239491692
1.2003910068426198
1.1994134897360704
1.1994134897360704
1.198435972629521
1.1964809384164223
1.1945259042033236
1.1915933528836755
1.1867057673509287
1.1808406647116323
1.1788856304985338
1.1779081133919844
1.1749755620723363
1.1730205278592376
1.1700879765395895
1.1681329423264908
1.1671554252199414
1.1671554252199414
1.1671554252199414
1.1671554252199414
1.166177908113392
1.164222873900293
1.164222873900293
1.1652003910068427
1.1652003910068427
1.1652003910068427
1.1681329423264908
1.1779081133919844
1.198435972629521
1.2346041055718475
1.2903225806451613
1.3695014662756595
1.4721407624633431
1.5962854349951123
1.737047898338221
1.868035190615836
1.9951124144672527
2.139784946236559
2.2854349951124147
2.4242424242424243
2.550342130987292
2.6608015640273703
2.7546432062561097
2.832844574780059
2.897360703812317
2.949169110459433
2.991202346041056
3.01564027370479
3.0283479960899315
3.0391006842619745
3.0449657869012707
3.0439882697947214
3.035190615835777
3.0175953079178885
2.991202346041056
2.9550342130987293
2.9071358748778104
2.8475073313782997
2.777126099706745
2.697947214076246
2.621700879765396
2.5464320625610948
2.4652981427174976
2.383186705767351
2.304007820136853
2.23069403714565
2.164222873900293
2.1055718475073317
2.0547409579667644
2.0117302052785924
1.9745845552297163
1.9413489736070384
1.913978494623656
1.889540566959922
1.8641251221896384
1.8377321603128052
1.8084066471163245
1.7761485826001957
1.7419354838709675
1.7067448680351909
1.6705767350928642
1.6344086021505375
1.598240469208211
1.5620723362658846
1.5327468230694037
1.5053763440860215
1.4750733137829912
1.4428152492668622
1.4105571847507332
1.3792766373411536
1.348973607038123
1.3196480938416422
1.2932551319648091
1.2697947214076246
1.249266862170088
1.2316715542521994
1.2150537634408602
1.2023460410557183
1.1915933528836755
1.1798631476050832
1.1691104594330402
1.1573802541544478
1.147605083088954
1.1378299120234605
1.1290322580645162
1.1221896383186705
1.1163245356793745
1.1114369501466277
1.1065493646138806
1.104594330400782
1.104594330400782
1.1016617790811338
1.0977517106549364
1.0928641251221896
1.0869990224828934
1.0811339198435972
1.075268817204301
1.0694037145650048
1.0654936461388074
1.0625610948191593
1.0596285434995112
1.0576735092864125
1.0576735092864125
1.0596285434995112
1.0596285434995112
1.0586510263929618
1.056695992179863
1.053763440860215
1.0498533724340176
1.0449657869012707
1.040078201368524
1.0361681329423265
1.035190615835777
1.040078201368524
1.0518084066471165
1.0733137829912025
1.1085043988269794
1.163245356793744
1.2404692082111437
1.3411534701857282
1.4613880742913
1.598240469208211
1.747800586510264
1.902248289345064
2.0557184750733137
2.2023460410557183
2.337243401759531
2.441837732160313
2.5249266862170088
2.6041055718475072
2.6725317693059627
2.727272727272727
2.76930596285435
2.801564027370479
2.8240469208211145
2.838709677419355
2.8455522971652005
2.844574780058651
2.8367546432062563
2.819159335288368
2.7947214076246336
2.7614858260019552
2.718475073313783
2.664711632453568
2.5992179863147604
2.525904203323558
2.44672531769306
2.364613880742913
2.283479960899316
2.206256109481916
2.134897360703812
2.070381231671554
2.018572825024438
1.9765395894428155
1.9393939393939397
1.9071358748778104
1.8797653958944285
1.8543499511241448
1.83088954056696
1.8074291300097751
1.7839687194525904
1.758553274682307
1.7311827956989247
1.7018572825024438
1.675464320625611
1.6500488758553276
1.619745845552297
1.5865102639296187
1.552297165200391
1.517106549364614
1.4731182795698925
1.4252199413489737
1.3851417399804498
1.3509286412512218
1.3196480938416422
1.289345063538612
1.2619745845552297
1.241446725317693
1.2258064516129032
1.209188660801564
1.1925708699902249
1.176930596285435
1.1612903225806452
1.147605083088954
1.1368523949169111
1.1270772238514175
1.1173020527859236
1.1094819159335287
1.1026392961876832
1.099706744868035
1.099706744868035
1.096774193548387
1.093841642228739
1.0909090909090908
1.0899315738025417
1.0879765395894427
1.086021505376344
1.0850439882697946
1.083088954056696
1.0801564027370478
1.0772238514173995
1.0733137829912025
1.072336265884653
1.0733137829912025
1.072336265884653
1.0713587487781036
1.0703812316715542
1.0703812316715542
1.0703812316715542
1.0703812316715542
1.0703812316715542
1.0694037145650048
1.0664711632453567
1.064516129032258
1.064516129032258
1.0654936461388074
1.064516129032258
1.064516129032258
1.0684261974584557
1.0811339198435972
1.10752688172043
1.1515151515151516
1.2179863147605083
1.3079178885630498
1.4213098729227762
1.555229716520039
1.7038123167155426
1.839687194525904
1.9667644183773216
2.10850439882698
2.249266862170088
2.3822091886608017
2.501466275659824
2.6050830889540566
2.69208211143695
2.763440860215054
2.8211143695014664
2.8670576735092865
2.902248289345064
2.921798631476051
2.930596285434995
2.9393939393939394
2.9423264907135875
2.93841642228739
2.9257086999022484
2.902248289345064
2.868035190615836
2.8211143695014664
2.763440860215054
2.6959921798631474
2.6207233626588464
2.5405669599217986
2.464320625610948
2.3919843597262958
2.314760508308896
2.2375366568914954
2.166177908113392
2.1006842619745845
2.0439882697947214
1.9951124144672527
1.95405669599218
1.919843597262952
1.889540566959922
1.8602150537634408
1.8347996089931573
1.8113391984359728
1.7849462365591398
1.7565982404692082
1.726295210166178
1.6959921798631477
1.664711632453568
1.632453567937439
1.5992179863147604
1.5650048875855327
1.5298142717497556
1.4946236559139785
1.4604105571847508
1.4320625610948192
1.4076246334310851
1.380254154447703
1.3519061583577712
1.3235581622678396
1.2961876832844574
1.270772238514174
1.2473118279569892
1.2258064516129032
1.206256109481916
1.1886608015640274
1.1720430107526882
1.160312805474096
1.1515151515151516
1.1407624633431086
1.1300097751710656
1.1192570869990224
1.1094819159335287
1.099706744868035
1.0918866080156402
1.0850439882697946
1.0801564027370478
1.075268817204301
1.0713587487781036
1.0703812316715542
1.0703812316715542
1.0684261974584557
1.0664711632453567
1.064516129032258
1.0606060606060606
1.056695992179863
1.0527859237536656
1.0478983382209188
1.0439882697947214
1.0410557184750733
1.0381231671554252
1.0361681329423265
1.0371456500488758
1.040078201368524
1.0420332355816226
1.043010752688172
1.043010752688172
1.0410557184750733
1.0391006842619743
1.0371456500488758
1.035190615835777
1.0332355816226784
1.0361681329423265
1.04594330400782
1.064516129032258
1.093841642228739
1.141739980449658
1.2111436950146628
1.303030303030303
1.4173998044965788
1.5493646138807429
1.6950146627565983
1.8484848484848484
2.004887585532747
2.155425219941349
2.294232649071359
2.4173998044965788
2.5102639296187683
2.5806451612903225
2.6471163245356792
2.705767350928641
2.7536656891495603
2.790811339198436
2.8181818181818183
2.8367546432062563
2.8475073313782997
2.8514173998044967
2.8484848484848486
2.8367546432062563
2.81622678396872
2.7869012707722387
2.747800586510264
2.6989247311827955
2.6392961876832843
2.5698924731182795
2.49266862170088
2.4115347018572826
2.3304007820136854
2.251221896383187
2.176930596285435
2.1094819159335287
2.0498533724340176
2.0009775171065494
1.9608993157380252
1.9237536656891496
1.8905180840664717
1.8592375366568916
1.83088954056696
1.8035190615835777
1.7771260997067448
1.7497556207233629
1.721407624633431
1.6920821114369502
1.6598240469208212
1.6304985337243405
1.6021505376344083
1.5698924731182795
1.5356793743890518
1.501466275659824
1.4672531769305963
1.434017595307918
1.401759530791789
1.370478983382209
1.3401759530791788
1.310850439882698
1.2834799608993157
1.2570869990224829
1.2375366568914956
1.2209188660801564
1.203323558162268
1.1837732160312806
1.1652003910068427
1.1495601173020529
1.1378299120234605
1.1280547409579669
1.1192570869990224
1.1124144672531768
1.1055718475073313
1.0987292277614855
1.0957966764418376
1.0948191593352885
1.0928641251221896
1.0899315738025417
1.0879765395894427
1.086021505376344
1.0840664711632453
1.0821114369501466
1.0791788856304985
1.075268817204301
1.072336265884653
1.0694037145650048
1.067448680351906
1.0684261974584557
1.0713587487781036
1.0713587487781036
1.0694037145650048
1.0664711632453567
1.0654936461388074
1.0654936461388074
1.0654936461388074
1.0654936461388074
1.0654936461388074
1.0654936461388074
1.0654936461388074
1.0596285434995112
1.0498533724340176
1.0439882697947214
1.043010752688172
1.0488758553274682
1.067448680351906
1.1026392961876832
1.1593352883675463
1.2394916911045943
1.3440860215053765
1.4731182795698925
1.6207233626588464
1.7820136852394917
1.9266862170087975
2.059628543499511
2.204301075268817
2.346041055718475
2.47702834799609
2.593352883675464
2.6930596285435
2.776148582600196
2.843597262952102
2.897360703812317
2.940371456500489
2.973607038123167
2.9902248289345064
2.9960899315738025
2.99902248289345
2.9960899315738025
2.986314760508309
2.9687194525904204
2.940371456500489
2.9012707722385143
2.850439882697948
2.788856304985337
2.716520039100684
2.635386119257087
2.548387096774193
2.4672531769305963
2.3900293255131966
2.3098729227761488
2.232649071358749
2.1593352883675463
2.0948191593352883
2.038123167155425
1.9902248289345064
1.948191593352884
1.911045943304008
1.8778103616813293
1.8455522971652003
1.8172043010752688
1.790811339198436
1.7624633431085044
1.7331378299120237
1.7018572825024438
1.6686217008797657
1.6344086021505375
1.5992179863147604
1.5620723362658846
1.5249266862170088
1.4887585532746823
1.452590420332356
1.4164222873900294
1.3870967741935485
1.3607038123167154
1.3313782991202343
1.3020527859237536
1.2727272727272727
1.2443792766373412
1.217008797653959
1.1925708699902249
1.1700879765395895
1.1495601173020529
1.1319648093841643
1.1163245356793745
1.1055718475073313
1.0977517106549364
1.088954056695992
1.0801564027370478
1.0703812316715542
1.06158357771261
1.0527859237536656
1.0449657869012707
1.0381231671554252
1.0342130987292275
1.0312805474095796
1.0283479960899315
1.0254154447702837
1.0254154447702837
1.0273704789833822
1.0273704789833822
1.0263929618768328
1.024437927663734
1.0224828934506354
1.0205278592375366
1.018572825024438
1.0156402737047898
1.013685239491691
1.0117302052785924
1.0087976539589445
1.0097751710654936
1.0117302052785924
1.0127077223851415
1.0127077223851415
1.0127077223851415
1.0146627565982405
1.0156402737047898
1.0156402737047898
1.0166177908113392
1.0195503421309873
1.024437927663734
1.0371456500488758
1.0576735092864125
1.0899315738025417
1.1407624633431086
1.2140762463343109
1.3118279569892473
1.4330400782013686
1.5757575757575757
1.7331378299120237
1.8993157380254155
2.065493646138808
2.225806451612903
2.3734115347018574
2.504398826979472
2.6041055718475072
2.6803519061583576
2.752688172043011
2.81622678396872
2.8699902248289346
2.913978494623656
2.948191593352884
2.973607038123167
2.991202346041056
3.0009775171065494
3.002932551319648
2.995112414467253
2.9765395894428157
2.9472140762463344
2.909090909090909
2.859237536656892
2.7976539589442817
2.727272727272727
2.6480938416422286
2.563049853372434
2.4760508308895406
2.389051808406647
2.3059628543499517
2.228739002932551
2.1593352883675463
2.101661779081134
2.053763440860215
2.0087976539589443
1.9687194525904204
1.932551319648094
1.8983382209188664
1.865102639296188
1.8328445747800584
1.801564027370479
1.7702834799608993
1.7380254154447703
1.704789833822092
1.6744868035190617
1.6471163245356797
1.6148582600195502
1.5806451612903225
1.544477028347996
1.5083088954056696
1.4721407624633431
1.435972629521017
1.3998044965786902
1.364613880742913
1.332355816226784
1.3010752688172045
1.2717497556207231
1.2502443792766371
1.2326490713587488
1.2121212121212122
1.1915933528836755
1.1710654936461389
1.1515151515151516
1.133919843597263
1.1173020527859236
1.1036168132942326
1.0918866080156402
1.0821114369501466
1.0742913000977516
1.0703812316715542
1.0694037145650048
1.0664711632453567
1.0625610948191593
1.0576735092864125
1.0527859237536656
1.0478983382209188
1.043010752688172
1.0391006842619743
1.035190615835777
1.032258064516129
1.0303030303030305
1.0273704789833822
1.0283479960899315
1.032258064516129
1.0342130987292275
1.035190615835777
1.035190615835777
1.0332355816226784
1.0312805474095796
1.029325513196481
1.0273704789833822
1.0263929618768328
1.0283479960899315
1.0371456500488758
1.053763440860215
1.0791788856304985
1.1192570869990224
1.1779081133919844
1.2570869990224829
1.3558162267839686
1.4721407624633431
1.6011730205278591
1.737047898338221
1.8758553274682308
2.010752688172043
2.1378299120234603
2.2531769305962857
2.3421309872922778
2.4134897360703813
2.482893450635386
2.544477028347996
2.5962854349951123
2.6392961876832843
2.6725317693059627
2.697947214076246
2.716520039100684
2.729227761485826
2.735092864125122
2.7331378299120237
2.721407624633431
2.7008797653958942
2.6725317693059627
2.633431085043988
2.582600195503421
2.5190615835777126
2.44672531769306
2.3685239491691106
2.286412512218964
2.2023460410557183
2.121212121212121
2.0449657869012707
1.975562072336266
1.9188660801564028
1.871945259042033
1.828934506353861
1.7927663734115349
1.761485826001955
1.7341153470185728
1.7086999022482894
1.683284457478006
1.6588465298142718
1.635386119257087
1.611925708699902
1.587487781036168
1.565982404692082
1.5464320625610948
1.52297165200391
1.4975562072336266
1.4701857282502444
1.439882697947214
1.4076246334310851
1.375366568914956
1.3421309872922775
1.3098729227761483
1.2795698924731185
1.2502443792766371
1.2218963831867058
1.1994134897360704
1.1808406647116323
1.160312805474096
1.1397849462365592
1.1202346041055715
1.1006842619745845
1.0811339198435972
1.06158357771261
1.0420332355816226
1.0224828934506354
1.0048875855327468
0.9882697947214076
0.9765395894428152
0.9696969696969696
0.9628543499511242
0.956989247311828
0.9530791788856304
0.9501466275659824
0.9491691104594332
0.9481915933528836
0.9481915933528836
0.9481915933528836
0.9491691104594332
0.9511241446725318
0.95405669599218
0.9589442815249268
0.9648093841642228
0.9696969696969696
0.9726295210166178
0.975562072336266
0.978494623655914
0.9804496578690128
0.981427174975562
0.981427174975562
0.9804496578690128
0.9804496578690128
0.9794721407624634
0.981427174975562
0.9843597262952102
0.9853372434017597
0.9843597262952102
0.9833822091886608
0.9824046920821116
0.9824046920821116
0.9833822091886608
0.9843597262952102
0.9853372434017597
0.9863147605083088
0.9882697947214076
0.9951124144672532
1.007820136852395
1.0312805474095796
1.0713587487781036
1.133919843597263
1.2228739002932552
1.3391984359726294
1.479960899315738
1.6412512218963833
1.8172043010752688
1.9980449657869013
2.176930596285435
2.347018572825025
2.482893450635386
2.593352883675464
2.7038123167155423
2.803519061583578
2.889540566959922
2.959921798631476
3.0175953079178885
3.0635386119257086
3.099706744868035
3.1270772238514173
3.145650048875855
3.15347018572825
3.146627565982405
3.1300097751710654
3.1065493646138806
3.075268817204301
3.032258064516129
2.978494623655914
2.913978494623656
2.8396871945259043
2.7565982404692084
2.668621700879765
2.578690127077224
2.4887585532746823
2.40078201368524
2.3255131964809386
2.260019550342131
2.1974584555229715
2.1407624633431084
2.09188660801564
2.047898338220919
2.0087976539589443
1.9726295210166176
1.93841642228739
1.905180840664712
1.871945259042033
1.8377321603128052
1.8084066471163245
1.7810361681329423
1.7517106549364614
1.7204301075268815
1.6871945259042034
1.651026392961877
1.6138807429130009
1.576735092864125
1.5395894428152492
1.5024437927663734
1.4652981427174976
1.4301075268817205
1.3958944281524928
1.3685239491691104
1.3450635386119256
1.3206256109481915
1.2961876832844574
1.2717497556207231
1.2473118279569892
1.2238514173998043
1.2003910068426198
1.1788856304985338
1.1583577712609971
1.13880742913001
1.1231671554252198
1.1133919843597262
1.1065493646138806
1.0987292277614855
1.0909090909090908
1.083088954056696
1.0742913000977516
1.0664711632453567
1.0586510263929618
1.0518084066471165
1.0449657869012707
1.0391006842619743
1.0342130987292275
1.0303030303030305
1.029325513196481
1.0303030303030305
1.0303030303030305
1.029325513196481
1.029325513196481
1.029325513196481
1.029325513196481
1.0283479960899315
1.0273704789833822
1.0263929618768328
1.024437927663734
1.0224828934506354
1.024437927663734
1.0273704789833822
1.0283479960899315
1.0283479960899315
1.0273704789833822
1.0263929618768328
1.024437927663734
1.0234604105571847
1.0254154447702837
1.0342130987292275
1.0547409579667644
1.0909090909090908
1.147605083088954
1.2130987292277615
1.2932551319648091
1.401759530791789
1.5347018572825024
1.6842619745845553
1.8435972629521016
2.006842619745845
2.166177908113392
2.314760508308896
2.447702834799609
2.5640273704789838
2.662756598240469
2.7331378299120237
2.7839687194525906
2.831867057673509
2.8729227761485827
2.9071358748778104
2.9335288367546437
2.952101661779081
2.961876832844575
2.963831867057673
2.9579667644183774
2.940371456500489
2.911045943304008
2.8690127077223853
2.820136852394917
2.764418377321604
2.696969696969697
2.619745845552297
2.535679374389052
2.447702834799609
2.3597262952101663
2.2737047898338223
2.1925708699902247
2.1163245356793743
2.047898338220919
1.9872922776148585
1.9374389051808407
1.8944281524926687
1.8514173998044965
1.8103616813294232
1.7702834799608993
1.732160312805474
1.694037145650049
1.656891495601173
1.6207233626588464
1.58455522971652
1.547409579667644
1.5112414467253177
1.4750733137829912
1.4437927663734116
1.4164222873900294
1.3861192570869991
1.3548387096774193
1.324535679374389
1.2942326490713587
1.2668621700879763
1.241446725317693
1.217008797653959
1.195503421309873
1.1759530791788857
1.1583577712609971
1.1456500488758554
1.1358748778103618
1.126099706744868
1.115347018572825
1.1055718475073313
1.0957966764418376
1.0869990224828934
1.0791788856304985
1.072336265884653
1.0654936461388074
1.0596285434995112
1.0547409579667644
1.0498533724340176
1.0586510263929618
1.0742913000977516
1.0791788856304985
1.0791788856304985
1.0772238514173995
1.0733137829912025
1.0694037145650048
1.0654936461388074
1.0625610948191593
1.0606060606060606
1.0576735092864125
1.0557184750733135
1.0557184750733135
1.0576735092864125
1.0576735092864125
1.056695992179863
1.0547409579667644
1.0527859237536656
1.0518084066471165
1.0518084066471165
1.0527859237536656
1.053763440860215
1.053763440860215
1.0518084066471165
1.0488758553274682
1.0488758553274682
1.0498533724340176
1.0488758553274682
1.050830889540567
1.0576735092864125
1.0733137829912025
1.1016617790811338
1.1466275659824048
1.2111436950146628
1.2971652003910068
1.404692082111437
1.5288367546432062
1.6451612903225807
1.7595307917888563
1.8914956011730208
2.027370478983382
2.158357771260997
2.278592375366569
2.3841642228739004
2.4750733137829912
2.550342130987292
2.610948191593353
2.658846529814272
2.695014662756598
2.7155425219941347
2.7253176930596283
2.7331378299120237
2.736070381231672
2.7311827956989245
2.719452590420332
2.6989247311827955
2.6695992179863146
2.63049853372434
2.5806451612903225
2.520039100684262
2.452590420332356
2.3792766373411536
2.3118279569892475
2.2482893450635384
2.1818181818181817
2.117302052785924
2.0576735092864125
2.004887585532747
1.9589442815249267
1.9188660801564028
1.884652981427175
1.855327468230694
1.828934506353861
1.804496578690127
1.782991202346041
1.7624633431085044
1.7390029325513197
1.7135874877810362
1.6871945259042034
1.6578690127077225
1.6275659824046922
1.595307917888563
1.5620723362658846
1.5288367546432062
1.4946236559139785
1.4613880742913
1.4291300097751711
1.4037145650048877
1.3812316715542523
1.3558162267839686
1.3294232649071358
1.3049853372434017
1.2825024437927663
1.260019550342131
1.238514173998045
1.2179863147605083
1.1994134897360704
1.1827956989247312
1.1681329423264908
1.1593352883675463
1.152492668621701
1.1456500488758554
1.1397849462365592
1.1348973607038124
1.1300097751710656
1.1251221896383188
