ppg
0.9413489736070382
0.927663734115347
0.9188660801564028
0.9178885630498532
0.927663734115347
0.9521016617790812
0.9872922776148584
1.0342130987292275
1.1016617790811338
1.1896383186705768
1.2942326490713587
1.4115347018572826
1.5405669599217986
1.6774193548387095
1.81524926686217
1.9521016617790807
2.0840664711632453
2.2082111436950145
2.3088954056695994
2.3919843597262958
2.49266862170088
2.579667644183773
2.6373411534701856
2.69208211143695
2.7419354838709675
2.7859237536656893
2.822091886608016
2.8826979472140764
2.951124144672532
2.986314760508309
3.0019550342130987
3.002932551319648
2.994134897360704
2.981427174975562
2.961876832844575
2.9335288367546437
2.884652981427175
2.835777126099707
2.7976539589442817
2.750733137829912
2.699902248289345
2.649071358748778
2.598240469208211
2.5513196480938416
2.498533724340176
2.450635386119257
2.4173998044965788
2.3812316715542523
2.345063538611926
2.3098729227761488
2.2766373411534704
2.233626588465298
2.187683284457478
2.157380254154448
2.133919843597263
2.0987292277614857
2.058651026392962
2.0195503421309877
1.9902248289345064
1.956989247311828
1.9130009775171064
1.881720430107527
1.857282502443793
1.8191593352883677
1.782991202346041
1.747800586510264
1.7135874877810362
1.6852394916911049
1.653958944281525
1.624633431085044
1.603128054740958
1.5806451612903225
1.555229716520039
1.533724340175953
1.5151515151515151
1.5024437927663734
1.487781036168133
1.4682306940371457
1.4545454545454546
1.439882697947214
1.4252199413489737
1.414467253176931
1.4027370478983383
1.391006842619746
1.3792766373411536
1.367546432062561
1.3558162267839686
1.3440860215053765
1.332355816226784
1.3206256109481915
1.3088954056695992
1.2971652003910068
1.2903225806451613
1.2883675464320623
1.2913000977517106
1.3040078201368523
1.3294232649071358
1.3685239491691104
1.4242424242424243
1.4975562072336266
1.587487781036168
1.6920821114369502
1.8074291300097751
1.9315738025415443
2.043010752688172
2.146627565982405
2.260019550342131
2.3743890518084068
2.484848484848485
2.587487781036168
2.6803519061583576
2.7624633431085046
2.833822091886608
2.8963831867057674
2.952101661779081
3.0
3.0391006842619745
3.065493646138808
3.0840664711632453
3.104594330400782
3.121212121212121
3.133919843597263
3.1407624633431084
3.139784946236559
3.131964809384164
3.117302052785924
3.0928641251221896
3.0576735092864125
3.013685239491691
2.9657869012707723
2.913978494623656
2.855327468230694
2.792766373411535
2.730205278592375
2.667644183773216
2.6070381231671558
2.548387096774193
2.490713587487781
2.436950146627566
2.388074291300098
2.3421309872922778
2.2981427174975564
2.260997067448681
2.2267839687194524
2.190615835777126
2.156402737047898
2.12316715542522
2.088954056695992
2.053763440860215
2.018572825024438
1.981427174975562
1.9442815249266865
1.90811339198436
1.871945259042033
1.8416422287390029
1.8132942326490715
1.7820136852394917
1.750733137829912
1.7194525904203324
1.689149560117302
1.6598240469208212
1.6314760508308896
1.603128054740958
1.5747800586510263
1.5503421309872922
1.5298142717497556
1.5112414467253177
1.498533724340176
1.487781036168133
1.4750733137829912
1.4604105571847508
1.4457478005865103
1.4320625610948192
1.4193548387096775
1.4076246334310851
1.3958944281524928
1.3841642228739004
1.3724340175953078
1.3607038123167154
1.3528836754643203
1.3470185728250244
1.3372434017595307
1.3264907135874875
1.316715542521994
1.3088954056695992
1.303030303030303
1.3010752688172045
1.305962854349951
1.3206256109481915
1.3499511241446724
1.3958944281524928
1.4594330400782014
1.5288367546432062
1.607038123167155
1.7057673509286413
1.8172043010752688
1.9374389051808407
2.0625610948191597
2.1867057673509285
2.3059628543499517
2.418377321603128
2.5210166177908118
2.6148582600195502
2.7008797653958942
2.766373411534702
2.8181818181818183
2.8699902248289346
2.917888563049853
2.960899315738025
2.9980449657869013
3.029325513196481
3.0557184750733137
3.0772238514174
3.0928641251221896
3.102639296187683
3.104594330400782
3.0987292277614857
3.0840664711632453
3.058651026392962
3.0254154447702835
2.98435972629521
2.9374389051808407
2.8836754643206257
2.825024437927664
2.764418377321604
2.702834799608993
2.6422287390029324
2.5835777126099706
2.5268817204301075
2.4780058651026398
2.4349951124144678
2.3929618768328447
2.3528836754643208
2.314760508308896
2.278592375366569
2.244379276637341
2.212121212121212
2.1788856304985336
2.144672531769306
2.1094819159335287
2.074291300097752
2.0391006842619745
2.0097751710654936
1.981427174975562
1.9472140762463344
1.9120234604105573
1.8758553274682308
1.8406647116324533
1.8054740957966764
1.7732160312805474
1.7419354838709675
1.7126099706744868
1.686217008797654
1.66177908113392
1.6441837732160314
1.629521016617791
1.611925708699902
1.5933528836754642
1.5718475073313782
1.5503421309872922
1.5317693059628543
1.5141739980449658
1.4975562072336266
1.482893450635386
1.4701857282502444
1.458455522971652
1.4467253176930597
1.4379276637341154
1.4301075268817205
1.418377321603128
1.404692082111437
1.3919843597262953
1.380254154447703
1.367546432062561
1.35386119257087
1.3411534701857282
1.3284457478005864
1.3186705767350928
1.3186705767350928
1.3186705767350928
1.3186705767350928
1.3186705767350928
1.3186705767350928
1.260019550342131
1.273704789833822
1.3294232649071358
1.412512218963832
1.5131964809384164
1.6265884652981428
1.7487781036168133
1.871945259042033
1.9960899315738023
2.099706744868035
2.188660801564027
2.2825024437927666
2.372434017595308
2.452590420332356
2.52297165200391
2.582600195503421
2.633431085043988
2.674486803519061
2.7067448680351904
2.7331378299120237
2.752688172043011
2.7595307917888565
2.7595307917888565
2.7565982404692084
2.748778103616813
2.735092864125122
2.7126099706744866
2.681329423264907
2.6402737047898337
2.591397849462365
2.5347018572825024
2.4711632453567938
2.4056695992179864
2.3411534701857284
2.283479960899316
2.23069403714565
2.176930596285435
2.124144672531769
2.0733137829912023
2.0254154447702835
1.9804496578690127
1.93841642228739
1.8963831867057677
1.8533724340175952
1.8113391984359728
1.76930596285435
1.7341153470185728
1.7018572825024438
1.6666666666666667
1.629521016617791
1.5913978494623655
1.5503421309872922
1.5083088954056696
1.4623655913978495
1.41544477028348
1.3685239491691104
1.3225806451612905
1.278592375366569
1.2434017595307918
1.2150537634408602
1.1837732160312806
1.1505376344086022
1.1163245356793745
1.0840664711632453
1.050830889540567
1.0195503421309873
0.9912023460410556
0.9638318670576737
0.9374389051808406
0.9110459433040078
0.8866080156402737
0.8699902248289345
0.8582600195503421
0.8435972629521017
0.8250244379276638
0.8054740957966764
0.7849462365591398
0.7644183773216031
0.7438905180840665
0.7253176930596286
0.70772238514174
0.6891495601173021
0.6695992179863147
0.6559139784946236
0.6471163245356794
0.6344086021505376
0.6207233626588465
0.6070381231671554
0.5943304007820137
0.5845552297165201
0.581622678396872
0.5884652981427175
0.6080156402737048
0.64613880742913
0.6999022482893451
0.7702834799608993
0.8465298142717498
0.9315738025415444
1.0361681329423265
1.1534701857282503
1.278592375366569
1.4086021505376345
1.5366568914956011
1.6588465298142718
1.772238514173998
1.8758553274682308
1.9687194525904204
2.0518084066471163
2.115347018572825
2.164222873900293
2.209188660801564
2.2502443792766376
2.2844574780058653
2.3098729227761488
2.3274682306940373
2.337243401759531
2.340175953079179
2.334310850439883
2.3196480938416424
2.297165200391007
2.2668621700879767
2.232649071358749
2.1955034213098727
2.1524926686217007
2.104594330400782
2.056695992179863
2.007820136852395
1.9608993157380252
1.9188660801564028
1.8807429130009776
1.8465298142717497
1.8162267839687196
1.7878787878787878
1.7644183773216031
1.7438905180840665
1.7233626588465298
1.7018572825024438
1.6803519061583578
1.6598240469208212
1.6392961876832846
1.6187683284457477
1.5962854349951123
1.5708699902248289
1.544477028347996
1.5180840664711632
1.4897360703812317
1.4643206256109482
1.4408602150537635
1.414467253176931
1.3870967741935485
1.359726295210166
1.332355816226784
1.305962854349951
1.2805474095796676
1.2570869990224829
1.2365591397849462
1.2179863147605083
1.2003910068426198
1.187683284457478
1.176930596285435
1.163245356793744
1.147605083088954
1.130987292277615
1.115347018572825
1.099706744868035
1.083088954056696
1.0684261974584557
1.0547409579667644
1.0410557184750733
1.029325513196481
1.0175953079178883
1.0097751710654936
1.0048875855327468
1.0009775171065494
0.9960899315738024
0.989247311827957
0.9833822091886608
0.9794721407624634
0.9775171065493646
0.978494623655914
0.9853372434017597
0.9990224828934506
1.0254154447702837
1.06158357771261
1.1085043988269794
1.1720430107526882
1.2541544477028348
1.3528836754643203
1.4623655913978495
1.5786901270772238
1.696969696969697
1.8132942326490715
1.924731182795699
2.029325513196481
2.124144672531769
2.2082111436950145
2.270772238514174
2.318670576735093
2.3626588465298144
2.3978494623655915
2.4252199413489737
2.4457478005865103
2.4574780058651027
2.4613880742913
2.458455522971652
2.449657869012708
2.434017595307918
2.412512218963832
2.3870967741935485
2.355816226783969
2.318670576735093
2.275659824046921
2.2297165200391005
2.1808406647116323
2.1309872922776147
2.0840664711632453
2.0391006842619745
1.9951124144672527
1.95405669599218
1.9178885630498532
1.884652981427175
1.857282502443793
1.8347996089931573
1.8142717497556209
1.7956989247311828
1.7781036168132942
1.7605083088954057
1.7429130009775171
1.7253176930596286
1.704789833822092
1.6823069403714566
1.6608015640273706
1.6383186705767352
1.6177908113391983
1.5972629521016617
1.5718475073313782
1.5454545454545454
1.5190615835777126
1.4936461388074291
1.4682306940371457
1.4428152492668622
1.418377321603128
1.3949169110459434
1.3724340175953078
1.3499511241446724
1.327468230694037
1.3098729227761483
1.2942326490713587
1.2766373411534702
1.2590420332355816
1.2424242424242424
1.2267839687194526
1.2121212121212122
1.198435972629521
1.1867057673509287
1.2688172043010753
1.396871945259042
1.4535679374389052
1.478005865102639
1.4897360703812317
1.4916911045943304
1.4868035190615836
1.478983382209189
1.469208211143695
1.458455522971652
1.4467253176930597
1.4349951124144673
1.423264907135875
1.4115347018572826
1.401759530791789
1.396871945259042
1.3978494623655917
1.404692082111437
1.423264907135875
1.455522971652004
1.504398826979472
1.5708699902248289
1.6559139784946235
1.7575757575757576
1.870967741935484
1.992179863147605
2.118279569892473
2.24633431085044
2.3548387096774195
2.4516129032258065
2.555229716520039
2.656891495601173
2.7517106549364616
2.8377321603128056
2.9149560117302054
2.9824046920821115
3.040078201368524
3.089931573802541
3.132942326490713
3.1681329423264906
3.188660801564027
3.19941348973607
3.2111436950146626
3.218963831867057
3.222873900293255
3.222873900293255
3.2160312805474094
3.201368523949169
3.1808406647116323
3.1515151515151514
3.112414467253177
3.065493646138808
3.0117302052785924
2.9579667644183774
2.9042033235581624
2.8455522971652005
2.78494623655914
2.7262952101661777
2.667644183773216
2.610948191593353
2.5591397849462365
2.5102639296187683
2.4672531769305963
2.4281524926686218
2.3919843597262958
2.360703812316716
2.3313782991202348
2.2991202346041058
2.2668621700879767
2.2355816226783967
2.2023460410557183
2.1681329423264906
2.133919843597263
2.0977517106549364
2.06158357771261
2.026392961876833
1.992179863147605
1.9579667644183771
1.9296187683284456
1.9042033235581624
1.8758553274682308
1.8455522971652003
1.81524926686217
1.7859237536656891
1.758553274682307
1.7331378299120237
1.7096774193548387
1.6881720430107527
1.667644183773216
1.6490713587487782
1.6363636363636365
1.6275659824046922
1.6187683284457477
1.607038123167155
1.595307917888563
1.5835777126099706
1.5708699902248289
1.5562072336265884
1.541544477028348
1.525904203323558
1.5112414467253177
1.498533724340176
1.4868035190615836
1.478005865102639
1.4701857282502444
1.4604105571847508
1.4496578690127078
1.4408602150537635
1.435972629521017
1.4389051808406648
1.4516129032258065
1.478005865102639
1.520039100684262
1.5786901270772238
1.6549364613880744
1.7331378299120237
1.818181818181818
1.921798631476051
2.038123167155425
2.160312805474096
2.281524926686217
2.398826979472141
2.5112414467253177
2.6158357771261
2.710654936461388
2.795698924731183
2.8719452590420333
2.93841642228739
2.9872922776148583
3.0234604105571847
3.059628543499511
3.0948191593352883
3.126099706744868
3.1524926686217007
3.1730205278592374
3.1867057673509285
3.193548387096774
3.193548387096774
3.185728250244379
3.16911045943304
3.144672531769306
3.112414467253177
3.074291300097752
3.0303030303030303
2.9804496578690127
2.924731182795699
2.866080156402737
2.806451612903226
2.7468230694037143
2.687194525904203
2.63049853372434
2.578690127077224
2.529814271749756
2.4887585532746823
2.452590420332356
2.4164222873900294
2.3822091886608017
2.3499511241446727
2.318670576735093
2.286412512218964
2.254154447702835
2.222873900293255
2.189638318670577
2.156402737047898
2.1221896383186705
2.090909090909091
2.06158357771261
2.0283479960899315
1.9960899315738023
1.962854349951124
1.9286412512218964
1.895405669599218
1.8631476050830889
1.8318670576735088
1.801564027370479
1.7741935483870968
1.7497556207233629
1.7282502443792769
1.7116324535679377
1.696969696969697
1.6803519061583578
1.6637341153470186
1.6500488758553276
1.6383186705767352
1.6275659824046922
1.6177908113391983
1.607038123167155
1.5933528836754642
1.5796676441837731
1.5679374389051808
1.5591397849462365
1.5503421309872922
1.5386119257087
1.5249266862170088
1.5112414467253177
1.498533724340176
1.4868035190615836
1.47702834799609
1.469208211143695
1.4623655913978495
1.457478005865103
1.4594330400782014
1.4701857282502444
1.4897360703812317
1.5180840664711632
1.5610948191593352
1.6187683284457477
1.6930596285434996
1.7810361681329423
1.8807429130009776
1.988269794721408
2.1006842619745845
2.2140762463343107
2.3255131964809386
2.432062561094819
2.5190615835777126
2.591397849462365
2.665689149560117
2.73802541544477
2.8044965786901277
2.86217008797654
2.9120234604105573
2.9550342130987293
2.9902248289345064
3.018572825024438
3.0391006842619745
3.0518084066471163
3.056695992179863
3.053763440860215
3.0439882697947214
3.0303030303030303
3.0097751710654936
2.983382209188661
2.9501466275659824
2.90811339198436
2.860215053763441
2.807429130009776
2.7497556207233624
2.6911045943304006
2.633431085043988
2.582600195503421
2.5347018572825024
2.4858260019550342
2.4389051808406648
2.3958944281524928
2.355816226783969
2.318670576735093
2.283479960899316
2.2502443792766376
2.218963831867057
2.188660801564027
2.158357771260997
2.131964809384164
2.1065493646138806
2.078201368523949
2.048875855327468
1.9364613880742916
1.780058651026393
1.683284457478006
1.6158357771260996
1.563049853372434
1.517106549364614
1.4731182795698925
1.43108504398827
1.391006842619746
1.3587487781036167
1.3294232649071358
1.2971652003910068
1.2639296187683284
1.23069403714565
1.1974584555229717
1.1652003910068427
1.1348973607038124
1.10752688172043
1.0821114369501466
1.0586510263929618
1.035190615835777
1.0156402737047898
1.0
0.9794721407624634
0.9560117302052786
0.9315738025415444
0.9071358748778104
0.8836754643206256
0.863147605083089
0.844574780058651
0.8250244379276638
0.804496578690127
0.7839687194525904
0.7634408602150538
0.750733137829912
0.7409579667644184
0.7282502443792767
0.7165200391006843
0.7096774193548387
0.7106549364613881
0.7204301075268817
0.7419354838709677
0.7790811339198436
0.833822091886608
0.9042033235581622
0.9902248289345064
1.0772238514173995
1.1681329423264908
1.2756598240469208
1.391006842619746
1.5083088954056696
1.6226783968719452
1.7311827956989247
1.8328445747800584
1.924731182795699
2.005865102639296
2.074291300097752
2.131964809384164
2.1808406647116323
2.2160312805474094
2.2404692082111435
2.2639296187683287
2.283479960899316
2.2952101661779083
2.300097751710655
2.2981427174975564
2.289345063538612
2.270772238514174
2.242424242424242
2.207233626588465
2.167155425219941
2.126099706744868
2.0840664711632453
2.038123167155425
1.9872922776148585
1.9335288367546437
1.881720430107527
1.833822091886608
1.7888563049853372
1.747800586510264
1.7096774193548387
1.6774193548387095
1.651026392961877
1.6275659824046922
1.6080156402737047
1.5913978494623655
1.5698924731182795
1.547409579667644
1.5268817204301075
1.5063538611925709
1.4858260019550342
1.4652981427174976
1.4428152492668622
1.4203323558162269
1.3978494623655917
1.3743890518084063
1.356793743890518
1.3391984359726294
1.3176930596285434
1.2961876832844574
1.2746823069403714
1.252199413489736
1.23069403714565
1.2101661779081134
1.1915933528836755
1.173998044965787
1.155425219941349
1.1368523949169111
1.1202346041055715
1.1094819159335287
1.1016617790811338
1.0918866080156402
1.0801564027370478
1.0684261974584557
1.056695992179863
1.0439882697947214
1.0303030303030305
1.0166177908113392
1.0019550342130987
0.9872922776148584
0.9736070381231672
0.9657869012707724
0.9618768328445748
0.9560117302052786
0.9481915933528836
0.9403714565004888
0.9325513196480938
0.9247311827956988
0.9188660801564028
0.9178885630498532
0.9247311827956988
0.9442815249266864
0.9804496578690128
1.032258064516129
1.0909090909090908
1.1593352883675463
1.24633431085044
1.3470185728250244
1.4594330400782014
1.5786901270772238
1.699902248289345
1.818181818181818
1.9305962854349952
2.034213098729228
2.1280547409579667
2.2111436950146626
2.2737047898338223
2.321603128054741
2.366568914956012
2.4027370478983383
2.4281524926686218
2.443792766373412
2.4486803519061584
2.444770283479961
2.4330400782013686
2.4134897360703813
2.3851417399804498
2.3499511241446727
2.3098729227761488
2.267839687194526
2.2218963831867056
2.16911045943304
2.112414467253177
2.053763440860215
1.9951124144672527
1.9393939393939397
1.8885630498533723
1.842619745845552
1.801564027370479
1.7653958944281525
1.732160312805474
1.704789833822092
1.6823069403714566
1.6588465298142718
1.6344086021505375
1.608993157380254
1.581622678396872
1.5542521994134897
1.5278592375366569
1.501466275659824
1.4760508308895406
1.4506353861192571
1.4252199413489737
1.3988269794721409
1.3773216031280548
1.3577712609970674
1.335288367546432
1.313782991202346
1.29227761485826
1.2727272727272727
1.2541544477028348
1.2346041055718475
1.2140762463343109
1.195503421309873
1.1779081133919844
1.160312805474096
1.147605083088954
1.13880742913001
1.1300097751710656
1.1221896383186705
1.1143695014662756
1.10752688172043
1.1016617790811338
1.0957966764418376
1.0909090909090908
1.0850439882697946
1.0791788856304985
1.0742913000977516
1.072336265884653
1.0684261974584557
1.0625610948191593
1.0557184750733135
1.04594330400782
1.0342130987292275
1.0224828934506354
1.0117302052785924
1.0019550342130987
0.9951124144672532
0.9921798631476052
0.9951124144672532
1.0058651026392962
1.0263929618768328
1.0596285434995112
1.110459433040078
1.1798631476050832
1.267839687194526
1.3714565004887584
1.4887585532746823
1.6158357771260996
1.7517106549364614
1.8885630498533723
2.022482893450636
2.1515151515151514
2.2580645161290325
2.347996089931574
2.439882697947214
2.5268817204301075
2.606060606060606
2.677419354838709
2.7390029325513194
2.791788856304985
2.838709677419355
2.8797653958944283
2.9149560117302054
2.943304007820137
2.963831867057673
2.970674486803519
2.9687194525904204
2.964809384164223
2.956011730205278
2.940371456500489
2.917888563049853
2.8856304985337244
2.843597262952102
2.792766373411535
2.736070381231672
2.6901270772238512
2.6510263929618767
2.606060606060606
2.560117302052786
2.509286412512219
2.4594330400782014
2.412512218963832
2.366568914956012
2.324535679374389
2.286412512218964
2.251221896383187
2.217986314760508
2.1867057673509285
2.156402737047898
2.1251221896383186
2.0957966764418376
2.067448680351906
2.037145650048876
2.004887585532747
1.9736070381231672
1.9423264907135875
1.9090909090909087
1.8748778103616808
1.8416422287390029
1.8084066471163245
1.775171065493646
1.7429130009775171
1.7165200391006843
1.694037145650049
1.6686217008797657
1.6441837732160314
1.6217008797653958
1.6011730205278591
1.581622678396872
1.5620723362658846
1.543499511241447
1.525904203323558
1.509286412512219
1.4936461388074291
1.478983382209189
1.4682306940371457
1.4594330400782014
1.4496578690127078
1.439882697947214
1.4291300097751711
1.4193548387096775
1.4086021505376345
1.3958944281524928
1.383186705767351
1.3714565004887584
1.359726295210166
1.348973607038123
1.3411534701857282
1.3362658846529814
1.332355816226784
1.3333333333333333
1.3421309872922775
1.3607038123167154
1.392961876832845
1.4408602150537635
1.5034213098729228
1.5806451612903225
1.6715542521994136
1.7741935483870968
1.8856304985337244
1.9853372434017595
2.078201368523949
2.1808406647116323
2.2844574780058653
2.3841642228739004
2.4789833822091887
2.5650048875855327
2.643206256109482
2.7126099706744866
2.773216031280548
2.825024437927664
2.868035190615836
2.898338220918866
2.919843597262952
2.941348973607038
2.959921798631476
2.9765395894428157
2.988269794721408
2.994134897360704
2.9931573802541545
2.9853372434017595
2.9696969696969697
2.945259042033236
2.913000977517106
2.873900293255132
2.83088954056696
2.78494623655914
2.732160312805474
2.675464320625611
2.6177908113391983
2.560117302052786
2.504398826979472
2.452590420332356
2.404692082111437
2.358748778103617
2.314760508308896
2.2737047898338223
2.2385141739980448
2.2082111436950145
2.177908113391984
2.1485826001955037
2.118279569892473
2.086021505376344
2.053763440860215
2.0205278592375366
1.988269794721408
1.9579667644183771
1.9266862170087975
1.8934506353861196
1.86119257086999
1.833822091886608
1.8103616813294232
1.7839687194525904
1.7546432062561097
1.7253176930596286
1.6959921798631477
1.6666666666666667
1.6392961876832846
1.6148582600195502
1.5933528836754642
1.573802541544477
1.5562072336265884
1.542521994134897
1.5317693059628543
1.5190615835777126
1.504398826979472
1.4897360703812317
1.4750733137829912
1.4604105571847508
1.4467253176930597
1.434017595307918
1.423264907135875
1.412512218963832
1.4007820136852396
1.3890518084066472
1.3812316715542523
1.3743890518084063
1.364613880742913
1.3548387096774193
1.3440860215053765
1.3343108504398826
1.3264907135874875
1.3225806451612905
1.3255131964809383
1.3391984359726294
1.3655913978494625
1.4076246334310851
1.456500488758553
1.5131964809384164
1.587487781036168
1.6764418377321604
1.7781036168132942
1.8875855327468232
1.9990224828934504
2.1094819159335287
2.2170087976539588
2.320625610948192
2.4164222873900294
2.5024437927663734
2.579667644183773
2.6373411534701856
2.6823069403714563
2.727272727272727
2.768328445747801
2.8044965786901277
2.833822091886608
2.857282502443793
2.873900293255132
2.8856304985337244
2.8905180840664717
2.887585532746823
2.878787878787879
2.8641251221896384
2.843597262952102
2.8181818181818183
2.7859237536656893
2.747800586510264
2.702834799608993
2.6529814271749754
2.5992179863147604
2.5434995112414467
2.4887585532746823
2.434017595307918
2.3822091886608017
2.3382209188660803
2.2991202346041058
2.259042033235582
2.220918866080156
2.1867057673509285
2.1544477028347995
2.12316715542522
2.09188660801564
2.0635386119257086
2.035190615835777
2.003910068426197
