ppg
1.0518084066471165
1.056695992179863
1.0635386119257086
1.0713587487781036
1.0791788856304985
1.0869990224828934
1.093841642228739
1.1016617790811338
1.115347018572825
1.141739980449658
1.1808406647116323
1.241446725317693
1.343108504398827
1.4858260019550342
1.6656891495601174
1.871945259042033
2.086021505376344
2.291300097751711
2.4711632453567938
2.616813294232649
2.724340175953079
2.795698924731183
2.831867057673509
2.843597262952102
2.8426197458455524
2.83088954056696
2.809384164222874
2.780058651026393
2.7468230694037143
2.7145650048875853
2.6832844574780057
2.652003910068426
2.622678396871945
2.5943304007820136
2.5669599217986314
2.5386119257087
2.5083088954056696
2.474095796676442
2.4349951124144678
2.3900293255131966
2.3362658846529816
2.274682306940372
2.204301075268817
2.1221896383186705
2.0303030303030303
1.9315738025415443
1.827956989247312
1.737047898338221
1.6559139784946235
1.5698924731182795
1.4858260019550342
1.4105571847507332
1.3499511241446724
1.3020527859237536
1.267839687194526
1.2453567937438903
1.2316715542521994
1.2228739002932552
1.217008797653959
1.2150537634408602
1.2130987292277615
1.2072336265884651
1.1994134897360704
1.1896383186705768
1.1779081133919844
1.164222873900293
1.1495601173020529
1.1358748778103618
1.1221896383186705
1.1085043988269794
1.0948191593352885
1.0811339198435972
1.072336265884653
1.0654936461388074
1.0547409579667644
1.0439882697947214
1.0332355816226784
1.0224828934506354
1.013685239491691
1.007820136852395
1.0039100684261977
1.002932551319648
1.0039100684261977
1.0058651026392962
1.0117302052785924
1.018572825024438
1.0234604105571847
1.024437927663734
1.021505376344086
1.0156402737047898
1.0117302052785924
1.013685239491691
1.0312805474095796
1.0762463343108504
1.1593352883675463
1.284457478005865
1.4496578690127078
1.616813294232649
1.7878787878787878
1.9843597262952104
2.1788856304985336
2.35386119257087
2.496578690127077
2.603128054740958
2.673509286412512
2.7145650048875853
2.7341153470185726
2.735092864125122
2.7233626588465296
2.702834799608993
2.67644183773216
2.64613880742913
2.6148582600195502
2.5806451612903225
2.5434995112414467
2.506353861192571
2.469208211143695
2.4330400782013686
2.396871945259042
2.356793743890518
2.3118279569892475
2.26197458455523
2.212121212121212
2.161290322580645
2.0987292277614857
2.024437927663734
1.9393939393939397
1.8465298142717497
1.747800586510264
1.6471163245356797
1.547409579667644
1.4516129032258065
1.364613880742913
1.2883675464320623
1.2316715542521994
1.1896383186705768
1.1534701857282503
1.1251221896383188
1.1036168132942326
1.086021505376344
1.0703812316715542
1.0557184750733135
1.0420332355816226
1.0303030303030305
1.0195503421309873
1.0087976539589445
0.9990224828934506
0.9941348973607038
0.9912023460410556
0.9853372434017597
0.978494623655914
0.9696969696969696
0.9608993157380256
0.9511241446725318
0.9413489736070382
0.9315738025415444
0.9247311827956988
0.9188660801564028
0.9130009775171064
0.9120234604105572
0.9130009775171064
0.9130009775171064
0.9130009775171064
0.9130009775171064
0.913978494623656
0.9178885630498532
0.9227761485826002
0.927663734115347
0.9325513196480938
0.9364613880742912
0.93841642228739
0.9393939393939394
0.9433040078201368
0.95405669599218
0.9745845552297164
1.0156402737047898
1.0869990224828934
1.1945259042033236
1.3616813294232648
1.5718475073313782
1.7859237536656891
1.9980449657869013
2.1974584555229715
2.3714565004887587
2.501466275659824
2.595307917888563
2.673509286412512
2.730205278592375
2.7653958944281527
2.782991202346041
2.7869012707722387
2.7810361681329425
2.768328445747801
2.748778103616813
2.724340175953079
2.696969696969697
2.668621700879765
2.6402737047898337
2.611925708699902
2.58455522971652
2.557184750733138
2.527859237536657
2.495601173020528
2.4574780058651027
2.409579667644184
2.3499511241446727
2.278592375366569
2.1955034213098727
2.102639296187683
2.016617790811339
1.9335288367546437
1.8406647116324533
1.747800586510264
1.6598240469208212
1.5826001955034212
1.5190615835777126
1.4711632453567938
1.435972629521017
1.412512218963832
1.3998044965786902
1.392961876832845
1.388074291300098
1.3841642228739004
1.3822091886608017
1.3773216031280548
1.3714565004887584
1.3626588465298142
1.3499511241446724
1.335288367546432
1.3196480938416422
1.3040078201368523
1.2873900293255132
1.270772238514174
1.2541544477028348
1.2424242424242424
1.2326490713587488
1.2228739002932552
1.2140762463343109
1.2072336265884651
1.2023460410557183
1.1994134897360704
1.198435972629521
1.198435972629521
1.1994134897360704
1.2003910068426198
1.2013685239491692
1.2043010752688172
1.209188660801564
1.2140762463343109
1.2189638318670577
1.2228739002932552
1.224828934506354
1.2238514173998043
1.219941348973607
1.2160312805474096
1.2140762463343109
1.2238514173998043
1.2561094819159335
1.3225806451612905
1.4076246334310851
1.521994134897361
1.6852394916911049
1.8826979472140764
2.0957966764418376
2.3059628543499517
2.495601173020528
2.654936461388074
2.7781036168132944
2.865102639296188
2.920821114369501
2.951124144672532
2.959921798631476
2.95405669599218
2.940371456500489
2.919843597262952
2.8944281524926687
2.866080156402737
2.834799608993157
2.803519061583578
2.7722385141739982
2.7390029325513194
2.704789833822092
2.6715542521994133
2.6373411534701856
2.603128054740958
2.567937438905181
2.527859237536657
2.4819159335288368
2.4281524926686218
2.364613880742913
2.290322580645161
2.206256109481916
2.112414467253177
2.010752688172043
1.9042033235581624
1.7976539589442817
1.70772238514174
1.6304985337243405
1.5513196480938416
1.4809384164222874
1.4242424242424243
1.380254154447703
1.3479960899315735
1.327468230694037
1.3147605083088951
1.3069403714565004
1.303030303030303
1.300097751710655
1.2971652003910068
1.2961876832844574
1.295210166177908
1.2903225806451613
1.2825024437927663
1.2727272727272727
1.260019550342131
1.24633431085044
1.2326490713587488
1.2179863147605083
1.2003910068426198
1.1827956989247312
1.1652003910068427
1.1534701857282503
1.144672531769306
1.1348973607038124
1.1251221896383188
1.118279569892473
1.1133919843597262
1.110459433040078
1.110459433040078
1.1124144672531768
1.115347018572825
1.118279569892473
1.121212121212121
1.1251221896383188
1.1300097751710656
1.1348973607038124
1.1378299120234605
1.141739980449658
1.1505376344086022
1.1730205278592376
1.219941348973607
1.3010752688172045
1.423264907135875
1.587487781036168
1.7859237536656891
2.004887585532747
2.19941348973607
2.36950146627566
2.5376344086021505
2.6823069403714563
2.7966764418377323
2.8797653958944283
2.9315738025415445
2.9579667644183774
2.9657869012707723
2.960899315738025
2.946236559139785
2.924731182795699
2.898338220918866
2.8699902248289346
2.841642228739003
2.8132942326490715
2.78494623655914
2.7565982404692084
2.7282502443792764
2.699902248289345
2.6695992179863146
2.634408602150537
2.5943304007820136
2.547409579667644
2.49266862170088
2.4379276637341154
2.3792766373411536
2.30791788856305
2.2267839687194524
2.1378299120234603
2.0449657869012707
1.951124144672532
1.8602150537634408
1.7741935483870968
1.6989247311827955
1.635386119257087
1.5826001955034212
1.542521994134897
1.517106549364614
1.500488758553275
1.4858260019550342
1.4731182795698925
1.4613880742913
1.4486803519061584
1.435972629521017
1.423264907135875
1.409579667644184
1.3949169110459434
1.3792766373411536
1.3607038123167154
1.346041055718475
1.3343108504398826
1.3206256109481915
1.3079178885630498
1.2961876832844574
1.2854349951124144
1.2766373411534702
1.2766373411534702
1.2766373411534702
1.2766373411534702
1.2766373411534702
1.2766373411534702
1.2766373411534702
1.2766373411534702
1.270772238514174
1.2746823069403714
1.2776148582600195
1.281524926686217
1.2854349951124144
1.2913000977517106
1.300097751710655
1.3088954056695992
1.316715542521994
1.3235581622678396
1.3313782991202343
1.3440860215053765
1.3685239491691104
1.4164222873900294
1.4975562072336266
1.616813294232649
1.7741935483870968
1.9618768328445748
2.166177908113392
2.36950146627566
2.5562072336265884
2.7126099706744866
2.832844574780059
2.9149560117302054
2.956011730205278
2.9687194525904204
2.970674486803519
2.961876832844575
2.9442815249266863
2.917888563049853
2.884652981427175
2.8484848484848486
2.8103616813294234
2.771260997067449
2.7341153470185726
2.6989247311827955
2.665689149560117
2.633431085043988
2.60019550342131
2.565982404692082
2.5288367546432062
2.4858260019550342
2.4359726295210167
2.3792766373411536
2.312805474095797
2.2355816226783967
2.1495601173020527
2.0547409579667644
1.9521016617790807
1.858260019550342
1.7712609970674489
1.6764418377321604
1.581622678396872
1.4916911045943304
1.412512218963832
1.3450635386119256
1.289345063538612
1.2473118279569892
1.2160312805474096
1.1915933528836755
1.1710654936461389
1.1573802541544478
1.1466275659824048
1.1348973607038124
1.121212121212121
1.10752688172043
1.0928641251221896
1.0762463343108504
1.0586510263929618
1.0420332355816226
1.0254154447702837
1.0087976539589445
0.9912023460410556
0.978494623655914
0.9696969696969696
0.9589442815249268
0.9472140762463344
0.935483870967742
0.9247311827956988
0.9149560117302052
0.9081133919843596
0.9051808406647116
0.9032258064516128
0.9002932551319648
0.8973607038123167
0.8944281524926686
0.8944281524926686
0.8973607038123167
0.8963831867057673
0.8924731182795699
0.8866080156402737
0.8797653958944281
0.8729227761485826
0.8690127077223851
0.8729227761485826
0.8944281524926686
0.9452590420332356
1.035190615835777
1.144672531769306
1.2795698924731185
1.4633431085043989
1.6764418377321604
1.900293255131965
2.117302052785924
2.3118279569892475
2.472140762463343
2.595307917888563
2.6823069403714563
2.73802541544477
2.7702834799608995
2.782991202346041
2.780058651026393
2.7673509286412514
2.7497556207233624
2.729227761485826
2.7067448680351904
2.6823069403714563
2.656891495601173
2.631476050830889
2.6041055718475072
2.575757575757576
2.544477028347996
2.5083088954056696
2.472140762463343
2.434017595307918
2.388074291300098
2.334310850439883
2.269794721407625
2.1955034213098727
2.1114369501466275
2.018572825024438
1.9188660801564028
1.8162267839687196
1.7145650048875856
1.616813294232649
1.5288367546432062
1.4613880742913
1.4105571847507332
1.367546432062561
1.332355816226784
1.305962854349951
1.2873900293255132
1.2746823069403714
1.2649071358748778
1.2551319648093842
1.2434017595307918
1.23069403714565
1.217008797653959
1.206256109481916
1.1974584555229717
1.1867057673509287
1.173998044965787
1.160312805474096
1.1466275659824048
1.1329423264907137
1.1192570869990224
1.1055718475073313
1.0909090909090908
1.078201368523949
1.0654936461388074
1.053763440860215
1.0478983382209188
1.0449657869012707
1.040078201368524
1.0361681329423265
1.0342130987292275
1.0332355816226784
1.0312805474095796
1.029325513196481
1.0283479960899315
1.0283479960899315
1.0283479960899315
1.0283479960899315
1.0312805474095796
1.0381231671554252
1.0478983382209188
1.0654936461388074
1.0987292277614855
1.1573802541544478
1.252199413489736
1.3890518084066472
1.565982404692082
1.7732160312805474
1.994134897360704
2.2111436950146626
2.4086021505376345
2.557184750733138
2.664711632453568
2.7517106549364616
2.811339198435973
2.84652981427175
2.8611925708699903
2.86217008797654
2.852394916911046
2.834799608993157
2.809384164222874
2.779081133919844
2.745845552297165
2.710654936461388
2.675464320625611
2.641251221896383
2.6080156402737047
2.5747800586510263
2.541544477028348
2.505376344086021
2.464320625610948
2.4164222873900294
2.361681329423265
2.300097751710655
2.23069403714565
2.1515151515151514
2.0762463343108504
2.0009775171065494
1.913978494623656
1.8191593352883677
1.7233626588465298
1.6304985337243405
1.544477028347996
1.4701857282502444
1.409579667644184
1.3616813294232648
1.324535679374389
1.2971652003910068
1.2795698924731185
1.267839687194526
1.2561094819159335
1.2443792766373412
1.2336265884652982
1.2218963831867058
1.2082111436950147
1.1906158357771262
1.1691104594330402
1.147605083088954
1.126099706744868
1.104594330400782
1.0840664711632453
1.0684261974584557
1.0547409579667644
1.0391006842619743
1.0224828934506354
1.0048875855327468
0.9882697947214076
0.9736070381231672
0.9608993157380256
0.9501466275659824
0.9403714565004888
0.9325513196480938
0.9266862170087976
0.9266862170087976
0.9305962854349952
0.9364613880742912
0.9442815249266864
0.95405669599218
0.9638318670576737
0.9736070381231672
0.9833822091886608
0.9912023460410556
0.997067448680352
1.0068426197458455
1.0263929618768328
1.0664711632453567
1.1241446725317692
1.2082111436950147
1.33822091886608
1.5112414467253177
1.718475073313783
1.946236559139785
2.1739980449657867
2.383186705767351
2.560117302052786
2.697947214076246
2.795698924731183
2.860215053763441
2.89345063538612
2.9042033235581624
2.905180840664712
2.898338220918866
2.884652981427175
2.866080156402737
2.844574780058651
2.8269794721407626
2.811339198435973
2.791788856304985
2.7702834799608995
2.747800586510264
2.7253176930596283
2.7008797653958942
2.675464320625611
2.64613880742913
2.611925708699902
2.5718475073313782
2.52297165200391
2.4652981427174976
2.39980449657869
2.324535679374389
2.241446725317693
2.150537634408602
2.056695992179863
1.9736070381231672
1.8973607038123168
1.8172043010752688
1.7409579667644184
1.672531769305963
1.6138807429130009
1.5669599217986314
1.530791788856305
1.5024437927663734
1.4809384164222874
1.4643206256109482
1.4506353861192571
1.4408602150537635
1.4320625610948192
1.4213098729227762
1.409579667644184
1.3958944281524928
1.3812316715542523
1.3685239491691104
1.356793743890518
1.346041055718475
1.3362658846529814
1.3264907135874875
1.316715542521994
1.3069403714565004
1.300097751710655
1.295210166177908
1.289345063538612
1.284457478005865
1.2805474095796676
1.2776148582600195
1.2766373411534702
1.2776148582600195
1.2805474095796676
1.2834799608993157
1.2864125122189638
1.289345063538612
1.2942326490713587
1.3020527859237536
1.3098729227761483
1.3157380254154447
1.3206256109481915
1.3264907135874875
1.335288367546432
1.3509286412512218
1.383186705767351
1.4408602150537635
1.533724340175953
1.664711632453568
1.833822091886608
2.0009775171065494
2.167155425219941
2.355816226783969
2.5405669599217986
2.702834799608993
2.832844574780059
2.9266862170087977
2.988269794721408
3.022482893450636
3.034213098729228
3.029325513196481
3.0127077223851417
2.989247311827957
2.960899315738025
2.929618768328446
2.897360703812317
2.865102639296188
2.832844574780059
2.80058651026393
2.76930596285435
2.73802541544477
2.705767350928641
2.6715542521994133
2.635386119257087
2.5943304007820136
2.5513196480938416
2.504398826979472
2.447702834799609
2.380254154447703
2.302052785923754
2.2140762463343107
2.1192570869990224
2.018572825024438
1.916911045943304
1.818181818181818
1.726295210166178
1.6451612903225807
1.5835777126099706
1.5366568914956011
1.4936461388074291
1.4604105571847508
1.436950146627566
1.418377321603128
1.4027370478983383
1.388074291300098
1.3734115347018572
1.3577712609970674
1.3421309872922775
1.3255131964809383
1.3088954056695992
1.2971652003910068
1.2864125122189638
1.2727272727272727
1.2590420332355816
1.2473118279569892
1.2375366568914956
1.2297165200391007
1.2228739002932552
1.2160312805474096
1.209188660801564
1.203323558162268
1.1974584555229717
1.1945259042033236
1.1935483870967742
1.1906158357771262
1.1867057673509287
1.1808406647116323
1.1749755620723363
1.1681329423264908
1.1622678396871946
1.1593352883675463
1.1573802541544478
1.1564027370478984
1.1544477028347997
1.1505376344086022
1.1485826001955035
1.147605083088954
1.1495601173020529
1.166177908113392
1.209188660801564
1.2903225806451613
1.4173998044965788
1.5894428152492668
1.796676441837732
2.024437927663734
2.2531769305962857
2.463343108504399
2.6236559139784945
2.7419354838709675
2.8396871945259043
2.90811339198436
2.948191593352884
2.964809384164223
2.962854349951124
2.948191593352884
2.9257086999022484
2.895405669599218
2.8611925708699903
2.825024437927664
2.789833822091887
2.755620723362659
2.7223851417399803
2.6901270772238512
2.656891495601173
2.621700879765396
2.58455522971652
2.5425219941348973
2.495601173020528
2.442815249266862
2.3841642228739004
2.3167155425219943
2.241446725317693
2.1681329423264906
2.09188660801564
2.0019550342130987
1.9042033235581624
1.804496578690127
1.7067448680351909
1.6148582600195502
1.5327468230694037
1.4643206256109482
1.409579667644184
1.367546432062561
1.3362658846529814
1.3128054740957966
1.2981427174975562
1.289345063538612
1.2776148582600195
1.2658846529814272
1.2551319648093842
1.24633431085044
1.238514173998045
1.2316715542521994
1.2238514173998043
1.2140762463343109
1.2043010752688172
1.1945259042033236
1.1886608015640274
1.18475073313783
1.1788856304985338
1.1720430107526882
1.1652003910068427
1.1583577712609971
1.152492668621701
1.1495601173020529
1.1466275659824048
1.1436950146627567
1.142717497556207
1.141739980449658
1.141739980449658
1.144672531769306
1.1485826001955035
1.1505376344086022
1.1515151515151516
1.152492668621701
1.1515151515151516
1.1505376344086022
1.1495601173020529
1.1515151515151516
1.1612903225806452
1.1886608015640274
1.2434017595307918
1.313782991202346
1.4076246334310851
1.5464320625610948
1.721407624633431
1.920821114369501
2.129032258064516
2.329423264907136
2.5083088954056696
2.656891495601173
2.76930596285435
2.8484848484848486
2.897360703812317
2.919843597262952
2.9237536656891496
2.919843597262952
2.9071358748778104
2.887585532746823
2.863147605083089
2.834799608993157
2.803519061583578
2.76930596285435
2.736070381231672
2.7038123167155423
2.670576735092864
2.6373411534701856
2.6041055718475072
2.548387096774193
2.4760508308895406
2.4115347018572826
2.346041055718475
2.2766373411534704
2.198435972629521
2.110459433040078
2.013685239491691
1.911045943304008
1.8054740957966764
1.7018572825024438
1.6148582600195502
1.541544477028348
1.4701857282502444
1.4086021505376345
1.3587487781036167
1.321603128054741
1.2961876832844574
1.278592375366569
1.2668621700879763
1.2570869990224829
1.2473118279569892
1.2365591397849462
1.224828934506354
1.217008797653959
1.209188660801564
1.1964809384164223
1.181818181818182
1.1671554252199414
1.1534701857282503
1.1397849462365592
1.1280547409579669
1.1192570869990224
1.1114369501466277
1.1036168132942326
1.096774193548387
1.0928641251221896
1.0909090909090908
1.0869990224828934
1.0811339198435972
1.075268817204301
1.0684261974584557
1.06158357771261
1.056695992179863
1.0547409579667644
1.053763440860215
1.053763440860215
1.0557184750733135
1.0586510263929618
1.0625610948191593
1.067448680351906
1.0684261974584557
1.067448680351906
1.0684261974584557
1.0791788856304985
1.1114369501466277
1.1759530791788857
1.2825024437927663
1.4330400782013686
1.624633431085044
1.8435972629521016
2.0410557184750733
2.220918866080156
2.407624633431085
2.575757575757576
2.7116324535679373
2.809384164222874
2.8729227761485827
2.9071358748778104
2.920821114369501
2.919843597262952
2.906158357771261
2.8826979472140764
2.854349951124145
2.822091886608016
2.787878787878788
2.7517106549364616
2.716520039100684
2.6803519061583576
2.644183773216031
2.6080156402737047
2.5698924731182795
2.529814271749756
2.4858260019550342
2.4359726295210167
2.3792766373411536
2.3225806451612905
2.2629521016617797
2.189638318670577
2.103616813294233
2.006842619745845
1.9012707722385145
1.790811339198436
1.6803519061583578
1.5757575757575757
1.4809384164222874
1.3998044965786902
1.3333333333333333
1.2825024437927663
1.2512218963831867
1.2336265884652982
1.2209188660801564
1.2130987292277615
1.2072336265884651
1.2013685239491692
1.1945259042033236
1.1857282502443791
1.1759530791788857
1.163245356793744
1.147605083088954
1.130987292277615
1.1173020527859236
1.1055718475073313
1.088954056695992
1.0703812316715542
1.0498533724340176
1.029325513196481
1.010752688172043
0.9941348973607038
0.981427174975562
0.9726295210166178
0.9667644183773216
0.9618768328445748
0.9579667644183774
0.956989247311828
0.9589442815249268
0.9560117302052786
0.9501466275659824
0.9442815249266864
0.93841642228739
0.935483870967742
0.935483870967742
0.93841642228739
0.9423264907135877
0.9481915933528836
0.956989247311828
0.9706744868035192
0.9921798631476052
1.0303030303030305
1.0948191593352885
1.1925708699902249
1.3304007820136852
1.5073313782991202
1.7126099706744868
1.9315738025415443
2.146627565982405
2.3411534701857284
2.5034213098729228
2.6285434995112413
2.708699902248289
2.7546432062561097
2.7839687194525906
2.7966764418377323
2.795698924731183
2.782991202346041
2.7614858260019552
2.7341153470185726
2.7038123167155423
2.670576735092864
2.6373411534701856
2.6070381231671558
2.578690127077224
2.5513196480938416
2.525904203323558
2.5024437927663734
2.4780058651026398
2.449657869012708
2.4173998044965788
2.377321603128055
2.329423264907136
2.271749755620724
2.203323558162268
2.12316715542522
2.0332355816226784
1.948191593352884
1.866080156402737
1.775171065493646
1.6813294232649072
1.590420332355816
1.5073313782991202
1.4349951124144673
1.375366568914956
1.3294232649071358
1.2942326490713587
1.2668621700879763
1.2453567937438903
1.2316715542521994
1.219941348973607
1.2052785923753666
1.1896383186705768
1.1730205278592376
1.1564027370478984
1.1397849462365592
1.1251221896383188
1.1143695014662756
1.1065493646138806
1.1016617790811338
1.099706744868035
1.1006842619745845
1.104594330400782
1.1094819159335287
1.1114369501466277
1.1124144672531768
1.1133919843597262
1.1124144672531768
1.110459433040078
1.1065493646138806
1.1036168132942326
1.1016617790811338
1.1006842619745845
1.1016617790811338
1.1055718475073313
1.110459433040078
1.1163245356793745
1.1241446725317692
1.1319648093841643
1.1378299120234605
1.141739980449658
1.144672531769306
1.147605083088954
1.1573802541544478
1.1827956989247312
1.2355816226783969
1.305962854349951
1.4037145650048877
1.5493646138807429
1.7311827956989247
1.9335288367546437
2.1378299120234603
2.3274682306940373
2.490713587487781
2.619745845552297
2.7145650048875853
2.7781036168132944
2.814271749755621
2.8289345063538613
2.825024437927664
2.809384164222874
2.7859237536656893
2.7565982404692084
2.721407624633431
2.681329423264907
2.6392961876832843
2.598240469208211
2.557184750733138
2.5180840664711632
2.479960899315738
2.442815249266862
2.4086021505376345
2.3743890518084068
2.3362658846529816
2.294232649071359
2.2453567937438903
2.188660801564027
2.121212121212121
2.0449657869012707
1.9775171065493649
1.9100684261974583
1.826001955034213
1.7350928641251222
1.643206256109482
1.564027370478983
1.498533724340176
1.434017595307918
1.3773216031280548
1.3333333333333333
1.300097751710655
1.2756598240469208
1.2570869990224829
1.2424242424242424
1.23069403714565
1.2189638318670577
1.206256109481916
1.195503421309873
1.1867057673509287
1.1759530791788857
1.163245356793744
1.1505376344086022
1.13880742913001
1.1290322580645162
1.1221896383186705
1.1163245356793745
1.1094819159335287
1.1026392961876832
1.0957966764418376
1.088954056695992
1.086021505376344
1.0840664711632453
1.0811339198435972
1.0772238514173995
1.0742913000977516
1.0703812316715542
1.0664711632453567
1.0596285434995112
1.0527859237536656
1.0478983382209188
1.0439882697947214
1.040078201368524
1.040078201368524
1.0420332355816226
1.0410557184750733
1.040078201368524
1.0410557184750733
1.0478983382209188
