ppg
2.4164222873900294
2.3655913978494625
2.315738025415445
2.269794721407625
2.2267839687194524
2.1867057673509285
2.150537634408602
2.117302052785924
2.0879765395894427
2.0625610948191597
2.0361681329423265
2.0097751710654936
1.9833822091886608
1.9579667644183771
1.9315738025415443
1.9042033235581624
1.87683284457478
1.8484848484848484
1.8211143695014664
1.7927663734115349
1.7673509286412512
1.7438905180840665
1.718475073313783
1.6911045943304008
1.6637341153470186
1.6363636363636365
1.6099706744868034
1.58455522971652
1.5620723362658846
1.542521994134897
1.5249266862170088
1.5073313782991202
1.4897360703812317
1.47702834799609
1.466275659824047
1.4535679374389052
1.4418377321603129
1.4301075268817205
1.418377321603128
1.4066471163245358
1.3949169110459434
1.383186705767351
1.370478983382209
1.3587487781036167
1.3470185728250244
1.3391984359726294
1.3333333333333333
1.324535679374389
1.3147605083088951
1.3040078201368523
1.2932551319648091
1.284457478005865
1.2795698924731185
1.2825024437927663
1.295210166177908
1.321603128054741
1.3626588465298142
1.4203323558162269
1.4819159335288368
1.5503421309872922
1.6363636363636365
1.7341153470185728
1.839687194525904
1.9501466275659824
2.06158357771261
2.167155425219941
2.264907135874878
2.35386119257087
2.43108504398827
2.495601173020528
2.541544477028348
2.5747800586510263
2.6070381231671558
2.635386119257087
2.656891495601173
2.670576735092864
2.677419354838709
2.678396871945259
2.673509286412512
2.66177908113392
2.643206256109482
2.6177908113391983
2.5855327468230693
2.549364613880743
2.5102639296187683
2.466275659824047
2.4173998044965788
2.3655913978494625
2.312805474095797
2.260997067448681
2.2111436950146626
2.166177908113392
2.1251221896383186
2.0879765395894427
2.0557184750733137
2.0283479960899315
2.003910068426197
1.9794721407624636
1.95405669599218
1.9286412512218964
1.9042033235581624
1.8807429130009776
1.8563049853372435
1.83088954056696
1.8064516129032255
1.7810361681329423
1.7546432062561097
1.726295210166178
1.7018572825024438
1.6803519061583578
1.6559139784946235
1.6314760508308896
1.606060606060606
1.5806451612903225
1.555229716520039
1.530791788856305
1.5073313782991202
1.4848484848484849
1.4633431085043989
1.4428152492668622
1.4281524926686218
1.4173998044965788
1.4056695992179864
1.3919843597262953
1.3792766373411536
1.367546432062561
1.3587487781036167
1.3509286412512218
1.343108504398827
1.3343108504398826
1.324535679374389
1.3147605083088951
1.3040078201368523
1.2961876832844574
1.2903225806451613
1.2825024437927663
1.2746823069403714
1.2658846529814272
1.2580645161290325
1.249266862170088
1.241446725317693
1.2326490713587488
1.2258064516129032
1.2218963831867058
1.2238514173998043
1.2326490713587488
1.2512218963831867
1.2795698924731185
1.3196480938416422
1.3734115347018572
1.4408602150537635
1.521016617790811
1.6109481915933528
1.70772238514174
1.8084066471163245
1.9090909090909087
2.004887585532747
2.0840664711632453
2.150537634408602
2.217986314760508
2.278592375366569
2.3304007820136854
2.3734115347018574
2.404692082111437
2.426197458455523
2.4389051808406648
2.441837732160313
2.4359726295210167
2.423264907135875
2.403714565004888
2.380254154447703
2.3519061583577714
2.315738025415445
2.2737047898338223
2.2277614858260018
2.177908113391984
2.115347018572825
2.0439882697947214
1.978494623655914
1.9178885630498532
1.8621700879765395
1.8113391984359728
1.7702834799608993
1.7350928641251222
1.7008797653958945
1.6686217008797657
1.6373411534701858
1.607038123167155
1.5786901270772238
1.5503421309872922
1.521994134897361
1.4936461388074291
1.4652981427174976
1.435972629521017
1.4076246334310851
1.3841642228739004
1.364613880742913
1.3411534701857282
1.3157380254154447
1.2903225806451613
1.2658846529814272
1.241446725317693
1.2140762463343109
1.187683284457478
1.163245356793744
1.13880742913001
1.1163245356793745
1.1006842619745845
1.0879765395894427
1.075268817204301
1.0635386119257086
1.0527859237536656
1.043010752688172
1.032258064516129
1.0224828934506354
1.0156402737047898
1.0087976539589445
1.0009775171065494
0.9941348973607038
0.9882697947214076
0.9863147605083088
0.9872922776148584
0.9863147605083088
0.9843597262952102
0.9824046920821116
0.9804496578690128
0.9775171065493646
0.9745845552297164
0.9716520039100685
0.9687194525904204
0.9657869012707724
0.9648093841642228
0.967741935483871
0.9726295210166178
0.9794721407624634
0.9912023460410556
1.0127077223851415
1.04594330400782
1.0918866080156402
1.1544477028347997
1.2336265884652982
1.3294232649071358
1.4389051808406648
1.5581622678396871
1.683284457478006
1.7927663734115349
1.8914956011730208
1.997067448680352
2.1006842619745845
2.1955034213098727
2.278592375366569
2.347996089931574
2.4027370478983383
2.443792766373412
2.4731182795698925
2.490713587487781
2.496578690127077
2.489736070381232
2.472140762463343
2.4457478005865103
2.4115347018572826
2.36950146627566
2.321603128054741
2.267839687194526
2.210166177908113
2.150537634408602
2.09188660801564
2.035190615835777
1.9804496578690127
1.9286412512218964
1.8856304985337244
1.8484848484848484
1.812316715542522
1.7790811339198436
1.7487781036168133
1.721407624633431
1.696969696969697
1.6735092864125125
1.6500488758553276
1.6265884652981428
1.6041055718475072
1.5826001955034212
1.5650048875855327
1.5483870967741935
1.5278592375366569
1.504398826979472
1.4809384164222874
1.457478005865103
1.434017595307918
1.409579667644184
1.3841642228739004
1.3577712609970674
1.3313782991202343
1.3040078201368523
1.2776148582600195
1.2580645161290325
1.241446725317693
1.2209188660801564
1.2003910068426198
1.1798631476050832
1.1593352883675463
1.13880742913001
1.118279569892473
1.0977517106549364
1.0772238514173995
1.056695992179863
1.0381231671554252
1.0254154447702837
1.0156402737047898
1.002932551319648
0.9902248289345064
0.9794721407624634
0.9696969696969696
0.9608993157380256
0.9530791788856304
0.946236559139785
0.9393939393939394
0.9325513196480938
0.927663734115347
0.9257086999022482
0.9286412512218964
0.93841642228739
0.95405669599218
0.9804496578690128
1.0224828934506354
1.0821114369501466
1.1612903225806452
1.260019550342131
1.3763440860215057
1.5073313782991202
1.6480938416422288
1.7956989247311828
1.924731182795699
2.043010752688172
2.1700879765395893
2.2961876832844577
2.4144672531769307
2.5219941348973607
2.616813294232649
2.699902248289345
2.76930596285435
2.8260019550342133
2.8719452590420333
2.906158357771261
2.929618768328446
2.9393939393939394
2.940371456500489
2.93841642228739
2.929618768328446
2.9120234604105573
2.886608015640274
2.8533724340175954
2.812316715542522
2.7653958944281527
2.713587487781036
2.6578690127077222
2.601173020527859
2.548387096774193
2.4975562072336266
2.4457478005865103
2.393939393939394
2.3440860215053765
2.297165200391007
2.254154447702835
2.2160312805474094
2.179863147605083
2.145650048875855
2.112414467253177
2.080156402737048
2.047898338220919
2.018572825024438
1.9902248289345064
1.9589442815249267
1.927663734115347
1.8944281524926687
1.8592375366568916
1.8240469208211143
1.7898338220918866
1.7546432062561097
1.7194525904203324
1.6852394916911049
1.6520039100684265
1.624633431085044
1.6011730205278591
1.5757575757575757
1.5483870967741935
1.521994134897361
1.4965786901270772
1.4721407624633431
1.447702834799609
1.4242424242424243
1.4007820136852396
1.3792766373411536
1.3587487781036167
1.3421309872922775
1.3294232649071358
1.313782991202346
1.2991202346041055
1.2854349951124144
1.273704789833822
1.262952101661779
1.252199413489736
1.241446725317693
1.2287390029325511
1.2150537634408602
1.1994134897360704
1.18475073313783
1.173998044965787
1.166177908113392
1.1564027370478984
1.147605083088954
1.142717497556207
1.1456500488758554
1.1612903225806452
1.1925708699902249
1.2434017595307918
1.313782991202346
1.4037145650048877
1.512218963831867
1.6177908113391983
1.7243401759530792
1.8523949169110456
1.991202346041056
2.132942326490713
2.270772238514174
2.401759530791789
2.52297165200391
2.632453567937439
2.729227761485826
2.812316715542522
2.8826979472140764
2.941348973607038
2.975562072336266
2.995112414467253
3.0175953079178885
3.037145650048876
3.0518084066471163
3.060606060606061
3.0635386119257086
3.059628543499511
3.047898338220919
3.0283479960899315
3.0
2.962854349951124
2.920821114369501
2.873900293255132
2.820136852394917
2.760508308895406
2.696969696969697
2.631476050830889
2.565982404692082
2.5034213098729228
2.443792766373412
2.386119257086999
2.3304007820136854
2.278592375366569
2.2297165200391005
2.188660801564027
2.15347018572825
2.118279569892473
2.083088954056696
2.047898338220919
2.0117302052785924
1.9745845552297163
1.93841642228739
1.903225806451613
1.868035190615836
1.8347996089931573
1.8005865102639296
1.76930596285435
1.7419354838709675
1.7096774193548387
1.6774193548387095
1.6451612903225807
1.6129032258064515
1.581622678396872
1.5513196480938416
1.521994134897361
1.495601173020528
1.4721407624633431
1.4506353861192571
1.4301075268817205
1.414467253176931
1.4007820136852396
1.3841642228739004
1.3665689149560116
1.3499511241446724
1.335288367546432
1.321603128054741
1.3088954056695992
1.2961876832844574
1.284457478005865
1.2727272727272727
1.2609970674486803
1.2512218963831867
1.2434017595307918
1.2326490713587488
1.2209188660801564
1.2082111436950147
1.1945259042033236
1.1808406647116323
1.1691104594330402
1.160312805474096
1.1583577712609971
1.1671554252199414
1.1906158357771262
1.23069403714565
1.278592375366569
1.3372434017595307
1.4173998044965788
1.5151515151515151
1.6275659824046922
1.7497556207233629
1.8797653958944285
2.0117302052785924
2.1417399804496577
2.2658846529814274
2.3792766373411536
2.4819159335288368
2.5610948191593352
2.622678396871945
2.684261974584555
2.7390029325513194
2.78494623655914
2.8211143695014664
2.849462365591398
2.8699902248289346
2.8836754643206257
2.889540566959922
2.887585532746823
2.878787878787879
2.863147605083089
2.8406647116324537
2.811339198435973
2.776148582600196
2.7341153470185726
2.684261974584555
2.6285434995112413
2.56891495601173
2.50733137829912
2.443792766373412
2.3812316715542523
2.320625610948192
2.2639296187683287
2.2140762463343107
2.1710654936461387
2.1280547409579667
2.0879765395894427
2.0518084066471163
2.018572825024438
1.9853372434017595
1.95405669599218
1.921798631476051
1.8885630498533723
1.8563049853372435
1.8240469208211143
1.790811339198436
1.761485826001955
1.7341153470185728
1.7028347996089932
1.6705767350928642
1.6383186705767352
1.6050830889540566
1.5728250244379276
1.541544477028348
1.512218963831867
1.482893450635386
1.4545454545454546
1.4281524926686218
1.4076246334310851
1.3890518084066472
1.3685239491691104
1.348973607038123
1.3294232649071358
1.310850439882698
1.2932551319648091
1.2766373411534702
1.2609970674486803
1.24633431085044
1.2326490713587488
1.219941348973607
1.2072336265884651
1.198435972629521
1.1925708699902249
1.1837732160312806
1.1730205278592376
1.1612903225806452
1.1495601173020529
1.13880742913001
1.1270772238514175
1.1133919843597262
1.0987292277614855
1.086021505376344
1.0762463343108504
1.0742913000977516
1.0791788856304985
1.0918866080156402
1.1163245356793745
1.155425219941349
1.2121212121212122
1.2864125122189638
1.3773216031280548
1.4819159335288368
1.5962854349951123
1.7165200391006843
1.839687194525904
1.9618768328445748
2.064516129032258
2.15347018572825
2.2453567937438903
2.3304007820136854
2.4056695992179864
2.469208211143695
2.5219941348973607
2.5640273704789838
2.595307917888563
2.616813294232649
2.6295210166177907
2.633431085043988
2.6295210166177907
2.6177908113391983
2.60019550342131
2.575757575757576
2.544477028347996
2.506353861192571
2.462365591397849
2.412512218963832
2.3597262952101663
2.304007820136853
2.247311827956989
2.1925708699902247
2.145650048875855
2.102639296187683
2.058651026392962
2.01564027370479
1.975562072336266
1.9403714565004888
1.9090909090909087
1.8797653958944285
1.8504398826979471
1.8191593352883677
1.7878787878787878
1.7565982404692082
1.7253176930596286
1.696969696969697
1.6705767350928642
1.6412512218963833
1.6109481915933528
1.5796676441837731
1.547409579667644
1.5131964809384164
1.478005865102639
1.4428152492668622
1.4086021505376345
1.3763440860215057
1.3450635386119256
1.3206256109481915
1.300097751710655
1.2756598240469208
1.249266862170088
1.2228739002932552
1.195503421309873
1.1700879765395895
1.1456500488758554
1.1231671554252198
1.1026392961876832
1.0840664711632453
1.0654936461388074
1.0488758553274682
1.0391006842619743
1.0312805474095796
1.0195503421309873
1.0068426197458455
0.9941348973607038
0.981427174975562
0.9667644183773216
0.9511241446725318
0.935483870967742
0.9208211143695014
0.9051808406647116
0.8895405669599218
0.8787878787878788
0.8709677419354839
0.8592375366568915
0.8475073313782991
0.8387096774193549
0.833822091886608
0.8347996089931574
0.8856304985337243
0.9696969696969696
1.0332355816226784
1.0957966764418376
1.166177908113392
1.2473118279569892
1.327468230694037
1.409579667644184
1.5063538611925709
1.6129032258064515
1.7233626588465298
1.8328445747800584
1.9364613880742916
2.0332355816226784
2.121212121212121
2.20039100684262
2.2658846529814274
2.3196480938416424
2.357771260997068
2.383186705767351
2.403714565004888
2.418377321603128
2.426197458455523
2.426197458455523
2.418377321603128
2.4027370478983383
2.3812316715542523
2.3519061583577714
2.3167155425219943
2.27761485826002
2.236559139784946
2.19941348973607
2.1652003910068425
2.129032258064516
2.0948191593352883
2.0625610948191597
2.0332355816226784
2.006842619745845
1.9833822091886608
1.962854349951124
1.9442815249266865
1.927663734115347
1.9130009775171064
1.9012707722385145
1.8914956011730208
1.878787878787879
1.8641251221896384
1.8484848484848484
1.83088954056696
1.812316715542522
1.7927663734115349
1.7702834799608993
1.7468230694037146
1.7243401759530792
1.7008797653958945
1.675464320625611
1.653958944281525
1.635386119257087
1.6138807429130009
1.5923753665689149
1.56891495601173
1.5454545454545454
1.52297165200391
1.499511241446725
1.478983382209189
1.4604105571847508
1.4428152492668622
1.426197458455523
1.414467253176931
1.404692082111437
1.392961876832845
1.3792766373411536
1.3665689149560116
1.3528836754643203
1.3391984359726294
1.3255131964809383
1.3118279569892473
1.300097751710655
1.2883675464320623
1.278592375366569
1.2688172043010753
1.2639296187683284
1.2609970674486803
1.2551319648093842
1.2482893450635386
1.2424242424242424
1.2394916911045943
1.2424242424242424
1.252199413489736
1.2717497556207231
1.3049853372434017
1.3519061583577712
1.4134897360703813
1.4760508308895406
1.543499511241447
1.6256109481915937
1.7174975562072337
1.8142717497556209
1.9120234604105573
2.007820136852395
2.0977517106549364
2.1788856304985336
2.249266862170088
2.3088954056695994
2.356793743890518
2.3929618768328447
2.4144672531769307
2.426197458455523
2.432062561094819
2.43108504398827
2.4242424242424243
2.4086021505376345
2.3870967741935485
2.360703812316716
2.329423264907136
2.294232649071359
2.2561094819159337
2.2160312805474094
2.1788856304985336
2.142717497556207
2.103616813294233
2.064516129032258
2.0283479960899315
1.9960899315738023
1.967741935483871
1.9423264907135875
1.921798631476051
1.906158357771261
1.89247311827957
1.8807429130009776
1.870967741935484
1.8621700879765395
1.855327468230694
1.8465298142717497
1.836754643206256
1.826001955034213
1.8142717497556209
1.801564027370479
1.7869012707722385
1.76930596285435
1.750733137829912
1.7331378299120237
1.7145650048875856
1.6979472140762464
1.6823069403714566
1.6637341153470186
1.6441837732160314
1.624633431085044
1.6050830889540566
1.58455522971652
1.5650048875855327
1.547409579667644
1.5327468230694037
1.5190615835777126
1.5063538611925709
1.4975562072336266
1.4887585532746823
1.47702834799609
1.4643206256109482
1.452590420332356
1.4428152492668622
1.4330400782013686
1.4242424242424243
1.41544477028348
1.4066471163245358
1.3978494623655917
1.3890518084066472
1.3812316715542523
1.3763440860215057
1.3734115347018572
1.3695014662756595
1.364613880742913
1.3587487781036167
1.3528836754643203
1.3479960899315735
1.3440860215053765
1.3421309872922775
1.343108504398827
1.3509286412512218
1.367546432062561
1.391006842619746
1.4242424242424243
1.474095796676442
1.5405669599217986
1.624633431085044
1.7253176930596286
1.8387096774193548
1.959921798631476
2.086021505376344
2.210166177908113
2.3304007820136854
2.444770283479961
2.550342130987292
2.632453567937439
2.697947214076246
2.763440860215054
2.8240469208211145
2.87683284457478
2.919843597262952
2.9550342130987293
2.981427174975562
3.0009775171065494
3.0127077223851417
3.0195503421309877
3.021505376344086
3.0146627565982405
3.0009775171065494
2.983382209188661
2.9589442815249267
2.9286412512218964
2.8905180840664717
2.844574780058651
2.792766373411535
2.7370478983382207
2.679374389051808
2.621700879765396
2.5640273704789838
2.5083088954056696
2.458455522971652
2.4134897360703813
2.36950146627566
2.326490713587488
2.286412512218964
2.249266862170088
2.2160312805474094
2.1847507331378297
2.1544477028347995
2.124144672531769
2.0948191593352883
2.065493646138808
2.0391006842619745
2.0146627565982405
1.9872922776148585
1.9560117302052784
1.9227761485826005
1.8885630498533723
1.855327468230694
1.825024437927664
1.7956989247311828
1.7653958944281525
1.737047898338221
1.710654936461388
1.6842619745845553
1.6627565982404693
1.6441837732160314
1.624633431085044
1.6050830889540566
1.58455522971652
1.5650048875855327
1.5464320625610948
1.530791788856305
1.5151515151515151
1.500488758553275
1.4868035190615836
1.4731182795698925
1.4643206256109482
1.4496578690127078
1.4281524926686218
1.412512218963832
1.3988269794721409
1.3861192570869991
1.3743890518084063
1.3607038123167154
1.3479960899315735
1.3372434017595307
1.3255131964809383
1.3147605083088951
1.305962854349951
1.3020527859237536
1.3049853372434017
1.3128054740957966
1.3304007820136852
1.3607038123167154
1.4076246334310851
1.4711632453567938
1.5513196480938416
1.6451612903225807
1.750733137829912
1.8641251221896384
1.9824046920821117
2.086021505376344
2.1788856304985336
2.278592375366569
2.378299120234604
2.472140762463343
2.5562072336265884
2.6295210166177907
2.6911045943304006
2.7419354838709675
2.782991202346041
2.81622678396872
2.8406647116324537
2.8582600195503423
2.865102639296188
2.8641251221896384
2.8611925708699903
2.854349951124145
2.8426197458455524
2.8240469208211145
2.7976539589442817
2.764418377321604
2.7116324535679373
2.659824046920821
2.619745845552297
2.570869990224829
2.5219941348973607
2.4731182795698925
2.419354838709677
2.366568914956012
2.315738025415445
2.2688172043010755
2.225806451612903
2.187683284457478
2.1524926686217007
2.1192570869990224
2.0879765395894427
2.058651026392962
2.0303030303030303
2.004887585532747
1.981427174975562
1.956989247311828
1.9305962854349952
1.902248289345064
1.8729227761485825
1.844574780058651
1.8162267839687196
1.7869012707722385
1.7565982404692082
1.726295210166178
1.6959921798631477
1.6715542521994136
1.6490713587487782
1.6236559139784943
1.5992179863147604
1.576735092864125
1.5542521994134897
1.5327468230694037
1.5131964809384164
1.4936461388074291
1.4750733137829912
1.456500488758553
1.439882697947214
1.4242424242424243
1.412512218963832
1.404692082111437
1.3949169110459434
1.383186705767351
1.3714565004887584
1.3577712609970674
1.3450635386119256
1.3343108504398826
1.3235581622678396
1.313782991202346
1.303030303030303
1.2913000977517106
1.2834799608993157
1.2776148582600195
1.2688172043010753
1.2590420332355816
1.2512218963831867
1.2473118279569892
1.2502443792766371
1.2609970674486803
1.284457478005865
1.3235581622678396
1.3792766373411536
1.4516129032258065
1.5376344086021505
1.6217008797653958
1.7067448680351909
1.8074291300097751
1.913978494623656
2.022482893450636
2.129032258064516
2.2297165200391005
2.321603128054741
2.403714565004888
2.4750733137829912
2.5347018572825024
2.581622678396872
2.6129032258064515
2.633431085043988
2.6510263929618767
2.6637341153470184
2.6695992179863146
2.6695992179863146
2.6637341153470184
2.6510263929618767
2.63049853372434
2.603128054740958
2.56891495601173
2.5288367546432062
2.487781036168133
2.4457478005865103
2.396871945259042
2.345063538611926
2.29227761485826
2.239491691104594
2.189638318670577
2.142717497556207
2.099706744868035
2.059628543499511
2.024437927663734
1.9931573802541545
1.963831867057673
1.9393939393939397
1.916911045943304
1.8934506353861196
1.8699902248289344
1.847507331378299
1.823069403714565
1.7986314760508308
1.7732160312805474
1.7468230694037146
1.7194525904203324
1.6911045943304008
1.6627565982404693
1.6383186705767352
1.6158357771260996
1.5913978494623655
1.5650048875855327
1.5386119257087
1.5131964809384164
1.4887585532746823
1.4652981427174976
1.4428152492668622
1.423264907135875
1.404692082111437
1.388074291300098
1.3724340175953078
1.3607038123167154
1.3509286412512218
1.3401759530791788
1.3284457478005864
1.316715542521994
1.305962854349951
1.2961876832844574
1.2854349951124144
1.273704789833822
1.2619745845552297
1.2512218963831867
1.241446725317693
1.2355816226783969
1.2297165200391007
1.2189638318670577
1.2072336265884651
1.1935483870967742
1.1788856304985338
1.163245356793744
1.1495601173020529
1.1368523949169111
1.1251221896383188
1.118279569892473
1.1192570869990224
1.1300097751710656
1.1505376344086022
1.181818181818182
1.227761485826002
1.289345063538612
1.3655913978494625
1.4545454545454546
1.5532746823069403
1.656891495601173
1.7624633431085044
1.8670576735092863
1.9657869012707725
2.0576735092864125
2.1300097751710654
2.188660801564027
2.2453567937438903
2.2952101661779083
2.3362658846529816
2.366568914956012
2.3870967741935485
2.3978494623655915
2.39980449657869
2.393939393939394
2.3792766373411536
2.357771260997068
2.3284457478005867
2.297165200391007
2.26197458455523
2.218963831867057
2.1710654936461387
2.120234604105572
2.0684261974584555
2.0175953079178885
1.967741935483871
1.919843597262952
1.8748778103616808
1.8347996089931573
1.8005865102639296
1.7741935483870968
1.7526881720430108
1.732160312805474
1.7126099706744868
1.694037145650049
1.675464320625611
1.6578690127077225
1.640273704789834
1.6236559139784943
1.607038123167155
1.5894428152492668
1.5708699902248289
1.5513196480938416
1.5356793743890518
1.521994134897361
1.504398826979472
1.4848484848484849
1.4633431085043989
1.4418377321603129
1.4222873900293256
1.3861192570869991
1.3411534701857282
1.3098729227761483
1.2864125122189638
1.267839687194526
1.2551319648093842
1.24633431085044
1.2355816226783969
1.2258064516129032
1.217008797653959
1.2101661779081134
1.203323558162268
1.1964809384164223
1.1896383186705768
1.1837732160312806
1.1798631476050832
1.1779081133919844
1.1759530791788857
1.176930596285435
1.1788856304985338
1.1788856304985338
1.1759530791788857
1.1710654936461389
1.1652003910068427
1.160312805474096
1.1564027370478984
1.152492668621701
1.1485826001955035
1.1466275659824048
1.1485826001955035
1.155425219941349
1.1671554252199414
1.18475073313783
1.2130987292277615
1.2551319648093842
1.3128054740957966
1.3870967741935485
1.4750733137829912
1.5757575757575757
1.686217008797654
1.801564027370479
1.916911045943304
2.0283479960899315
2.121212121212121
2.19941348973607
2.278592375366569
2.350928641251222
2.410557184750733
2.4565004887585533
2.489736070381232
