ppg
2.814271749755621
2.850439882697948
2.877810361681329
2.8914956011730206
2.8944281524926687
2.8914956011730206
2.87683284457478
2.8484848484848486
2.807429130009776
2.755620723362659
2.695014662756598
2.63049853372434
2.5650048875855327
2.5024437927663734
2.443792766373412
2.3949169110459434
2.3528836754643208
2.3088954056695994
2.264907135874878
2.219941348973607
2.1739980449657867
2.1270772238514173
2.080156402737048
2.032258064516129
1.9843597262952104
1.93841642228739
1.8944281524926687
1.8563049853372435
1.822091886608016
1.7859237536656891
1.7497556207233629
1.7135874877810362
1.678396871945259
1.6441837732160314
1.6109481915933528
1.5796676441837731
1.5493646138807429
1.5190615835777126
1.4897360703812317
1.4613880742913
1.4379276637341154
1.418377321603128
1.3958944281524928
1.3714565004887584
1.3470185728250244
1.3225806451612905
1.2981427174975562
1.273704789833822
1.249266862170088
1.224828934506354
1.2003910068426198
1.1749755620723363
1.155425219941349
1.1407624633431086
1.1241446725317692
1.1133919843597262
1.1143695014662756
1.130987292277615
1.1671554252199414
1.2238514173998043
1.2981427174975562
1.3890518084066472
1.490713587487781
1.5972629521016617
1.7057673509286413
1.8005865102639296
1.8856304985337244
1.978494623655914
2.0733137829912023
2.1681329423264906
2.259042033235582
2.346041055718475
2.429130009775171
2.5083088954056696
2.581622678396872
2.650048875855328
2.713587487781036
2.760508308895406
2.7976539589442817
2.834799608993157
2.866080156402737
2.887585532746823
2.9012707722385143
2.9042033235581624
2.8944281524926687
2.8729227761485827
2.838709677419355
2.790811339198436
2.7311827956989245
2.6637341153470184
2.60019550342131
2.539589442815249
2.4760508308895406
2.41544477028348
2.358748778103617
2.3059628543499517
2.254154447702835
2.204301075268817
2.15347018572825
2.102639296187683
2.050830889540567
1.9990224828934504
1.95405669599218
1.9130009775171064
1.868035190615836
1.8211143695014664
1.772238514173998
1.7233626588465298
1.6764418377321604
1.6304985337243405
1.585532746823069
1.542521994134897
1.5024437927663734
1.4643206256109482
1.4271749755620724
1.3978494623655917
1.3734115347018572
1.346041055718475
1.316715542521994
1.2883675464320623
1.2619745845552297
1.2355816226783969
1.2111436950146628
1.1886608015640274
1.1671554252199414
1.147605083088954
1.1290322580645162
1.1163245356793745
1.10752688172043
1.0948191593352885
1.0801564027370478
1.0654936461388074
1.0488758553274682
1.0312805474095796
1.0156402737047898
1.0048875855327468
1.0019550342130987
1.0117302052785924
1.0391006842619743
1.0850439882697946
1.141739980449658
1.209188660801564
1.2981427174975562
1.401759530791789
1.5151515151515151
1.6334310850439884
1.7526881720430108
1.869012707722385
1.9824046920821117
2.090909090909091
2.196480938416422
2.2981427174975564
2.383186705767351
2.4574780058651027
2.536656891495601
2.6148582600195502
2.6901270772238512
2.7595307917888565
2.823069403714565
2.878787878787879
2.9257086999022484
2.963831867057673
2.994134897360704
3.01564027370479
3.026392961876833
3.024437927663734
3.0117302052785924
2.9902248289345064
2.956989247311828
2.9100684261974585
2.852394916911046
2.7869012707722387
2.716520039100684
2.6451612903225805
2.576735092864125
2.5131964809384164
2.453567937438905
2.401759530791789
2.3548387096774195
2.304985337243402
2.2521994134897363
2.198435972629521
2.144672531769306
2.09188660801564
2.040078201368524
1.988269794721408
1.9374389051808407
1.8875855327468232
1.8387096774193548
1.790811339198436
1.750733137829912
1.7145650048875856
1.6764418377321604
1.6373411534701858
1.5992179863147604
1.5620723362658846
1.525904203323558
1.490713587487781
1.456500488758553
1.4242424242424243
1.392961876832845
1.3626588465298142
1.3411534701857282
1.3235581622678396
1.303030303030303
1.2825024437927663
1.262952101661779
1.2424242424242424
1.2218963831867058
1.2013685239491692
1.1808406647116323
1.160312805474096
1.1407624633431086
1.1231671554252198
1.110459433040078
1.1085043988269794
1.1173020527859236
1.13880742913001
1.1759530791788857
1.2326490713587488
1.3069403714565004
1.3949169110459434
1.4936461388074291
1.598240469208211
1.704789833822092
1.8113391984359728
1.9159335288367547
2.004887585532747
2.085043988269794
2.1730205278592374
2.26197458455523
2.350928641251222
2.436950146627566
2.517106549364614
2.592375366568915
2.66177908113392
2.7253176930596283
2.782991202346041
2.832844574780059
2.875855327468231
2.9042033235581624
2.920821114369501
2.935483870967742
2.9442815249266863
2.9345063538611926
2.9071358748778104
2.873900293255132
2.8299120234604107
2.7751710654936463
2.710654936461388
2.6422287390029324
2.5718475073313782
2.5083088954056696
2.450635386119257
2.393939393939394
2.3391984359726297
2.2873900293255134
2.2375366568914954
2.188660801564027
2.139784946236559
2.09188660801564
2.0439882697947214
1.9951124144672527
1.946236559139785
1.903225806451613
1.8641251221896384
1.8211143695014664
1.7761485826001957
1.7311827956989247
1.6871945259042034
1.6441837732160314
1.6021505376344083
1.5610948191593352
1.52297165200391
1.487781036168133
1.4545454545454546
1.4222873900293256
1.396871945259042
1.3763440860215057
1.3519061583577712
1.327468230694037
1.3040078201368523
1.281524926686217
1.2590420332355816
1.2365591397849462
1.2150537634408602
1.195503421309873
1.1759530791788857
1.1564027370478984
1.142717497556207
1.130987292277615
1.1143695014662756
1.096774193548387
1.0821114369501466
1.0733137829912025
1.0733137829912025
1.0869990224828934
1.1173020527859236
1.1671554252199414
1.2355816226783969
1.3206256109481915
1.4173998044965788
1.509286412512219
1.598240469208211
1.6989247311827955
1.8035190615835777
1.9090909090909087
2.013685239491691
2.115347018572825
2.2140762463343107
2.3088954056695994
2.39980449657869
2.484848484848485
2.5650048875855327
2.627565982404692
2.679374389051808
2.7341153470185726
2.7859237536656893
2.832844574780059
2.8729227761485827
2.905180840664712
2.9286412512218964
2.943304007820137
2.945259042033236
2.9345063538611926
2.909090909090909
2.8690127077223853
2.822091886608016
2.76930596285435
2.7067448680351904
2.6402737047898337
2.573802541544477
2.5102639296187683
2.4516129032258065
2.3958944281524928
2.3440860215053765
2.29227761485826
2.2385141739980448
2.1837732160312804
2.133919843597263
2.086021505376344
2.0332355816226784
1.9794721407624636
1.9266862170087975
1.8758553274682308
1.8269794721407624
1.780058651026393
1.7350928641251222
1.6930596285434996
1.6529814271749756
1.6148582600195502
1.5777126099706744
1.547409579667644
1.521016617790811
1.4916911045943304
1.4604105571847508
1.4281524926686218
1.396871945259042
1.367546432062561
1.3411534701857282
1.3157380254154447
1.2932551319648091
1.2727272727272727
1.2541544477028348
1.241446725317693
1.2316715542521994
1.217008797653959
1.2003910068426198
1.181818181818182
1.1622678396871946
1.142717497556207
1.1241446725317692
1.1085043988269794
1.099706744868035
1.1026392961876832
1.121212121212121
1.1573802541544478
1.2043010752688172
1.2639296187683284
1.3421309872922775
1.4349951124144673
1.5366568914956011
1.643206256109482
1.7497556207233629
1.8543499511241448
1.9550342130987293
2.053763440860215
2.1495601173020527
2.242424242424242
2.318670576735093
2.386119257086999
2.4604105571847508
2.533724340175953
2.603128054740958
2.6666666666666665
2.7233626588465296
2.7722385141739982
2.814271749755621
2.849462365591398
2.87683284457478
2.895405669599218
2.9042033235581624
2.902248289345064
2.8885630498533725
2.866080156402737
2.831867057673509
2.78494623655914
2.727272727272727
2.662756598240469
2.595307917888563
2.5268817204301075
2.4613880742913
2.40078201368524
2.343108504398827
2.294232649071359
2.2502443792766376
2.203323558162268
2.155425219941349
2.10752688172043
2.059628543499511
2.010752688172043
1.9618768328445748
1.9130009775171064
1.865102639296188
1.8172043010752688
1.7702834799608993
1.7243401759530792
1.6871945259042034
1.653958944281525
1.616813294232649
1.5786901270772238
1.5395894428152492
1.501466275659824
1.4652981427174976
1.4320625610948192
1.4007820136852396
1.3714565004887584
1.3450635386119256
1.3196480938416422
1.3010752688172045
1.2854349951124144
1.2668621700879763
1.2473118279569892
1.2267839687194526
1.2072336265884651
1.187683284457478
1.1681329423264908
1.1495601173020529
1.1300097751710656
1.1094819159335287
1.0909090909090908
1.075268817204301
1.0684261974584557
1.0703812316715542
1.0811339198435972
1.1065493646138806
1.1495601173020529
1.2111436950146628
1.2913000977517106
1.3861192570869991
1.490713587487781
1.6011730205278591
1.7126099706744868
1.823069403714565
1.9188660801564028
2.003910068426197
2.0948191593352883
2.188660801564027
2.281524926686217
2.3714565004887587
2.4565004887585533
2.5376344086021505
2.6129032258064515
2.6823069403714563
2.744868035190616
2.80058651026393
2.8484848484848486
2.8826979472140764
2.906158357771261
2.927663734115347
2.943304007820137
2.9501466275659824
2.945259042033236
2.9266862170087977
2.89345063538612
2.84652981427175
2.787878787878788
2.720430107526881
2.649071358748778
2.5835777126099706
2.5239491691104594
2.4652981427174976
2.4086021505376345
2.355816226783969
2.3059628543499517
2.2561094819159337
2.207233626588465
2.158357771260997
2.10752688172043
2.0557184750733137
2.0009775171065494
1.951124144672532
1.9071358748778104
1.8592375366568916
1.8103616813294232
1.761485826001955
1.7135874877810362
1.667644183773216
1.6226783968719452
1.5786901270772238
1.5356793743890518
1.4946236559139785
1.4545454545454546
1.4164222873900294
1.3861192570869991
1.3607038123167154
1.3333333333333333
1.3049853372434017
1.2756598240469208
1.2482893450635386
1.2228739002932552
1.1994134897360704
1.176930596285435
1.155425219941349
1.1348973607038124
1.1143695014662756
1.099706744868035
1.0869990224828934
1.0694037145650048
1.0498533724340176
1.0312805474095796
1.0166177908113392
1.0087976539589445
1.0127077223851415
1.0332355816226784
1.0713587487781036
1.1300097751710656
1.2072336265884651
1.2991202346041055
1.3900293255131966
1.4819159335288368
1.5865102639296187
1.6959921798631477
1.8054740957966764
1.9149560117302051
2.021505376344086
2.1251221896383186
2.2238514173998043
2.318670576735093
2.410557184750733
2.4975562072336266
2.5669599217986314
2.624633431085044
2.6852394916911044
2.742913000977517
2.7966764418377323
2.843597262952102
2.8826979472140764
2.913978494623656
2.936461388074292
2.948191593352884
2.9472140762463344
2.932551319648094
2.902248289345064
2.863147605083089
2.814271749755621
2.7546432062561097
2.687194525904203
2.6158357771261
2.5464320625610948
2.4819159335288368
2.4222873900293256
2.367546432062561
2.315738025415445
2.264907135874878
2.2140762463343107
2.1681329423264906
2.126099706744868
2.0791788856304985
2.0303030303030303
1.9804496578690127
1.9305962854349952
1.881720430107527
1.8347996089931573
1.7888563049853372
1.7438905180840665
1.7008797653958945
1.6598240469208212
1.6217008797653958
1.5913978494623655
1.5650048875855327
1.5356793743890518
1.5063538611925709
1.478005865102639
1.4506353861192571
1.4222873900293256
1.3949169110459434
1.3695014662756595
1.3440860215053765
1.3196480938416422
1.2981427174975562
1.2825024437927663
1.2688172043010753
1.2512218963831867
1.2336265884652982
1.2140762463343109
1.1935483870967742
1.1730205278592376
1.152492668621701
1.1329423264907137
1.115347018572825
1.1026392961876832
1.0987292277614855
1.1094819159335287
1.1319648093841643
1.1691104594330402
1.224828934506354
1.2991202346041055
1.388074291300098
1.4868035190615836
1.5923753665689149
1.6989247311827955
1.804496578690127
1.90811339198436
2.0087976539589443
2.1065493646138806
2.187683284457478
2.260019550342131
2.3382209188660803
2.4164222873900294
2.490713587487781
2.5620723362658846
2.6285434995112413
2.6881720430107525
2.742913000977517
2.790811339198436
2.831867057673509
2.8641251221896384
2.8856304985337244
2.89345063538612
2.8905180840664717
2.8797653958944283
2.8563049853372435
2.820136852394917
2.771260997067449
2.7116324535679373
2.64613880742913
2.576735092864125
2.509286412512219
2.444770283479961
2.3841642228739004
2.333333333333333
2.2883675464320627
2.241446725317693
2.193548387096774
2.144672531769306
2.0948191593352883
2.0449657869012707
1.994134897360704
1.943304007820137
1.8914956011730208
1.8406647116324533
1.790811339198436
1.7419354838709675
1.699902248289345
1.6627565982404693
1.6217008797653958
1.5796676441837731
1.5376344086021505
1.4965786901270772
1.457478005865103
1.4193548387096775
1.383186705767351
1.348973607038123
1.3157380254154447
1.284457478005865
1.260019550342131
1.2404692082111437
1.217008797653959
1.1925708699902249
1.1700879765395895
1.1485826001955035
1.1280547409579669
1.1085043988269794
1.088954056695992
1.0713587487781036
1.0547409579667644
1.0391006842619743
1.0234604105571847
1.013685239491691
1.0068426197458455
0.9960899315738024
0.9843597262952102
0.978494623655914
0.9833822091886608
1.0039100684261977
1.0420332355816226
1.1016617790811338
1.181818181818182
1.2776148582600195
1.3861192570869991
1.487781036168133
1.5865102639296187
1.6979472140762464
1.8142717497556209
1.9296187683284456
2.0410557184750733
2.1495601173020527
2.2551319648093844
2.357771260997068
2.4565004887585533
2.550342130987292
2.6373411534701856
2.705767350928641
2.7614858260019552
2.819159335288368
2.873900293255132
2.9237536656891496
2.9667644183773216
3.0019550342130987
3.027370478983382
3.043010752688172
3.046920821114369
3.0391006842619745
3.016617790811339
2.979472140762464
2.932551319648094
2.877810361681329
2.812316715542522
2.739980449657869
2.664711632453568
2.590420332355816
2.520039100684262
2.4545454545454546
2.393939393939394
2.3362658846529816
2.280547409579668
2.225806451612903
2.177908113391984
2.132942326490713
2.0840664711632453
2.032258064516129
1.9794721407624636
1.9266862170087975
1.8748778103616808
1.823069403714565
1.7732160312805474
1.7253176930596286
1.6793743890518085
1.635386119257087
1.5913978494623655
1.5562072336265884
1.5249266862170088
1.490713587487781
1.455522971652004
1.4203323558162269
1.391006842619746
1.364613880742913
1.3372434017595307
1.310850439882698
1.2854349951124144
1.2609970674486803
1.238514173998045
1.2218963831867058
1.2082111436950147
1.1925708699902249
1.1749755620723363
1.1564027370478984
1.1368523949169111
1.1163245356793745
1.0957966764418376
1.0762463343108504
1.0625610948191593
1.0576735092864125
1.0664711632453567
1.0918866080156402
1.1300097751710656
1.1808406647116323
1.2531769305962854
1.3421309872922775
1.4418377321603129
1.5493646138807429
1.6588465298142718
1.7673509286412512
1.873900293255132
1.9775171065493649
2.0772238514174
2.1739980449657867
2.254154447702835
2.324535679374389
2.401759530791789
2.4780058651026398
2.5513196480938416
2.618768328445748
2.681329423264907
2.7370478983382207
2.7859237536656893
2.827956989247312
2.86217008797654
2.886608015640274
2.902248289345064
2.9042033235581624
2.895405669599218
2.877810361681329
2.8475073313782997
2.8044965786901277
2.748778103616813
2.684261974584555
2.6148582600195502
2.5454545454545454
2.4780058651026398
2.4144672531769307
2.355816226783969
2.3059628543499517
2.260997067448681
2.21505376344086
2.1681329423264906
2.121212121212121
2.072336265884653
2.0234604105571847
1.9745845552297163
1.9266862170087975
1.878787878787879
1.83088954056696
1.7839687194525904
1.737047898338221
1.6979472140762464
1.6627565982404693
1.6236559139784943
1.58455522971652
1.544477028347996
1.5053763440860215
1.4682306940371457
1.4330400782013686
1.3998044965786902
1.367546432062561
1.33822091886608
1.310850439882698
1.2903225806451613
1.2727272727272727
1.252199413489736
1.23069403714565
1.209188660801564
1.1886608015640274
1.1691104594330402
1.1515151515151516
1.1348973607038124
1.1192570869990224
1.1026392961876832
1.0850439882697946
1.0684261974584557
1.056695992179863
1.050830889540567
1.0478983382209188
1.0547409579667644
1.0772238514173995
1.118279569892473
1.1788856304985338
1.2590420332355816
1.3548387096774193
1.4613880742913
1.5728250244379276
1.686217008797654
1.7839687194525904
1.873900293255132
1.9716520039100685
2.069403714565005
2.166177908113392
2.260997067448681
2.3528836754643208
2.4408602150537635
2.5239491691104594
2.601173020527859
2.6725317693059627
2.7370478983382207
2.7947214076246336
2.8367546432062563
2.868035190615836
2.8993157380254155
2.924731182795699
2.943304007820137
2.952101661779081
2.9501466275659824
2.9345063538611926
2.906158357771261
2.8641251221896384
2.809384164222874
2.747800586510264
2.687194525904203
2.627565982404692
2.5650048875855327
2.505376344086021
2.4486803519061584
2.3958944281524928
2.345063538611926
2.2961876832844577
2.2482893450635384
2.19941348973607
2.1495601173020527
2.0987292277614857
2.047898338220919
2.003910068426197
1.963831867057673
1.919843597262952
1.8748778103616808
1.83088954056696
1.7888563049853372
1.747800586510264
1.70772238514174
1.6695992179863148
1.6334310850439884
1.598240469208211
1.564027370478983
1.5376344086021505
1.5141739980449658
1.4868035190615836
1.457478005865103
1.4281524926686218
1.3988269794721409
1.3695014662756595
1.3411534701857282
1.3147605083088951
1.2883675464320623
1.262952101661779
1.238514173998045
1.2140762463343109
1.195503421309873
1.1798631476050832
1.160312805474096
1.1397849462365592
1.1192570869990224
1.1006842619745845
1.0879765395894427
1.086021505376344
1.0977517106549364
1.1270772238514175
1.1759530791788857
1.2443792766373412
1.3176930596285434
1.3958944281524928
1.490713587487781
1.5943304007820136
1.7008797653958945
1.8074291300097751
1.9100684261974583
2.0097751710654936
2.1065493646138806
2.19941348973607
2.2873900293255134
2.3714565004887587
2.4389051808406648
2.495601173020528
2.557184750733138
2.6177908113391983
2.675464320625611
2.727272727272727
2.771260997067449
2.8084066471163247
2.8377321603128056
2.857282502443793
2.8670576735092865
2.866080156402737
2.852394916911046
2.827956989247312
2.792766373411535
2.745845552297165
2.687194525904203
2.6207233626588464
2.550342130987292
2.479960899315738
2.4134897360703813
2.350928641251222
2.29227761485826
2.236559139784946
2.182795698924731
2.136852394916911
2.0948191593352883
2.0498533724340176
2.0019550342130987
1.95405669599218
1.905180840664712
1.8563049853372435
1.8074291300097751
1.7595307917888563
1.7135874877810362
1.6695992179863148
1.6265884652981428
1.58455522971652
1.5493646138807429
1.5190615835777126
1.4858260019550342
1.4516129032258065
1.4173998044965788
1.383186705767351
1.3509286412512218
1.3206256109481915
1.2913000977517106
1.262952101661779
1.2365591397849462
1.2121212121212122
1.195503421309873
1.1827956989247312
1.166177908113392
1.1485826001955035
1.1300097751710656
1.1124144672531768
1.0948191593352885
1.078201368523949
1.06158357771261
1.0449657869012707
1.0273704789833822
1.0097751710654936
0.9980449657869012
0.9960899315738024
0.9980449657869012
1.002932551319648
1.018572825024438
1.050830889540567
1.1026392961876832
1.1749755620723363
1.2658846529814272
1.370478983382209
1.4858260019550342
1.607038123167155
1.7302052785923754
1.835777126099707
1.9305962854349952
2.032258064516129
2.1358748778103616
2.2385141739980448
2.337243401759531
2.432062561094819
2.5219941348973607
2.6080156402737047
2.6881720430107525
2.7624633431085046
2.8299120234604107
2.8885630498533725
2.930596285434995
2.961876832844575
2.9931573802541545
3.0195503421309877
3.037145650048876
3.04594330400782
3.043010752688172
3.027370478983382
2.9980449657869013
2.9550342130987293
2.8993157380254155
2.833822091886608
2.768328445747801
2.7038123167155423
2.634408602150537
2.565982404692082
2.501466275659824
2.4408602150537635
2.383186705767351
2.3284457478005867
2.2737047898338223
2.219941348973607
2.166177908113392
2.112414467253177
2.059628543499511
2.0127077223851417
1.9696969696969695
1.9227761485826005
1.8748778103616808
1.8269794721407624
1.7790811339198436
1.732160312805474
1.6871945259042034
1.643206256109482
1.6001955034213098
1.5591397849462365
1.5190615835777126
1.487781036168133
1.4594330400782014
1.4281524926686218
1.3958944281524928
1.364613880742913
1.335288367546432
1.3069403714565004
1.281524926686217
1.2580645161290325
1.2355816226783969
1.2140762463343109
1.1935483870967742
1.173998044965787
1.1593352883675463
1.1456500488758554
1.1280547409579669
1.1085043988269794
1.0899315738025417
1.0733137829912025
1.0625610948191593
1.06158357771261
1.0733137829912025
1.1016617790811338
1.1495601173020529
1.2179863147605083
1.29227761485826
1.3734115347018572
1.4701857282502444
1.5757575757575757
1.6852394916911049
1.7947214076246334
1.9012707722385145
2.005865102639296
2.1055718475073317
2.201368523949169
2.294232649071359
2.383186705767351
2.4672531769305963
2.5347018572825024
2.592375366568915
2.6529814271749754
2.7126099706744866
2.7673509286412514
2.8152492668621703
2.857282502443793
2.8914956011730206
2.9159335288367547
2.9315738025415445
2.935483870967742
2.9257086999022484
2.905180840664712
2.873900293255132
2.8299120234604107
2.773216031280548
2.70772238514174
2.6373411534701856
2.5669599217986314
2.498533724340176
2.434017595307918
2.3743890518084068
2.3196480938416424
2.2658846529814274
2.2140762463343107
2.1681329423264906
2.126099706744868
2.081133919843597
2.0332355816226784
1.9853372434017595
1.93841642228739
1.8905180840664717
1.842619745845552
1.7947214076246334
1.747800586510264
1.7028347996089932
1.6588465298142718
1.6226783968719452
1.590420332355816
1.5542521994134897
1.517106549364614
1.479960899315738
1.4437927663734116
1.4076246334310851
1.3724340175953078
1.3391984359726294
1.3079178885630498
1.278592375366569
1.252199413489736
1.2336265884652982
1.219941348973607
1.2043010752688172
1.187683284457478
1.1710654936461389
1.1544477028347997
1.1368523949169111
1.118279569892473
1.0987292277614855
1.0772238514173995
1.056695992179863
1.0381231671554252
1.0263929618768328
1.0263929618768328
1.0381231671554252
1.0654936461388074
1.1124144672531768
1.1788856304985338
1.2619745845552297
1.3607038123167154
1.469208211143695
1.5835777126099706
1.699902248289345
1.8142717497556209
1.9266862170087975
2.022482893450636
2.10850439882698
2.2023460410557183
2.2981427174975564
2.3929618768328447
2.484848484848485
2.5718475073313782
2.6529814271749754
2.727272727272727
2.7947214076246336
2.854349951124145
2.906158357771261
2.9501466275659824
2.978494623655914
2.9960899315738025
3.010752688172043
3.018572825024438
3.01564027370479
2.99902248289345
2.967741935483871
2.9237536656891496
2.868035190615836
2.803519061583578
2.735092864125122
2.665689149560117
2.6050830889540566
2.5513196480938416
2.4975562072336266
2.444770283479961
2.393939393939394
2.343108504398827
2.291300097751711
2.2385141739980448
2.1847507331378297
2.129032258064516
2.0733137829912023
2.0195503421309877
1.9657869012707725
1.9188660801564028
1.8758553274682308
1.828934506353861
1.780058651026393
1.7311827956989247
1.683284457478006
1.6373411534701858
1.5943304007820136
1.5532746823069403
1.5131964809384164
1.4750733137829912
1.4379276637341154
1.4086021505376345
1.3851417399804498
1.3577712609970674
1.3294232649071358
1.3020527859237536
1.2746823069403714
1.249266862170088
1.2258064516129032
1.203323558162268
1.1827956989247312
1.1622678396871946
1.142717497556207
1.1251221896383188
