ppg
2.421309872922776
2.340175953079179
2.2580645161290325
2.185728250244379
2.118279569892473
2.0439882697947214
1.9657869012707725
1.8866080156402736
1.8084066471163245
1.7302052785923754
1.6529814271749756
1.5777126099706744
1.504398826979472
1.4330400782013686
1.3655913978494625
1.310850439882698
1.2668621700879763
1.2228739002932552
1.18475073313783
1.155425219941349
1.1368523949169111
1.1280547409579669
1.1290322580645162
1.1378299120234605
1.152492668621701
1.1700879765395895
1.1886608015640274
1.206256109481916
1.2218963831867058
1.2346041055718475
1.2434017595307918
1.2482893450635386
1.249266862170088
1.2473118279569892
1.241446725317693
1.2336265884652982
1.2238514173998043
1.2121212121212122
1.198435972629521
1.1837732160312806
1.1730205278592376
1.163245356793744
1.1485826001955035
1.1300097751710656
1.1065493646138806
1.0801564027370478
1.053763440860215
1.0361681329423265
1.040078201368524
1.078201368523949
1.1612903225806452
1.295210166177908
1.444770283479961
1.6129032258064515
1.8240469208211143
2.050830889540567
2.269794721407625
2.464320625610948
2.6236559139784945
2.7438905180840663
2.8260019550342133
2.873900293255132
2.8905180840664717
2.881720430107527
2.8533724340175954
2.812316715542522
2.7624633431085046
2.7008797653958942
2.632453567937439
2.558162267839687
2.479960899315738
2.40078201368524
2.3196480938416424
2.2385141739980448
2.158357771260997
2.078201368523949
2.0
1.9315738025415443
1.868035190615836
1.7986314760508308
1.726295210166178
1.6529814271749756
1.5786901270772238
1.5063538611925709
1.436950146627566
1.3714565004887584
1.3128054740957966
1.2619745845552297
1.219941348973607
1.187683284457478
1.1691104594330402
1.1612903225806452
1.1593352883675463
1.164222873900293
1.1749755620723363
1.1906158357771262
1.209188660801564
1.2287390029325511
1.2473118279569892
1.2639296187683284
1.2776148582600195
1.2864125122189638
1.29227761485826
1.2961876832844574
1.2961876832844574
1.2932551319648091
1.2883675464320623
1.281524926686217
1.2727272727272727
1.2609970674486803
1.2482893450635386
1.2346041055718475
1.2189638318670577
1.2003910068426198
1.1779081133919844
1.1573802541544478
1.13880742913001
1.1192570869990224
1.1114369501466277
1.1280547409579669
1.181818181818182
1.2825024437927663
1.434017595307918
1.629521016617791
1.8563049853372435
2.0957966764418376
2.3274682306940373
2.512218963831867
2.656891495601173
2.7859237536656893
2.886608015640274
2.9530791788856305
2.988269794721408
2.995112414467253
2.979472140762464
2.945259042033236
2.897360703812317
2.8377321603128056
2.76930596285435
2.6959921798631474
2.625610948191593
2.5562072336265884
2.479960899315738
2.3841642228739004
2.2795698924731185
2.188660801564027
2.1055718475073317
2.027370478983382
1.951124144672532
1.87683284457478
1.8025415444770283
1.729227761485826
1.6666666666666667
1.6099706744868034
1.547409579667644
1.482893450635386
1.4213098729227762
1.3655913978494625
1.3186705767350928
1.2805474095796676
1.2531769305962854
1.2355816226783969
1.2287390029325511
1.23069403714565
1.2404692082111437
1.2551319648093842
1.2717497556207231
1.2913000977517106
1.310850439882698
1.3294232649071358
1.3450635386119256
1.3577712609970674
1.3665689149560116
1.3714565004887584
1.3734115347018572
1.3724340175953078
1.3695014662756595
1.3665689149560116
1.3626588465298142
1.3558162267839686
1.3470185728250244
1.3362658846529814
1.3255131964809383
1.3118279569892473
1.295210166177908
1.2756598240469208
1.2541544477028348
1.2365591397849462
1.2316715542521994
1.252199413489736
1.295210166177908
1.3695014662756595
1.4946236559139785
1.667644183773216
1.8778103616813293
2.1065493646138806
2.335288367546432
2.5454545454545454
2.724340175953079
2.865102639296188
2.964809384164223
3.027370478983382
3.053763440860215
3.053763440860215
3.0361681329423265
3.002932551319648
2.9550342130987293
2.8963831867057674
2.8299120234604107
2.758553274682307
2.6823069403714563
2.603128054740958
2.5219941348973607
2.439882697947214
2.356793743890518
2.281524926686217
2.2111436950146626
2.1358748778103616
2.058651026392962
1.9804496578690127
1.902248289345064
1.825024437927664
1.747800586510264
1.6705767350928642
1.5943304007820136
1.520039100684262
1.4506353861192571
1.393939393939394
1.3470185728250244
1.3020527859237536
1.2639296187683284
1.2346041055718475
1.217008797653959
1.209188660801564
1.2101661779081134
1.217008797653959
1.2287390029325511
1.2434017595307918
1.2570869990224829
1.2697947214076246
1.281524926686217
1.2903225806451613
1.295210166177908
1.2971652003910068
1.2961876832844574
1.2913000977517106
1.2834799608993157
1.2727272727272727
1.2609970674486803
1.2473118279569892
1.2316715542521994
1.2160312805474096
1.203323558162268
1.1906158357771262
1.173998044965787
1.1515151515151516
1.1251221896383188
1.0948191593352885
1.0684261974584557
1.0547409579667644
1.0654936461388074
1.1143695014662756
1.209188660801564
1.3519061583577712
1.5376344086021505
1.721407624633431
1.902248289345064
2.104594330400782
2.3010752688172045
2.472140762463343
2.6080156402737047
2.705767350928641
2.7673509286412514
2.795698924731183
2.7966764418377323
2.774193548387097
2.7341153470185726
2.686217008797654
2.63049853372434
2.5640273704789838
2.490713587487781
2.412512218963832
2.3304007820136854
2.2453567937438903
2.1593352883675463
2.074291300097752
1.989247311827957
1.9042033235581624
1.8201368523949168
1.747800586510264
1.6823069403714566
1.6099706744868034
1.5356793743890518
1.4604105571847508
1.3851417399804498
1.3128054740957966
1.2443792766373412
1.181818181818182
1.1270772238514175
1.0811339198435972
1.04594330400782
1.021505376344086
1.0097751710654936
1.0087976539589445
1.013685239491691
1.0254154447702837
1.0420332355816226
1.0625610948191593
1.086021505376344
1.110459433040078
1.1329423264907137
1.152492668621701
1.1681329423264908
1.1798631476050832
1.1896383186705768
1.1964809384164223
1.1994134897360704
1.1994134897360704
1.1964809384164223
1.1906158357771262
1.1827956989247312
1.173998044965787
1.164222873900293
1.152492668621701
1.13880742913001
1.121212121212121
1.099706744868035
1.0801564027370478
1.0635386119257086
1.0498533724340176
1.050830889540567
1.0811339198435972
1.1544477028347997
1.2776148582600195
1.4496578690127078
1.6627565982404693
1.8993157380254155
2.139784946236559
2.364613880742913
2.539589442815249
2.6715542521994133
2.78494623655914
2.8690127077223853
2.921798631476051
2.945259042033236
2.943304007820137
2.918866080156403
2.87683284457478
2.822091886608016
2.758553274682307
2.687194525904203
2.610948191593353
2.5376344086021505
2.466275659824047
2.389051808406647
2.3088954056695994
2.2267839687194524
2.144672531769306
2.06158357771261
1.978494623655914
1.895405669599218
1.8132942326490715
1.732160312805474
1.651026392961877
1.581622678396872
1.5190615835777126
1.452590420332356
1.3861192570869991
1.3235581622678396
1.2668621700879763
1.2189638318670577
1.1798631476050832
1.1505376344086022
1.130987292277615
1.121212121212121
1.121212121212121
1.1300097751710656
1.1436950146627567
1.160312805474096
1.1808406647116323
1.2013685239491692
1.219941348973607
1.2355816226783969
1.2482893450635386
1.2580645161290325
1.262952101661779
1.2649071358748778
1.262952101661779
1.2590420332355816
1.2551319648093842
1.2512218963831867
1.2434017595307918
1.2326490713587488
1.219941348973607
1.206256109481916
1.1896383186705768
1.1691104594330402
1.144672531769306
1.118279569892473
1.0987292277614855
1.0957966764418376
1.121212121212121
1.1700879765395895
1.252199413489736
1.3870967741935485
1.5679374389051808
1.7810361681329423
2.007820136852395
2.23069403714565
2.432062561094819
2.601173020527859
2.7311827956989245
2.823069403714565
2.878787878787879
2.9012707722385143
2.898338220918866
2.878787878787879
2.843597262952102
2.795698924731183
2.7370478983382207
2.670576735092864
2.598240469208211
2.52297165200391
2.4457478005865103
2.366568914956012
2.2873900293255134
2.2082111436950145
2.1378299120234603
2.071358748778104
1.9990224828934504
1.924731182795699
1.8494623655913975
1.7761485826001957
1.704789833822092
1.6344086021505375
1.5669599217986314
1.501466275659824
1.4389051808406648
1.3812316715542523
1.3362658846529814
1.3010752688172045
1.267839687194526
1.241446725317693
1.2238514173998043
1.2150537634408602
1.2150537634408602
1.2218963831867058
1.2346041055718475
1.2502443792766371
1.2668621700879763
1.284457478005865
1.3020527859237536
1.316715542521994
1.327468230694037
1.3362658846529814
1.3421309872922775
1.3440860215053765
1.3421309872922775
1.3372434017595307
1.3294232649071358
1.3196480938416422
1.3088954056695992
1.2971652003910068
1.284457478005865
1.273704789833822
1.262952101661779
1.24633431085044
1.2238514173998043
1.198435972629521
1.1749755620723363
1.163245356793744
1.1749755620723363
1.2238514173998043
1.3176930596285434
1.4604105571847508
1.6451612903225807
1.8602150537634408
2.0576735092864125
2.2375366568914954
2.4252199413489737
2.595307917888563
2.735092864125122
2.838709677419355
2.906158357771261
2.941348973607038
2.948191593352884
2.932551319648094
2.898338220918866
2.850439882697948
2.7966764418377323
2.73802541544477
2.6695992179863146
2.5962854349951123
2.5180840664711632
2.436950146627566
2.3548387096774195
2.271749755620724
2.188660801564027
2.10752688172043
2.026392961876833
1.945259042033236
1.8748778103616808
1.8103616813294232
1.7390029325513197
1.6656891495601174
1.5913978494623655
1.517106549364614
1.4457478005865103
1.3782991202346042
1.3157380254154447
1.2619745845552297
1.217008797653959
1.1827956989247312
1.1583577712609971
1.1466275659824048
1.144672531769306
1.147605083088954
1.1564027370478984
1.1700879765395895
1.1857282502443791
1.2013685239491692
1.2150537634408602
1.2267839687194526
1.2355816226783969
1.241446725317693
1.2434017595307918
1.2443792766373412
1.2434017595307918
1.2375366568914956
1.2287390029325511
1.2179863147605083
1.2052785923753666
1.1915933528836755
1.176930596285435
1.1612903225806452
1.1436950146627567
1.1221896383186705
1.096774193548387
1.067448680351906
1.0439882697947214
1.029325513196481
1.0254154447702837
1.0469208211143697
1.1085043988269794
1.217008797653959
1.3714565004887584
1.564027370478983
1.7781036168132942
1.9960899315738023
2.198435972629521
2.3734115347018574
2.4995112414467253
2.5855327468230693
2.6510263929618767
2.6901270772238512
2.7038123167155423
2.6959921798631474
2.6695992179863146
2.627565982404692
2.572825024437928
2.5083088954056696
2.436950146627566
2.360703812316716
2.2825024437927666
2.210166177908113
2.1417399804496577
2.067448680351906
1.9902248289345064
1.9120234604105573
1.8347996089931573
1.7575757575757576
1.6803519061583578
1.6041055718475072
1.5298142717497556
1.456500488758553
1.3851417399804498
1.327468230694037
1.2766373411534702
1.2228739002932552
1.1710654936461389
1.1241446725317692
1.0850439882697946
1.053763440860215
1.032258064516129
1.0205278592375366
1.0175953079178883
1.0234604105571847
1.0361681329423265
1.053763440860215
1.072336265884653
1.0918866080156402
1.1114369501466277
1.1280547409579669
1.141739980449658
1.1515151515151516
1.1573802541544478
1.160312805474096
1.160312805474096
1.1573802541544478
1.1515151515151516
1.144672531769306
1.13880742913001
1.133919843597263
1.1241446725317692
1.1114369501466277
1.096774193548387
1.0801564027370478
1.0596285434995112
1.0361681329423265
1.0117302052785924
0.9941348973607038
0.9921798631476052
1.018572825024438
1.0850439882697946
1.1749755620723363
1.2942326490713587
1.4623655913978495
1.6627565982404693
1.8758553274682308
2.0821114369501466
2.264907135874878
2.41544477028348
2.5288367546432062
2.606060606060606
2.6510263929618767
2.667644183773216
2.66177908113392
2.6392961876832843
2.603128054740958
2.555229716520039
2.4975562072336266
2.434017595307918
2.3655913978494625
2.2932551319648096
2.219941348973607
2.146627565982405
2.0733137829912023
2.0
1.9266862170087975
1.8621700879765395
1.8035190615835777
1.7390029325513197
1.672531769305963
1.606060606060606
1.5386119257087
1.4721407624633431
1.4086021505376345
1.3470185728250244
1.2903225806451613
1.2375366568914956
1.1915933528836755
1.1583577712609971
1.1348973607038124
1.115347018572825
1.1036168132942326
1.1055718475073313
1.1173020527859236
1.130987292277615
1.147605083088954
1.1652003910068427
1.1837732160312806
1.2023460410557183
1.2189638318670577
1.2316715542521994
1.2434017595307918
1.252199413489736
1.2570869990224829
1.2590420332355816
1.2570869990224829
1.252199413489736
1.2453567937438903
1.2365591397849462
1.2267839687194526
1.2150537634408602
1.2023460410557183
1.187683284457478
1.1749755620723363
1.1612903225806452
1.1407624633431086
1.1173020527859236
1.0987292277614855
1.0948191593352885
1.1192570869990224
1.1827956989247312
1.2903225806451613
1.4408602150537635
1.624633431085044
1.8269794721407624
2.03128054740958
2.19941348973607
2.334310850439883
2.458455522971652
2.558162267839687
2.6285434995112413
2.6695992179863146
2.6852394916911044
2.679374389051808
2.656891495601173
2.621700879765396
2.575757575757576
2.5219941348973607
2.4682306940371457
2.4134897360703813
2.3528836754643208
2.2883675464320627
2.222873900293255
2.156402737047898
2.089931573802541
2.0234604105571847
1.9579667644183771
1.8934506353861196
1.8299120234604105
1.7673509286412512
1.7067448680351909
1.6549364613880744
1.6080156402737047
1.5571847507331378
1.5053763440860215
1.455522971652004
1.409579667644184
1.3695014662756595
1.3362658846529814
1.310850439882698
1.2932551319648091
1.2834799608993157
1.2805474095796676
1.284457478005865
1.2932551319648091
1.3069403714565004
1.3225806451612905
1.33822091886608
1.35386119257087
1.367546432062561
1.3773216031280548
1.383186705767351
1.3851417399804498
1.383186705767351
1.3792766373411536
1.3763440860215057
1.3724340175953078
1.3655913978494625
1.356793743890518
1.3470185728250244
1.3362658846529814
1.324535679374389
1.310850439882698
1.2942326490713587
1.2746823069403714
1.252199413489736
1.2297165200391007
1.2150537634408602
1.2150537634408602
1.2355816226783969
1.289345063538612
1.3841642228739004
1.520039100684262
1.6911045943304008
1.8836754643206255
2.081133919843597
2.2668621700879767
2.4271749755620724
2.5532746823069403
2.643206256109482
2.695014662756598
2.717497556207233
2.7223851417399803
2.7096774193548385
2.6823069403714563
2.643206256109482
2.5943304007820136
2.5386119257087
2.47702834799609
2.4115347018572826
2.3440860215053765
2.275659824046921
2.206256109481916
2.1436950146627565
2.086021505376344
2.0234604105571847
1.9589442815249267
1.8944281524926687
1.8299120234604105
1.7653958944281525
1.7028347996089932
1.6412512218963833
1.5806451612903225
1.521994134897361
1.4652981427174976
1.418377321603128
1.3782991202346042
1.3372434017595307
1.2991202346041055
1.2668621700879763
1.2424242424242424
1.2258064516129032
1.217008797653959
1.2160312805474096
1.2218963831867058
1.2316715542521994
1.2424242424242424
1.2531769305962854
1.2639296187683284
1.2727272727272727
1.278592375366569
1.281524926686217
1.2825024437927663
1.2795698924731185
1.2746823069403714
1.2668621700879763
1.2570869990224829
1.2453567937438903
1.2316715542521994
1.217008797653959
1.2052785923753666
1.1945259042033236
1.1808406647116323
1.164222873900293
1.1456500488758554
1.1231671554252198
1.0987292277614855
1.0762463343108504
1.064516129032258
1.0742913000977516
1.1163245356793745
1.1974584555229717
1.3206256109481915
1.4545454545454546
1.5992179863147604
1.7732160312805474
1.9530791788856303
2.120234604105572
2.260019550342131
2.367546432062561
2.4408602150537635
2.482893450635386
2.498533724340176
2.49266862170088
2.469208211143695
2.436950146627566
2.396871945259042
2.347996089931574
2.29227761485826
2.231671554252199
2.1681329423264906
2.103616813294233
2.0391006842619745
1.9745845552297163
1.911045943304008
1.8484848484848484
1.7859237536656891
1.7243401759530792
1.6715542521994136
1.6226783968719452
1.5698924731182795
1.5151515151515151
1.4604105571847508
1.4066471163245358
1.3558162267839686
1.3069403714565004
1.260019550342131
1.2189638318670577
1.18475073313783
1.1583577712609971
1.142717497556207
1.1358748778103618
1.133919843597263
1.1378299120234605
1.147605083088954
1.1612903225806452
1.1779081133919844
1.195503421309873
1.2130987292277615
1.2287390029325511
1.241446725317693
1.2502443792766371
1.2561094819159335
1.260019550342131
1.262952101661779
1.2619745845552297
1.2580645161290325
1.252199413489736
1.2443792766373412
1.2355816226783969
1.224828934506354
1.2130987292277615
1.2003910068426198
1.1857282502443791
2.4486803519061584
2.420332355816227
2.375366568914956
2.314760508308896
2.24633431085044
2.174975562072336
2.102639296187683
2.03128054740958
1.9608993157380252
1.8905180840664717
1.822091886608016
1.7546432062561097
1.6871945259042034
1.6207233626588464
1.564027370478983
1.5131964809384164
1.458455522971652
1.404692082111437
1.3558162267839686
1.3128054740957966
1.278592375366569
1.252199413489736
1.2355816226783969
1.2287390029325511
1.2297165200391007
1.2365591397849462
1.2482893450635386
1.262952101661779
1.2795698924731185
1.2971652003910068
1.3147605083088951
1.3294232649071358
1.3401759530791788
1.3470185728250244
1.3509286412512218
1.3509286412512218
1.3479960899315735
1.343108504398827
1.3391984359726294
1.3343108504398826
1.3255131964809383
1.3147605083088951
1.3020527859237536
1.2873900293255132
1.270772238514174
1.2512218963831867
1.227761485826002
1.2023460410557183
1.1798631476050832
1.1691104594330402
1.1827956989247312
1.219941348973607
1.2903225806451613
1.412512218963832
1.581622678396872
1.7869012707722385
2.0117302052785924
2.2355816226783967
2.4408602150537635
2.6148582600195502
2.7497556207233624
2.8455522971652005
2.906158357771261
2.9335288367546437
2.935483870967742
2.921798631476051
2.89247311827957
2.850439882697948
2.7976539589442817
2.73802541544477
2.6715542521994133
2.60019550342131
2.527859237536657
2.453567937438905
2.380254154447703
2.3069403714565007
2.242424242424242
2.182795698924731
2.118279569892473
2.0518084066471163
1.9853372434017595
1.919843597262952
1.855327468230694
1.790811339198436
1.7272727272727273
1.664711632453568
1.6050830889540566
1.5493646138807429
1.5053763440860215
1.4701857282502444
1.436950146627566
1.409579667644184
1.3900293255131966
1.3792766373411536
1.3763440860215057
1.3822091886608017
1.392961876832845
1.4076246334310851
1.423264907135875
1.4389051808406648
1.452590420332356
1.4623655913978495
1.469208211143695
1.4731182795698925
1.474095796676442
1.4711632453567938
1.4652981427174976
1.456500488758553
1.4457478005865103
1.4330400782013686
1.418377321603128
1.4027370478983383
1.3870967741935485
1.3743890518084063
1.3616813294232648
1.3440860215053765
1.321603128054741
1.2942326490713587
1.2668621700879763
1.2473118279569892
1.249266862170088
1.284457478005865
1.364613880742913
1.4936461388074291
1.6686217008797657
1.87683284457478
2.070381231671554
2.249266862170088
2.436950146627566
2.6080156402737047
2.747800586510264
2.850439882697948
2.917888563049853
2.952101661779081
2.959921798631476
2.9442815249266863
2.911045943304008
2.86217008797654
2.8084066471163247
2.748778103616813
2.6803519061583576
2.6070381231671558
2.530791788856305
2.452590420332356
2.3743890518084068
2.297165200391007
2.218963831867057
2.1407624633431084
2.064516129032258
1.9902248289345064
1.9159335288367547
1.8514173998044965
1.7927663734115349
1.729227761485826
1.66177908113392
1.595307917888563
1.5298142717497556
1.4682306940371457
1.4115347018572826
1.3616813294232648
1.3206256109481915
1.289345063538612
1.2668621700879763
1.2541544477028348
1.2502443792766371
1.2512218963831867
1.2570869990224829
1.267839687194526
1.2795698924731185
1.29227761485826
1.303030303030303
1.3118279569892473
1.3176930596285434
1.3196480938416422
1.3186705767350928
1.313782991202346
1.3088954056695992
1.303030303030303
1.2932551319648091
1.2795698924731185
1.2649071358748778
1.2482893450635386
1.23069403714565
1.2121212121212122
1.1925708699902249
1.1700879765395895
1.1436950146627567
1.1143695014662756
1.0899315738025417
1.0703812316715542
1.0576735092864125
1.0654936461388074
1.10752688172043
1.1964809384164223
1.335288367546432
1.520039100684262
1.7350928641251222
1.962854349951124
2.182795698924731
2.3792766373411536
2.5405669599217986
2.652003910068426
2.7223851417399803
2.7702834799608995
2.791788856304985
2.789833822091887
2.768328445747801
2.729227761485826
2.677419354838709
2.6158357771261
2.5464320625610948
2.4731182795698925
2.396871945259042
2.326490713587488
2.259042033235582
2.1867057673509285
2.110459433040078
2.0332355816226784
1.956989247311828
1.881720430107527
1.8093841642228736
1.7390029325513197
1.6705767350928642
1.603128054740958
1.5356793743890518
1.4701857282502444
1.41544477028348
1.3685239491691104
1.3196480938416422
1.2756598240469208
1.2375366568914956
1.2072336265884651
1.1867057673509287
1.1759530791788857
1.173998044965787
1.1788856304985338
1.1906158357771262
1.2072336265884651
1.224828934506354
1.2424242424242424
1.260019550342131
1.2756598240469208
1.2883675464320623
1.2971652003910068
1.303030303030303
1.3049853372434017
1.3040078201368523
1.300097751710655
1.2942326490713587
1.2854349951124144
1.2746823069403714
1.2668621700879763
1.2590420332355816
1.2473118279569892
1.2326490713587488
1.206256109481916
1.1720430107526882
1.1397849462365592
1.10752688172043
1.0801564027370478
1.064516129032258
1.0742913000977516
1.1231671554252198
1.1974584555229717
1.3069403714565004
1.4731182795698925
1.6813294232649072
1.9149560117302051
2.1515151515151514
2.372434017595308
2.563049853372434
2.7155425219941347
2.8269794721407626
2.900293255131965
2.940371456500489
2.9501466275659824
2.9374389051808407
2.9100684261974585
2.8690127077223853
2.81622678396872
2.7536656891495603
2.684261974584555
2.608993157380254
2.529814271749756
2.447702834799609
2.364613880742913
2.2825024437927666
2.20039100684262
2.1280547409579667
2.06158357771261
1.989247311827957
1.9159335288367547
1.8406647116324533
1.7653958944281525
1.6911045943304008
1.6187683284457477
1.5493646138807429
1.4838709677419355
1.423264907135875
1.370478983382209
1.3313782991202343
1.3020527859237536
1.2776148582600195
1.260019550342131
1.2512218963831867
1.2512218963831867
1.2590420332355816
1.273704789833822
1.29227761485826
1.3118279569892473
1.3313782991202343
1.3479960899315735
1.3616813294232648
1.3714565004887584
1.3782991202346042
1.380254154447703
1.3792766373411536
1.375366568914956
1.3685239491691104
1.359726295210166
1.3479960899315735
1.335288367546432
1.321603128054741
1.3079178885630498
1.2932551319648091
1.281524926686217
1.2688172043010753
1.249266862170088
1.224828934506354
1.1994134897360704
1.1837732160312806
1.1886608015640274
1.227761485826002
1.3147605083088951
1.4545454545454546
1.643206256109482
1.870967741935484
2.118279569892473
2.335288367546432
2.5219941348973607
2.7067448680351904
2.8670576735092865
2.991202346041056
3.0772238514174
3.129032258064516
3.1495601173020527
3.144672531769306
3.118279569892473
3.075268817204301
3.0205278592375366
2.960899315738025
2.897360703812317
2.825024437927664
2.7468230694037143
2.665689149560117
2.582600195503421
2.498533724340176
2.4144672531769307
2.3313782991202348
2.249266862170088
2.1681329423264906
2.0879765395894427
2.0087976539589443
