ppg
2.854349951124145
2.835777126099707
2.806451612903226
2.766373411534702
2.7145650048875853
2.6529814271749754
2.5835777126099706
2.5112414467253177
2.4379276637341154
2.366568914956012
2.3010752688172045
2.247311827956989
2.201368523949169
2.1593352883675463
2.1221896383186705
2.088954056695992
2.0576735092864125
2.026392961876833
1.9951124144672527
1.9618768328445748
1.9257086999022484
1.8866080156402736
1.8465298142717497
1.8103616813294232
1.7761485826001957
1.7390029325513197
1.7008797653958945
1.664711632453568
1.629521016617791
1.5943304007820136
1.5610948191593352
1.5288367546432062
1.4975562072336266
1.4672531769305963
1.439882697947214
1.4134897360703813
1.392961876832845
1.3763440860215057
1.3587487781036167
1.3411534701857282
1.324535679374389
1.3088954056695992
1.2942326490713587
1.2795698924731185
1.2649071358748778
1.2502443792766371
1.2365591397849462
1.2218963831867058
1.2111436950146628
1.2023460410557183
1.1906158357771262
1.1788856304985338
1.166177908113392
1.1544477028347997
1.1436950146627567
1.1329423264907137
1.1241446725317692
1.115347018572825
1.1065493646138806
1.0977517106549364
1.088954056695992
1.0821114369501466
1.0772238514173995
1.0713587487781036
1.0654936461388074
1.0596285434995112
1.053763440860215
1.0478983382209188
1.043010752688172
1.0391006842619743
1.035190615835777
1.032258064516129
1.029325513196481
1.0283479960899315
1.029325513196481
1.029325513196481
1.0283479960899315
1.0273704789833822
1.0263929618768328
1.0263929618768328
1.0273704789833822
1.0283479960899315
1.029325513196481
1.0303030303030305
1.032258064516129
1.0361681329423265
1.04594330400782
1.0635386119257086
1.0928641251221896
1.141739980449658
1.2150537634408602
1.3157380254154447
1.4437927663734116
1.5943304007820136
1.761485826001955
1.935483870967742
2.10752688172043
2.2688172043010755
2.3958944281524928
2.496578690127077
2.593352883675464
2.678396871945259
2.7497556207233624
2.809384164222874
2.8582600195503423
2.898338220918866
2.932551319648094
2.959921798631476
2.9804496578690127
2.994134897360704
3.0
2.995112414467253
2.979472140762464
2.956989247311828
2.9237536656891496
2.878787878787879
2.822091886608016
2.755620723362659
2.681329423264907
2.6021505376344085
2.52297165200391
2.4457478005865103
2.375366568914956
2.315738025415445
2.264907135874878
2.217986314760508
2.175953079178885
2.1378299120234603
2.102639296187683
2.067448680351906
2.032258064516129
1.9960899315738023
1.9579667644183771
1.9188660801564028
1.8778103616813293
1.835777126099707
1.7976539589442817
1.7624633431085044
1.7243401759530792
1.6852394916911049
1.6471163245356797
1.608993157380254
1.5728250244379276
1.5386119257087
1.5063538611925709
1.47702834799609
1.4496578690127078
1.423264907135875
1.401759530791789
1.3841642228739004
1.3636363636363635
1.3421309872922775
1.321603128054741
1.3020527859237536
1.2834799608993157
1.2658846529814272
1.249266862170088
1.2336265884652982
1.2179863147605083
1.2023460410557183
1.1857282502443791
1.1730205278592376
1.1622678396871946
1.1485826001955035
1.133919843597263
1.1202346041055715
1.10752688172043
1.0957966764418376
1.0840664711632453
1.0733137829912025
1.0635386119257086
1.053763440860215
1.04594330400782
1.0420332355816226
1.040078201368524
1.035190615835777
1.0312805474095796
1.0283479960899315
1.0234604105571847
1.018572825024438
1.0146627565982405
1.010752688172043
1.0068426197458455
1.002932551319648
0.9990224828934506
0.9941348973607038
0.9921798631476052
0.9931573802541545
0.9912023460410556
0.9882697947214076
0.9863147605083088
0.9843597262952102
0.9843597262952102
0.9853372434017597
0.9872922776148584
0.989247311827957
0.9912023460410556
0.9931573802541545
0.9990224828934506
1.007820136852395
1.0224828934506354
1.0498533724340176
1.0948191593352885
1.163245356793744
1.2590420332355816
1.3812316715542523
1.5268817204301075
1.689149560117302
1.8602150537634408
2.0303030303030303
2.1700879765395893
2.2883675464320627
2.407624633431085
2.515151515151515
2.6080156402737047
2.6852394916911044
2.748778103616813
2.7996089931573804
2.8406647116324537
2.873900293255132
2.8993157380254155
2.918866080156403
2.932551319648094
2.935483870967742
2.929618768328446
2.918866080156403
2.8993157380254155
2.8690127077223853
2.825024437927664
2.76930596285435
2.702834799608993
2.6295210166177907
2.5513196480938416
2.4731182795698925
2.398826979472141
2.3362658846529816
2.2825024437927666
2.2297165200391005
2.1818181818181817
2.1388074291300097
2.1006842619745845
2.0635386119257086
2.027370478983382
1.991202346041056
1.9550342130987293
1.9178885630498532
1.8797653958944285
1.8406647116324533
1.8054740957966764
1.772238514173998
1.7350928641251222
1.6959921798631477
1.6559139784946235
1.6158357771260996
1.5777126099706744
1.541544477028348
1.5063538611925709
1.474095796676442
1.4437927663734116
1.4164222873900294
1.3949169110459434
1.3773216031280548
1.3587487781036167
1.3401759530791788
1.3225806451612905
1.3049853372434017
1.2883675464320623
1.2717497556207231
1.2551319648093842
1.238514173998045
1.2218963831867058
1.2043010752688172
1.187683284457478
1.1759530791788857
1.1671554252199414
1.1564027370478984
1.144672531769306
1.1329423264907137
1.121212121212121
1.110459433040078
1.099706744868035
1.088954056695992
1.0791788856304985
1.0703812316715542
1.0635386119257086
1.0606060606060606
1.0596285434995112
1.0557184750733135
1.050830889540567
1.0449657869012707
1.040078201368524
1.0342130987292275
1.0283479960899315
1.0224828934506354
1.0175953079178883
1.0146627565982405
1.013685239491691
1.0127077223851415
1.0146627565982405
1.0175953079178883
1.018572825024438
1.018572825024438
1.018572825024438
1.0195503421309873
1.0205278592375366
1.0224828934506354
1.024437927663734
1.0254154447702837
1.0273704789833822
1.0303030303030305
1.0361681329423265
1.0439882697947214
1.0527859237536656
1.0694037145650048
1.0987292277614855
1.147605083088954
1.2209188660801564
1.3196480938416422
1.4418377321603129
1.585532746823069
1.7438905180840665
1.90811339198436
2.070381231671554
2.204301075268817
2.315738025415445
2.426197458455523
2.5268817204301075
2.6129032258064515
2.684261974584555
2.740957966764418
2.7859237536656893
2.8211143695014664
2.84652981427175
2.8641251221896384
2.873900293255132
2.8729227761485827
2.863147605083089
2.8484848484848486
2.825024437927664
2.790811339198436
2.745845552297165
2.689149560117302
2.6236559139784945
2.5532746823069403
2.479960899315738
2.4086021505376345
2.343108504398827
2.283479960899316
2.2346041055718477
2.193548387096774
2.155425219941349
2.121212121212121
2.088954056695992
2.0576735092864125
2.026392961876833
1.992179863147605
1.956989247311828
1.9188660801564028
1.878787878787879
1.836754643206256
1.7986314760508308
1.7634408602150538
1.7253176930596286
1.6871945259042034
1.651026392961877
1.6158357771260996
1.581622678396872
1.5493646138807429
1.5190615835777126
1.490713587487781
1.4633431085043989
1.4379276637341154
1.4134897360703813
1.393939393939394
1.3773216031280548
1.3607038123167154
1.343108504398827
1.3255131964809383
1.3098729227761483
1.2942326490713587
1.278592375366569
1.262952101661779
1.2473118279569892
1.2326490713587488
1.2179863147605083
1.2072336265884651
1.198435972629521
1.187683284457478
1.1759530791788857
1.163245356793744
1.1505376344086022
1.13880742913001
1.1270772238514175
1.115347018572825
1.1055718475073313
1.096774193548387
1.088954056695992
1.0811339198435972
1.0772238514173995
1.075268817204301
1.0713587487781036
1.0664711632453567
1.06158357771261
1.056695992179863
1.050830889540567
1.04594330400782
1.0420332355816226
1.0371456500488758
1.032258064516129
1.0283479960899315
1.0263929618768328
1.0263929618768328
1.0254154447702837
1.0234604105571847
1.0224828934506354
1.0224828934506354
1.0234604105571847
1.0254154447702837
1.0283479960899315
1.0303030303030305
1.032258064516129
1.035190615835777
1.0410557184750733
1.0527859237536656
1.072336265884653
1.1085043988269794
1.1652003910068427
1.2482893450635386
1.3587487781036167
1.495601173020528
1.6529814271749756
1.8240469208211143
2.007820136852395
2.1915933528836757
2.355816226783969
2.4819159335288368
2.5806451612903225
2.674486803519061
2.7565982404692084
2.825024437927664
2.8807429130009776
2.9257086999022484
2.962854349951124
2.992179863147605
3.01564027370479
3.032258064516129
3.0410557184750733
3.0391006842619745
3.029325513196481
3.0146627565982405
2.9902248289345064
2.95405669599218
2.906158357771261
2.8475073313782997
2.7781036168132944
2.699902248289345
2.618768328445748
2.5386119257087
2.4613880742913
2.391006842619746
2.333333333333333
2.2844574780058653
2.2385141739980448
2.196480938416422
2.157380254154448
2.120234604105572
2.0840664711632453
2.046920821114369
2.0087976539589443
1.9696969696969695
1.9286412512218964
1.8866080156402736
1.8484848484848484
1.812316715542522
1.772238514173998
1.7302052785923754
1.6871945259042034
1.6451612903225807
1.6050830889540566
1.5679374389051808
1.533724340175953
1.5024437927663734
1.474095796676442
1.447702834799609
1.423264907135875
1.4027370478983383
1.3851417399804498
1.3665689149560116
1.3470185728250244
1.3284457478005864
1.3098729227761483
1.29227761485826
1.273704789833822
1.2561094819159335
1.2394916911045943
1.2228739002932552
1.2072336265884651
1.1964809384164223
1.187683284457478
1.1759530791788857
1.1622678396871946
1.1495601173020529
1.1358748778103618
1.1221896383186705
1.1085043988269794
1.0948191593352885
1.0811339198435972
1.0694037145650048
1.0586510263929618
1.0488758553274682
1.043010752688172
1.0391006842619743
1.0342130987292275
1.0303030303030305
1.0254154447702837
1.0205278592375366
1.0156402737047898
1.0117302052785924
1.007820136852395
1.0039100684261977
1.0
0.9960899315738024
0.9960899315738024
0.997067448680352
0.9960899315738024
0.9931573802541545
0.9902248289345064
0.9872922776148584
0.9853372434017597
0.9853372434017597
0.9863147605083088
0.9882697947214076
0.9902248289345064
0.9912023460410556
0.9931573802541545
0.9980449657869012
1.0087976539589445
1.0254154447702837
1.053763440860215
1.1006842619745845
1.1720430107526882
1.270772238514174
1.396871945259042
1.5454545454545454
1.710654936461388
1.8836754643206255
2.0547409579667644
2.196480938416422
2.3167155425219943
2.4359726295210167
2.544477028347996
2.636363636363636
2.710654936461388
2.771260997067449
2.8181818181818183
2.8563049853372435
2.886608015640274
2.9100684261974585
2.927663734115347
2.93841642228739
2.93841642228739
2.929618768328446
2.9149560117302054
2.889540566959922
2.8514173998044967
2.801564027370479
2.740957966764418
2.670576735092864
2.5943304007820136
2.517106549364614
2.4408602150537635
2.36950146627566
2.3098729227761488
2.259042033235582
2.212121212121212
2.16911045943304
2.1300097751710654
2.0928641251221896
2.056695992179863
2.0205278592375366
1.9843597262952104
1.9472140762463344
1.90811339198436
1.868035190615836
1.828934506353861
1.793743890518084
1.761485826001955
1.7243401759530792
1.686217008797654
1.6480938416422288
1.6109481915933528
1.5757575757575757
1.542521994134897
1.5112414467253177
1.479960899315738
1.4506353861192571
1.4242424242424243
1.4037145650048877
1.3851417399804498
1.3655913978494625
1.3470185728250244
1.3284457478005864
1.310850439882698
1.2942326490713587
1.2776148582600195
1.2619745845552297
1.2473118279569892
1.2326490713587488
1.2179863147605083
1.2043010752688172
1.1945259042033236
1.1867057673509287
1.176930596285435
1.1652003910068427
1.152492668621701
1.1397849462365592
1.1270772238514175
1.1143695014662756
1.1036168132942326
1.093841642228739
1.0869990224828934
1.0801564027370478
1.0772238514173995
1.0762463343108504
1.0733137829912025
1.0684261974584557
1.0635386119257086
1.0576735092864125
1.0518084066471165
1.04594330400782
1.040078201368524
1.035190615835777
1.0312805474095796
1.0273704789833822
1.0234604105571847
1.0234604105571847
1.0263929618768328
1.0283479960899315
1.029325513196481
1.0312805474095796
1.032258064516129
1.032258064516129
1.032258064516129
1.032258064516129
1.032258064516129
1.032258064516129
1.032258064516129
1.035190615835777
1.0410557184750733
1.050830889540567
1.0703812316715542
1.104594330400782
1.1612903225806452
1.2443792766373412
1.3558162267839686
1.4946236559139785
1.653958944281525
1.8269794721407624
2.003910068426197
2.175953079178885
2.315738025415445
2.4301075268817205
2.5425219941348973
2.6422287390029324
2.7262952101661777
2.793743890518084
2.8484848484848486
2.8914956011730206
2.9266862170087977
2.95405669599218
2.973607038123167
2.9872922776148583
2.988269794721408
2.981427174975562
2.9696969696969697
2.9501466275659824
2.919843597262952
2.877810361681329
2.825024437927664
2.760508308895406
2.6881720430107525
2.610948191593353
2.532746823069404
2.458455522971652
2.393939393939394
2.3382209188660803
2.2854349951124147
2.2385141739980448
2.1925708699902247
2.1495601173020527
2.113391984359726
2.080156402737048
2.046920821114369
2.0117302052785924
1.9736070381231672
1.9345063538611929
1.8934506353861196
1.855327468230694
1.8201368523949168
1.7820136852394917
1.7429130009775171
1.7038123167155426
1.6656891495601174
1.6285434995112416
1.5943304007820136
1.5620723362658846
1.530791788856305
1.501466275659824
1.4750733137829912
1.4545454545454546
1.4379276637341154
1.4203323558162269
1.401759530791789
1.383186705767351
1.3655913978494625
1.3479960899315735
1.332355816226784
1.3157380254154447
1.2991202346041055
1.2834799608993157
1.2688172043010753
1.2541544477028348
1.2434017595307918
1.2346041055718475
1.2228739002932552
1.2101661779081134
1.1974584555229717
1.18475073313783
1.1720430107526882
1.160312805474096
1.1495601173020529
1.13880742913001
1.1280547409579669
1.118279569892473
1.1124144672531768
1.1094819159335287
1.104594330400782
1.0987292277614855
1.0928641251221896
1.0879765395894427
1.0821114369501466
1.0772238514173995
1.0713587487781036
1.067448680351906
1.064516129032258
1.06158357771261
1.0596285434995112
1.0596285434995112
1.0606060606060606
1.0586510263929618
1.056695992179863
1.0547409579667644
1.0527859237536656
1.050830889540567
1.0498533724340176
1.0498533724340176
1.050830889540567
1.0527859237536656
1.053763440860215
1.0576735092864125
1.064516129032258
1.0733137829912025
1.088954056695992
1.118279569892473
1.1671554252199414
1.2404692082111437
1.3401759530791788
1.4652981427174976
1.6129032258064515
1.7761485826001957
1.946236559139785
2.114369501466276
2.2531769305962857
2.3685239491691106
2.4838709677419355
2.587487781036168
2.67644183773216
2.748778103616813
2.807429130009776
2.854349951124145
2.89247311827957
2.9227761485826003
2.948191593352884
2.967741935483871
2.975562072336266
2.975562072336266
2.9716520039100685
2.960899315738025
2.9393939393939394
2.905180840664712
2.859237536656892
2.801564027370479
2.7341153470185726
2.659824046920821
2.582600195503421
2.504398826979472
2.43108504398827
2.367546432062561
2.312805474095797
2.26197458455523
2.2170087976539588
2.175953079178885
2.1378299120234603
2.101661779081134
2.0664711632453567
2.03128054740958
1.9951124144672527
1.956989247311828
1.9178885630498532
1.8826979472140764
1.8494623655913975
1.812316715542522
1.7732160312805474
1.732160312805474
1.6911045943304008
1.6520039100684265
1.6138807429130009
1.5777126099706744
1.543499511241447
1.512218963831867
1.4838709677419355
1.457478005865103
1.435972629521017
1.418377321603128
1.3988269794721409
1.3792766373411536
1.359726295210166
1.3401759530791788
1.3225806451612905
1.305962854349951
1.289345063538612
1.2746823069403714
1.2590420332355816
1.2434017595307918
1.23069403714565
1.2189638318670577
1.2052785923753666
1.1906158357771262
1.176930596285435
1.164222873900293
1.152492668621701
1.1407624633431086
1.1300097751710656
1.1202346041055715
1.110459433040078
1.1026392961876832
1.0948191593352885
1.0909090909090908
1.088954056695992
1.0850439882697946
1.0801564027370478
1.075268817204301
1.0694037145650048
1.0635386119257086
1.0576735092864125
1.0518084066471165
1.0469208211143697
1.0420332355816226
1.0371456500488758
1.0361681329423265
1.0371456500488758
1.0361681329423265
1.035190615835777
1.035190615835777
1.035190615835777
1.035190615835777
1.035190615835777
1.0371456500488758
1.0391006842619743
1.040078201368524
1.040078201368524
1.040078201368524
1.0420332355816226
1.04594330400782
1.0488758553274682
1.0547409579667644
1.0694037145650048
1.0987292277614855
1.1466275659824048
1.2189638318670577
1.316715542521994
1.439882697947214
1.5835777126099706
1.7419354838709675
1.884652981427175
2.0146627565982405
2.1544477028347995
2.289345063538612
2.4115347018572826
2.5161290322580645
2.6021505376344085
2.6715542521994133
2.7262952101661777
2.76930596285435
2.803519061583578
2.8299120234604107
2.843597262952102
2.8484848484848486
2.852394916911046
2.850439882697948
2.8396871945259043
2.819159335288368
2.787878787878788
2.744868035190616
2.6901270772238512
2.6265884652981426
2.5562072336265884
2.482893450635386
2.4115347018572826
2.3499511241446727
2.2961876832844577
2.24633431085044
2.201368523949169
2.163245356793744
2.1300097751710654
2.0987292277614857
2.0684261974584555
2.037145650048876
2.004887585532747
1.9696969696969695
1.932551319648094
1.8983382209188664
1.865102639296188
1.8269794721407624
1.7869012707722385
1.7468230694037146
1.70772238514174
1.6695992179863148
1.632453567937439
1.5962854349951123
1.563049853372434
1.5317693059628543
1.5024437927663734
1.4760508308895406
1.455522971652004
1.4389051808406648
1.4203323558162269
1.401759530791789
1.383186705767351
1.3655913978494625
1.348973607038123
1.3343108504398826
1.3196480938416422
1.3049853372434017
1.2834799608993157
1.2590420332355816
1.2434017595307918
1.2316715542521994
1.2179863147605083
1.2043010752688172
1.1915933528836755
1.1788856304985338
1.1671554252199414
1.155425219941349
1.1436950146627567
1.1329423264907137
1.1231671554252198
1.1133919843597262
1.1055718475073313
1.1006842619745845
1.0977517106549364
1.0918866080156402
1.0850439882697946
1.0791788856304985
1.0733137829912025
1.067448680351906
1.06158357771261
1.056695992179863
1.053763440860215
1.0498533724340176
1.0469208211143697
1.04594330400782
1.04594330400782
1.0439882697947214
1.0410557184750733
1.0381231671554252
1.035190615835777
1.0332355816226784
1.032258064516129
1.0332355816226784
1.0342130987292275
1.0361681329423265
1.0381231671554252
1.040078201368524
1.0439882697947214
1.050830889540567
1.0586510263929618
1.0733137829912025
1.1006842619745845
1.1466275659824048
1.217008797653959
1.3147605083088951
1.4389051808406648
1.5865102639296187
1.7517106549364614
1.9257086999022484
2.0762463343108504
2.209188660801564
2.347996089931574
2.4780058651026398
2.592375366568915
2.6881720430107525
2.7673509286412514
2.831867057673509
2.8836754643206257
2.9257086999022484
2.9589442815249267
2.98435972629521
3.004887585532747
3.0127077223851417
3.010752688172043
3.006842619745845
2.9960899315738025
2.975562072336266
2.9442815249266863
2.902248289345064
2.8484848484848486
2.7839687194525906
2.7116324535679373
2.634408602150537
2.5562072336265884
2.486803519061584
2.4242424242424243
2.361681329423265
2.304007820136853
2.2531769305962857
2.2082111436950145
2.1681329423264906
2.1300097751710654
2.0928641251221896
2.0557184750733137
2.0175953079178885
1.978494623655914
1.9374389051808407
1.900293255131965
1.865102639296188
1.8269794721407624
1.7859237536656891
1.7448680351906158
1.7038123167155426
1.664711632453568
1.6265884652981428
1.5894428152492668
1.5542521994134897
1.521016617790811
1.490713587487781
1.466275659824047
1.4457478005865103
1.4242424242424243
1.4007820136852396
1.3782991202346042
1.3558162267839686
1.3343108504398826
1.3147605083088951
1.2971652003910068
1.2795698924731185
1.262952101661779
1.2473118279569892
1.2316715542521994
1.2189638318670577
1.2072336265884651
1.1925708699902249
1.1779081133919844
1.163245356793744
1.1495601173020529
1.1358748778103618
1.1231671554252198
1.110459433040078
1.0977517106549364
1.0869990224828934
1.0772238514173995
1.0713587487781036
1.067448680351906
1.0606060606060606
1.0527859237536656
1.04594330400782
1.0391006842619743
1.032258064516129
1.0254154447702837
1.0205278592375366
1.0156402737047898
1.0117302052785924
1.007820136852395
1.0039100684261977
1.002932551319648
1.0039100684261977
1.002932551319648
1.0009775171065494
0.9980449657869012
0.9951124144672532
0.9931573802541545
0.9921798631476052
0.9921798631476052
0.9941348973607038
0.997067448680352
1.0
1.0048875855327468
1.0097751710654936
1.0127077223851415
1.018572825024438
1.032258064516129
1.0596285434995112
1.1065493646138806
1.1779081133919844
1.2776148582600195
1.404692082111437
1.5542521994134897
1.7204301075268815
1.8944281524926687
2.0449657869012707
2.177908113391984
2.315738025415445
2.4457478005865103
2.560117302052786
2.656891495601173
2.736070381231672
2.7996089931573804
2.8514173998044967
2.89247311827957
2.924731182795699
2.951124144672532
2.964809384164223
2.9696969696969697
2.9745845552297165
2.973607038123167
2.964809384164223
2.9442815249266863
2.9120234604105573
2.8670576735092865
2.8103616813294234
2.744868035190616
2.670576735092864
2.593352883675464
2.52297165200391
2.4574780058651027
2.3900293255131966
2.326490713587488
2.2688172043010755
2.217986314760508
2.1730205278592374
2.132942326490713
2.0957966764418376
2.059628543499511
2.022482893450636
1.9853372434017595
1.9472140762463344
1.1397849462365592
1.130987292277615
1.1221896383186705
1.1173020527859236
1.1143695014662756
1.1094819159335287
1.1026392961876832
1.0957966764418376
1.088954056695992
1.0821114369501466
1.0762463343108504
1.0703812316715542
1.0654936461388074
1.0606060606060606
1.0557184750733135
1.050830889540567
1.0488758553274682
1.0488758553274682
1.0478983382209188
1.04594330400782
1.0449657869012707
1.0449657869012707
1.04594330400782
1.0469208211143697
1.0478983382209188
1.0498533724340176
1.0518084066471165
1.0557184750733135
1.064516129032258
1.0811339198435972
1.1114369501466277
1.160312805474096
1.2316715542521994
1.327468230694037
1.4467253176930597
1.585532746823069
1.737047898338221
1.8934506353861196
2.046920821114369
2.190615835777126
2.318670576735093
2.4164222873900294
2.490713587487781
2.560117302052786
2.619745845552297
2.667644183773216
2.7067448680351904
2.73802541544477
2.760508308895406
2.776148582600196
2.7839687194525906
2.78494623655914
2.777126099706745
2.7595307917888565
2.7331378299120237
2.6959921798631474
2.6480938416422286
2.591397849462365
2.525904203323558
2.455522971652004
2.3841642228739004
2.315738025415445
2.2521994134897363
2.1955034213098727
2.146627565982405
2.1065493646138806
2.0733137829912023
2.042033235581622
2.0117302052785924
1.981427174975562
1.951124144672532
1.9188660801564028
1.884652981427175
1.8484848484848484
1.8103616813294232
1.7712609970674489
1.732160312805474
1.6930596285434996
1.6588465298142718
1.6285434995112416
1.595307917888563
1.5610948191593352
1.5288367546432062
1.4975562072336266
1.4682306940371457
1.4408602150537635
1.41544477028348
1.391006842619746
1.367546432062561
1.346041055718475
1.3294232649071358
1.3157380254154447
1.3010752688172045
1.2854349951124144
1.270772238514174
1.2570869990224829
1.2424242424242424
1.2287390029325511
1.2140762463343109
1.2003910068426198
1.187683284457478
1.1749755620723363
1.1622678396871946
1.1534701857282503
