ppg
2.4789833822091887
2.58455522971652
2.6881720430107525
2.782991202346041
2.866080156402737
2.936461388074292
2.995112414467253
3.043010752688172
3.080156402737048
3.1065493646138806
3.12316715542522
3.129032258064516
3.124144672531769
3.1065493646138806
3.078201368523949
3.0391006842619745
2.9902248289345064
2.9315738025415445
2.866080156402737
2.7947214076246336
2.720430107526881
2.6471163245356792
2.5777126099706744
2.5131964809384164
2.455522971652004
2.407624633431085
2.366568914956012
2.3284457478005867
2.2932551319648096
2.260997067448681
2.23069403714565
2.201368523949169
2.172043010752688
2.1417399804496577
2.110459433040078
2.078201368523949
2.0449657869012707
2.010752688172043
1.9804496578690127
1.9521016617790807
1.920821114369501
1.8875855327468232
1.855327468230694
1.8240469208211143
1.793743890518084
1.7644183773216031
1.7380254154447703
1.7135874877810362
1.6901270772238517
1.6686217008797657
1.6520039100684265
1.6373411534701858
1.6217008797653958
1.607038123167155
1.5923753665689149
1.5777126099706744
1.563049853372434
1.5483870967741935
1.5347018572825024
1.521016617790811
1.5073313782991202
1.4946236559139785
1.4819159335288368
1.4721407624633431
1.4643206256109482
1.4535679374389052
1.4428152492668622
1.43108504398827
1.4203323558162269
1.4086021505376345
1.3978494623655917
1.3870967741935485
1.3763440860215057
1.3655913978494625
1.3558162267839686
1.348973607038123
1.343108504398827
1.3362658846529814
1.3294232649071358
1.3225806451612905
1.3157380254154447
1.3088954056695992
1.3020527859237536
1.2961876832844574
1.2903225806451613
1.2834799608993157
1.2776148582600195
1.2727272727272727
1.270772238514174
1.2697947214076246
1.267839687194526
1.2639296187683284
1.260019550342131
1.2551319648093842
1.2512218963831867
1.2482893450635386
1.2482893450635386
1.2561094819159335
1.273704789833822
1.305962854349951
1.3470185728250244
1.401759530791789
1.479960899315738
1.5796676441837731
1.6959921798631477
1.825024437927664
1.9608993157380252
2.0977517106549364
2.2297165200391005
2.3519061583577714
2.462365591397849
2.5591397849462365
2.6422287390029324
2.702834799608993
2.7468230694037143
2.788856304985337
2.825024437927664
2.852394916911046
2.8699902248289346
2.877810361681329
2.874877810361681
2.8611925708699903
2.8367546432062563
2.80058651026393
2.7536656891495603
2.702834799608993
2.6480938416422286
2.5835777126099706
2.515151515151515
2.444770283479961
2.377321603128055
2.313782991202346
2.2561094819159337
2.2052785923753664
2.161290322580645
2.1221896383186705
2.0879765395894427
2.056695992179863
2.0303030303030303
2.005865102639296
1.9794721407624636
1.951124144672532
1.921798631476051
1.8905180840664717
1.858260019550342
1.826001955034213
1.7927663734115349
1.7595307917888563
1.7272727272727273
1.694037145650049
1.6656891495601174
1.6412512218963833
1.6138807429130009
1.585532746823069
1.5581622678396871
1.5317693059628543
1.5073313782991202
1.4838709677419355
1.4633431085043989
1.444770283479961
1.4271749755620724
1.4115347018572826
1.4007820136852396
1.3919843597262953
1.3822091886608017
1.370478983382209
1.3587487781036167
1.3479960899315735
1.3372434017595307
1.3264907135874875
1.3157380254154447
1.305962854349951
1.2961876832844574
1.2873900293255132
1.2795698924731185
1.2746823069403714
1.2717497556207231
1.2658846529814272
1.260019550342131
1.2541544477028348
1.2482893450635386
1.2424242424242424
1.2365591397849462
1.2316715542521994
1.2267839687194526
1.2228739002932552
1.2189638318670577
1.2179863147605083
1.2189638318670577
1.2179863147605083
1.2160312805474096
1.2140762463343109
1.2121212121212122
1.2101661779081134
1.2082111436950147
1.206256109481916
1.2052785923753666
1.2052785923753666
1.2052785923753666
1.2072336265884651
1.2111436950146628
1.217008797653959
1.2209188660801564
1.224828934506354
1.23069403714565
1.2394916911045943
1.2551319648093842
1.2805474095796676
1.3206256109481915
1.3782991202346042
1.456500488758553
1.5562072336265884
1.6559139784946235
1.761485826001955
1.8905180840664717
2.03128054740958
2.176930596285435
2.318670576735093
2.452590420332356
2.573802541544477
2.6803519061583576
2.7722385141739982
2.850439882697948
2.9149560117302054
2.9687194525904204
3.003910068426197
3.026392961876833
3.04594330400782
3.058651026392962
3.0625610948191597
3.056695992179863
3.040078201368524
3.010752688172043
2.9687194525904204
2.916911045943304
2.855327468230694
2.787878787878788
2.7233626588465296
2.6608015640273703
2.595307917888563
2.5317693059628543
2.472140762463343
2.418377321603128
2.3704789833822093
2.3284457478005867
2.291300097751711
2.257086999022483
2.225806451612903
2.1955034213098727
2.166177908113392
2.139784946236559
2.114369501466276
2.0869990224828934
2.0127077223851417
1.9149560117302051
1.8484848484848484
1.7976539589442817
1.7546432062561097
1.715542521994135
1.6793743890518085
1.64613880742913
1.6148582600195502
1.5884652981427174
1.565982404692082
1.541544477028348
1.517106549364614
1.4936461388074291
1.4721407624633431
1.452590420332356
1.434017595307918
1.4173998044965788
1.401759530791789
1.388074291300098
1.375366568914956
1.3636363636363635
1.35386119257087
1.346041055718475
1.3362658846529814
1.3255131964809383
1.3147605083088951
1.3040078201368523
1.2942326490713587
1.2834799608993157
1.273704789833822
1.2639296187683284
1.2541544477028348
1.2453567937438903
1.238514173998045
1.2336265884652982
1.2267839687194526
1.219941348973607
1.2130987292277615
1.2052785923753666
1.1964809384164223
1.1886608015640274
1.1798631476050832
1.1710654936461389
1.1612903225806452
1.1515151515151516
1.142717497556207
1.1378299120234605
1.1358748778103618
1.130987292277615
1.1251221896383188
1.1192570869990224
1.1133919843597262
1.10752688172043
1.1016617790811338
1.096774193548387
1.0928641251221896
1.088954056695992
1.086021505376344
1.0850439882697946
1.0869990224828934
1.0918866080156402
1.1016617790811338
1.1231671554252198
1.1593352883675463
1.2150537634408602
1.2913000977517106
1.3890518084066472
1.5053763440860215
1.6363636363636365
1.7771260997067448
1.919843597262952
2.0410557184750733
2.147605083088954
2.259042033235582
2.363636363636364
2.4574780058651027
2.5386119257087
2.6070381231671558
2.662756598240469
2.7067448680351904
2.7390029325513194
2.7614858260019552
2.774193548387097
2.773216031280548
2.7624633431085046
2.744868035190616
2.716520039100684
2.677419354838709
2.627565982404692
2.567937438905181
2.4995112414467253
2.4252199413489737
2.3499511241446727
2.274682306940372
2.204301075268817
2.139784946236559
2.086021505376344
2.040078201368524
1.9960899315738023
1.9550342130987293
1.9178885630498532
1.8836754643206255
1.8514173998044965
1.8201368523949168
1.7898338220918866
1.7595307917888563
1.7282502443792769
1.6959921798631477
1.667644183773216
1.640273704789834
1.608993157380254
1.5747800586510263
1.5395894428152492
1.5053763440860215
1.4711632453567938
1.4379276637341154
1.4066471163245358
1.3773216031280548
1.348973607038123
1.3225806451612905
1.3020527859237536
1.2854349951124144
1.267839687194526
1.2502443792766371
1.2336265884652982
1.2179863147605083
1.203323558162268
1.1896383186705768
1.1759530791788857
1.163245356793744
1.1505376344086022
1.13880742913001
1.1270772238514175
1.1192570869990224
1.1133919843597262
1.1055718475073313
1.096774193548387
1.0869990224828934
1.0772238514173995
1.0684261974584557
1.0606060606060606
1.0527859237536656
1.04594330400782
1.0391006842619743
1.0332355816226784
1.0312805474095796
1.0303030303030305
1.0263929618768328
1.0224828934506354
1.0175953079178883
1.0127077223851415
1.007820136852395
1.002932551319648
0.9980449657869012
0.9931573802541545
0.989247311827957
0.9872922776148584
0.9863147605083088
0.989247311827957
0.9931573802541545
0.9960899315738024
0.9990224828934506
1.0019550342130987
1.0048875855327468
1.0097751710654936
1.0205278592375366
1.040078201368524
1.0733137829912025
1.1251221896383188
1.1974584555229717
1.2766373411534702
1.3665689149560116
1.482893450635386
1.6177908113391983
1.7644183773216031
1.913978494623656
2.059628543499511
2.196480938416422
2.321603128054741
2.432062561094819
2.527859237536657
2.6080156402737047
2.674486803519061
2.720430107526881
2.7517106549364616
2.7810361681329425
2.8054740957966766
2.822091886608016
2.8299120234604107
2.8269794721407626
2.8132942326490715
2.7869012707722387
2.748778103616813
2.6989247311827955
2.6392961876832843
2.578690127077224
2.517106549364614
2.4486803519061584
2.378299120234604
2.3098729227761488
2.24633431085044
2.188660801564027
2.136852394916911
2.0928641251221896
2.0547409579667644
2.021505376344086
1.992179863147605
1.9657869012707725
1.943304007820137
1.9227761485826005
1.902248289345064
1.881720430107527
1.8621700879765395
1.8455522971652003
1.83088954056696
1.818181818181818
1.8084066471163245
1.8005865102639296
1.7947214076246334
1.7917888563049853
1.7898338220918866
1.7878787878787878
1.7869012707722385
1.7878787878787878
1.7898338220918866
1.7917888563049853
1.793743890518084
1.7956989247311828
1.796676441837732
1.796676441837732
1.796676441837732
1.7947214076246334
1.790811339198436
1.7859237536656891
1.7790811339198436
1.7702834799608993
1.7595307917888563
1.7458455522971652
1.729227761485826
1.7086999022482894
1.6852394916911049
1.656891495601173
1.6236559139784943
1.5865102639296187
1.5454545454545454
1.5083088954056696
1.4721407624633431
1.43108504398827
1.388074291300098
1.346041055718475
1.305962854349951
1.2688172043010753
1.2346041055718475
1.2052785923753666
1.1808406647116323
1.1691104594330402
1.1681329423264908
1.1691104594330402
1.1749755620723363
1.18475073313783
1.1974584555229717
1.2140762463343109
1.2326490713587488
1.2512218963831867
1.2688172043010753
1.2834799608993157
1.2932551319648091
1.2981427174975562
1.2981427174975562
1.2913000977517106
1.2834799608993157
1.273704789833822
1.2570869990224829
1.2355816226783969
1.2121212121212122
1.1857282502443791
1.1593352883675463
1.1329423264907137
1.110459433040078
1.0918866080156402
1.083088954056696
1.088954056695992
1.1133919843597262
1.1505376344086022
1.2052785923753666
1.2864125122189638
1.3919843597262953
1.5180840664711632
1.6578690127077225
1.8064516129032255
1.9560117302052784
2.099706744868035
2.231671554252199
2.3499511241446727
2.452590420332356
2.527859237536657
2.5835777126099706
2.636363636363636
2.681329423264907
2.716520039100684
2.7419354838709675
2.755620723362659
2.758553274682307
2.748778103616813
2.727272727272727
2.6930596285435
2.6471163245356792
2.589442815249267
2.529814271749756
2.4672531769305963
2.3949169110459434
2.3196480938416424
2.24633431085044
2.177908113391984
2.117302052785924
2.064516129032258
2.0195503421309877
1.9824046920821117
1.951124144672532
1.9237536656891496
1.9012707722385145
1.8797653958944285
1.8563049853372435
1.83088954056696
1.8035190615835777
1.7732160312805474
1.739980449657869
1.7028347996089932
1.6627565982404693
1.619745845552297
1.5747800586510263
1.5288367546432062
1.4838709677419355
1.4467253176930597
1.4134897360703813
1.3773216031280548
1.3401759530791788
1.3040078201368523
1.2697947214076246
1.2375366568914956
1.2082111436950147
1.181818181818182
1.1573802541544478
1.1368523949169111
1.118279569892473
1.1055718475073313
1.096774193548387
1.0879765395894427
1.0791788856304985
1.0713587487781036
1.064516129032258
1.0596285434995112
1.0547409579667644
1.050830889540567
1.0469208211143697
1.0420332355816226
1.0371456500488758
1.035190615835777
1.035190615835777
1.032258064516129
1.0283479960899315
1.0234604105571847
1.018572825024438
1.0127077223851415
1.0058651026392962
0.9990224828934506
0.9921798631476052
0.9853372434017597
0.978494623655914
0.9706744868035192
0.967741935483871
0.9657869012707724
0.9608993157380256
0.9550342130987292
0.9491691104594332
0.9433040078201368
0.9374389051808406
0.9325513196480938
0.927663734115347
0.9237536656891496
0.9208211143695014
0.919843597262952
0.9217986314760508
0.9257086999022482
0.9286412512218964
0.9315738025415444
0.9345063538611924
0.93841642228739
0.9452590420332356
0.9560117302052786
0.9726295210166178
1.0
1.043010752688172
1.104594330400782
1.1886608015640274
1.278592375366569
1.3812316715542523
1.5112414467253177
1.66177908113392
1.823069403714565
1.9872922776148585
2.147605083088954
2.2981427174975564
2.4359726295210167
2.558162267839687
2.6637341153470184
2.7536656891495603
2.8181818181818183
2.866080156402737
2.9120234604105573
2.952101661779081
2.983382209188661
3.004887585532747
3.01564027370479
3.01564027370479
3.003910068426197
2.979472140762464
2.941348973607038
2.8914956011730206
2.8299120234604107
2.7653958944281527
2.697947214076246
2.621700879765396
2.541544477028348
2.4613880742913
2.3851417399804498
2.314760508308896
2.2521994134897363
2.198435972629521
2.1524926686217007
2.112414467253177
2.0762463343108504
2.04594330400782
2.0175953079178885
1.988269794721408
1.956989247311828
1.924731182795699
1.89247311827957
1.858260019550342
1.823069403714565
1.7869012707722385
1.750733137829912
1.7145650048875856
1.678396871945259
1.643206256109482
1.6129032258064515
1.5865102639296187
1.5571847507331378
1.5278592375366569
1.500488758553275
1.474095796676442
1.4496578690127078
1.4271749755620724
1.4066471163245358
1.388074291300098
1.3714565004887584
1.356793743890518
1.346041055718475
1.33822091886608
1.3284457478005864
1.3176930596285434
1.3079178885630498
1.2981427174975562
1.2883675464320623
1.278592375366569
1.2688172043010753
1.2590420332355816
1.249266862170088
1.2404692082111437
1.2316715542521994
1.2267839687194526
1.2228739002932552
1.2179863147605083
1.2130987292277615
1.2082111436950147
1.203323558162268
1.1974584555229717
1.1915933528836755
1.1867057673509287
1.1808406647116323
1.1759530791788857
1.1730205278592376
1.1730205278592376
1.1749755620723363
1.1749755620723363
1.173998044965787
1.173998044965787
1.173998044965787
1.173998044965787
1.173998044965787
1.173998044965787
1.173998044965787
1.173998044965787
1.173998044965787
1.173998044965787
1.1759530791788857
1.1788856304985338
1.181818181818182
1.18475073313783
1.1915933528836755
1.203323558162268
1.2228739002932552
1.2551319648093842
1.3049853372434017
1.375366568914956
1.4682306940371457
1.581622678396872
1.6930596285434996
1.8084066471163245
1.9472140762463344
2.096774193548387
2.247311827956989
2.389051808406647
2.517106549364614
2.6295210166177907
2.7262952101661777
2.806451612903226
2.8719452590420333
2.9237536656891496
2.963831867057673
2.986314760508309
2.9960899315738025
3.0009775171065494
2.99902248289345
2.986314760508309
2.961876832844575
2.9257086999022484
2.87683284457478
2.81622678396872
2.745845552297165
2.668621700879765
2.587487781036168
2.512218963831867
2.441837732160313
2.3704789833822093
2.303030303030303
2.241446725317693
2.1867057673509285
2.139784946236559
2.0977517106549364
2.060606060606061
2.0254154447702835
1.991202346041056
1.9579667644183771
1.9237536656891496
1.8934506353861196
1.8641251221896384
1.83088954056696
1.7956989247311828
1.758553274682307
1.7204301075268815
1.6813294232649072
1.643206256109482
1.6050830889540566
1.56891495601173
1.5347018572825024
1.501466275659824
1.474095796676442
1.4506353861192571
1.426197458455523
1.401759530791789
1.3782991202346042
1.3558162267839686
1.335288367546432
1.316715542521994
1.2991202346041055
1.2825024437927663
1.2668621700879763
1.2512218963831867
1.2365591397849462
1.2267839687194526
1.219941348973607
1.2101661779081134
1.2003910068426198
1.1906158357771262
1.1808406647116323
1.1710654936461389
1.1612903225806452
1.1515151515151516
1.142717497556207
1.133919843597263
1.126099706744868
1.1231671554252198
1.121212121212121
1.1163245356793745
1.1114369501466277
1.1065493646138806
1.099706744868035
1.093841642228739
1.0869990224828934
1.0801564027370478
1.0742913000977516
1.0684261974584557
1.0635386119257086
1.0625610948191593
1.0635386119257086
1.0625610948191593
1.0606060606060606
1.0576735092864125
1.0557184750733135
1.053763440860215
1.0527859237536656
1.0518084066471165
1.0518084066471165
1.0527859237536656
1.0547409579667644
1.0586510263929618
1.0664711632453567
1.0801564027370478
1.1026392961876832
1.13880742913001
1.1925708699902249
1.267839687194526
1.3665689149560116
1.487781036168133
1.6256109481915937
1.775171065493646
1.9296187683284456
2.083088954056696
2.2111436950146626
2.320625610948192
2.432062561094819
2.535679374389052
2.6285434995112413
2.70772238514174
2.774193548387097
2.827956989247312
2.870967741935484
2.902248289345064
2.9237536656891496
2.9345063538611926
2.9335288367546437
2.920821114369501
2.897360703812317
2.865102639296188
2.822091886608016
2.7673509286412514
2.701857282502444
2.6295210166177907
2.5532746823069403
2.47702834799609
2.4027370478983383
2.333333333333333
2.270772238514174
2.218963831867057
2.174975562072336
2.133919843597263
2.0977517106549364
2.064516129032258
2.0332355816226784
2.002932551319648
1.9726295210166176
1.9413489736070384
1.9100684261974583
1.87683284457478
1.8416422287390029
1.8064516129032255
1.775171065493646
1.7458455522971652
1.7126099706744868
1.678396871945259
1.643206256109482
1.608993157380254
1.5747800586510263
1.542521994134897
1.5112414467253177
1.4819159335288368
1.4545454545454546
1.4301075268817205
1.4115347018572826
1.396871945259042
1.380254154447703
1.3636363636363635
1.3479960899315735
1.332355816226784
1.3186705767350928
1.3049853372434017
1.29227761485826
1.2795698924731185
1.267839687194526
1.2570869990224829
1.24633431085044
1.2404692082111437
1.2355816226783969
1.2297165200391007
1.2218963831867058
1.2140762463343109
1.2072336265884651
1.1994134897360704
1.1925708699902249
1.1857282502443791
1.1798631476050832
1.173998044965787
1.1681329423264908
1.1652003910068427
1.164222873900293
1.1622678396871946
1.1593352883675463
1.155425219941349
1.1515151515151516
1.1485826001955035
1.1456500488758554
1.144672531769306
1.144672531769306
1.1456500488758554
1.1466275659824048
1.1485826001955035
1.1515151515151516
1.155425219941349
1.1573802541544478
1.1593352883675463
1.160312805474096
1.1622678396871946
1.164222873900293
1.1671554252199414
1.1710654936461389
1.1788856304985338
1.1935483870967742
1.219941348973607
1.2541544477028348
1.3010752688172045
1.370478983382209
1.4633431085043989
1.5786901270772238
1.7135874877810362
1.8621700879765395
2.0195503421309877
2.177908113391984
2.3313782991202348
2.474095796676442
2.603128054740958
2.716520039100684
2.80058651026393
2.8641251221896384
2.9266862170087977
2.9824046920821115
3.0303030303030303
3.067448680351906
3.0957966764418376
3.113391984359726
3.120234604105572
3.115347018572825
3.0987292277614857
3.070381231671554
3.032258064516129
2.98435972629521
2.9266862170087977
2.860215053763441
2.7869012707722387
2.7116324535679373
2.636363636363636
2.5640273704789838
2.4975562072336266
2.4379276637341154
2.3851417399804498
2.3382209188660803
2.2961876832844577
2.260019550342131
2.2277614858260018
2.196480938416422
2.1652003910068425
2.131964809384164
2.0977517106549364
2.0625610948191597
2.026392961876833
1.9902248289345064
1.9530791788856303
1.8944281524926687
1.8269794721407624
1.7781036168132942
1.739980449657869
1.7028347996089932
1.6666666666666667
1.632453567937439
1.5992179863147604
1.5679374389051808
1.5386119257087
1.5112414467253177
1.4858260019550342
1.4623655913978495
1.439882697947214
1.418377321603128
1.401759530791789
1.3870967741935485
1.370478983382209
1.35386119257087
1.3372434017595307
1.321603128054741
1.305962854349951
1.2903225806451613
1.2756598240469208
1.2609970674486803
1.2473118279569892
1.2336265884652982
1.2238514173998043
1.2160312805474096
1.206256109481916
1.195503421309873
1.18475073313783
1.173998044965787
1.163245356793744
1.152492668621701
1.141739980449658
1.1319648093841643
1.1221896383186705
1.1133919843597262
1.1085043988269794
1.1055718475073313
1.1016617790811338
1.096774193548387
1.0918866080156402
1.0869990224828934
1.083088954056696
1.0791788856304985
1.075268817204301
1.0713587487781036
1.0684261974584557
1.0654936461388074
1.0635386119257086
1.0635386119257086
1.0654936461388074
1.0664711632453567
1.0664711632453567
1.0664711632453567
1.067448680351906
1.0703812316715542
1.0791788856304985
1.096774193548387
1.1280547409579669
1.176930596285435
1.2453567937438903
1.3206256109481915
1.4076246334310851
1.520039100684262
1.651026392961877
1.7917888563049853
1.9364613880742916
2.0772238514174
2.209188660801564
2.329423264907136
2.4359726295210167
2.5268817204301075
2.603128054740958
2.665689149560117
2.708699902248289
2.73802541544477
2.766373411534702
2.788856304985337
2.803519061583578
2.809384164222874
2.8054740957966766
2.789833822091887
2.7624633431085046
2.7233626588465296
2.6725317693059627
2.611925708699902
2.550342130987292
2.486803519061584
2.4164222873900294
2.345063538611926
2.275659824046921
2.2111436950146626
2.15347018572825
2.103616813294233
2.0635386119257086
2.032258064516129
2.0097751710654936
1.994134897360704
1.9843597262952104
1.9775171065493649
1.9736070381231672
1.9726295210166176
1.9726295210166176
1.9745845552297163
1.9765395894428155
1.978494623655914
1.9794721407624636
1.9794721407624636
1.9775171065493649
1.9736070381231672
1.9667644183773216
1.9589442815249267
1.949169110459433
1.9364613880742916
1.920821114369501
1.903225806451613
1.884652981427175
1.8641251221896384
1.8416422287390029
1.8172043010752688
1.7898338220918866
1.7595307917888563
1.726295210166178
1.6901270772238517
1.656891495601173
1.6236559139784943
1.58455522971652
1.5405669599217986
1.4946236559139785
1.4467253176930597
1.3978494623655917
1.3499511241446724
1.303030303030303
1.2580645161290325
1.2160312805474096
1.176930596285435
1.147605083088954
1.126099706744868
1.1065493646138806
1.0899315738025417
1.0791788856304985
1.075268817204301
1.0772238514173995
1.0850439882697946
1.096774193548387
1.1133919843597262
1.1319648093841643
1.1505376344086022
1.1691104594330402
1.1857282502443791
1.2003910068426198
1.2130987292277615
1.2218963831867058
1.2258064516129032
1.2258064516129032
1.2209188660801564
1.2130987292277615
1.2013685239491692
1.1886608015640274
1.173998044965787
1.1583577712609971
1.1466275659824048
1.1368523949169111
1.1231671554252198
1.1085043988269794
1.0948191593352885
1.0850439882697946
1.083088954056696
1.0948191593352885
1.1241446725317692
1.1730205278592376
1.2453567937438903
1.3391984359726294
1.4516129032258065
1.560117302052786
1.6686217008797657
1.793743890518084
1.9237536656891496
2.050830889540567
2.167155425219941
2.270772238514174
2.360703812316716
2.4349951124144678
2.4946236559139785
2.541544477028348
2.5777126099706744
2.598240469208211
2.608993157380254
2.6158357771261
2.6158357771261
2.6070381231671558
2.5884652981427174
2.5591397849462365
2.520039100684262
2.472140762463343
2.41544477028348
2.35386119257087
2.289345063538612
2.2248289345063537
2.1681329423264906
2.118279569892473
2.069403714565005
2.0254154447702835
1.988269794721408
1.956989247311828
1.9296187683284456
1.905180840664712
1.8826979472140764
1.858260019550342
1.8328445747800584
1.8035190615835777
1.775171065493646
1.7468230694037146
1.7126099706744868
1.6744868035190617
1.6344086021505375
1.5933528836754642
1.5503421309872922
1.5073313782991202
1.4652981427174976
1.4242424242424243
1.3851417399804498
1.3470185728250244
1.3118279569892473
1.284457478005865
1.2619745845552297
