ppg
1.495601173020528
1.5278592375366569
1.5620723362658846
1.5933528836754642
1.6207233626588464
1.6441837732160314
1.66177908113392
1.6764418377321604
1.6871945259042034
1.6930596285434996
1.6920821114369502
1.6852394916911049
1.672531769305963
1.653958944281525
1.6314760508308896
1.608993157380254
1.58455522971652
1.5562072336265884
1.5268817204301075
1.501466275659824
1.478005865102639
1.4516129032258065
1.423264907135875
1.3919843597262953
1.3616813294232648
1.3362658846529814
1.3225806451612905
1.3304007820136852
1.3695014662756595
1.447702834799609
1.564027370478983
1.6871945259042034
1.8201368523949168
1.9833822091886608
2.1544477028347995
2.315738025415445
2.4565004887585533
2.5669599217986314
2.6451612903225805
2.69208211143695
2.7126099706744866
2.710654936461388
2.6901270772238512
2.653958944281525
2.611925708699902
2.5669599217986314
2.5131964809384164
2.453567937438905
2.389051808406647
2.324535679374389
2.260997067448681
2.1974584555229715
2.1358748778103616
2.075268817204301
2.0127077223851417
1.9501466275659824
1.895405669599218
1.844574780058651
1.7898338220918866
1.7331378299120237
1.6774193548387095
1.6236559139784943
1.5728250244379276
1.5298142717497556
1.4946236559139785
1.469208211143695
1.455522971652004
1.4535679374389052
1.4633431085043989
1.479960899315738
1.501466275659824
1.5278592375366569
1.555229716520039
1.5826001955034212
1.608993157380254
1.632453567937439
1.6500488758553276
1.6598240469208212
1.6637341153470186
1.6608015640273706
1.6529814271749756
1.643206256109482
1.6285434995112416
1.6099706744868034
1.590420332355816
1.5679374389051808
1.544477028347996
1.5180840664711632
1.4887585532746823
1.4604105571847508
1.4330400782013686
1.4037145650048877
1.370478983382209
1.3372434017595307
1.310850439882698
1.29227761485826
1.2805474095796676
1.2854349951124144
1.3176930596285434
1.3890518084066472
1.498533724340176
1.6412512218963833
1.8074291300097751
1.9843597262952104
2.1593352883675463
2.318670576735093
2.4389051808406648
2.525904203323558
2.595307917888563
2.641251221896383
2.664711632453568
2.665689149560117
2.6480938416422286
2.6158357771261
2.573802541544477
2.5239491691104594
2.4682306940371457
2.410557184750733
2.3489736070381237
2.29227761485826
2.239491691104594
2.1808406647116323
2.120234604105572
2.0576735092864125
1.9931573802541545
1.9296187683284456
1.8670576735092863
1.8054740957966764
1.7458455522971652
1.689149560117302
1.6344086021505375
1.590420332355816
1.5532746823069403
1.5151515151515151
1.4819159335288368
1.458455522971652
1.4486803519061584
1.4506353861192571
1.4613880742913
1.4819159335288368
1.5083088954056696
1.5405669599217986
1.5718475073313782
1.598240469208211
1.6207233626588464
1.6412512218963833
1.6578690127077225
1.6686217008797657
1.672531769305963
1.6695992179863148
1.6598240469208212
1.6441837732160314
1.624633431085044
1.6050830889540566
1.58455522971652
1.5620723362658846
1.543499511241447
1.5249266862170088
1.500488758553275
1.4731182795698925
1.4457478005865103
1.414467253176931
1.380254154447703
1.3450635386119256
1.3118279569892473
1.2864125122189638
1.2756598240469208
1.289345063538612
1.321603128054741
1.380254154447703
1.4760508308895406
1.607038123167155
1.7673509286412512
1.9413489736070384
2.114369501466276
2.272727272727273
2.4056695992179864
2.5083088954056696
2.579667644183773
2.6207233626588464
2.636363636363636
2.631476050830889
2.613880742913001
2.58455522971652
2.544477028347996
2.495601173020528
2.4408602150537635
2.3822091886608017
2.320625610948192
2.2580645161290325
2.1955034213098727
2.133919843597263
2.074291300097752
2.022482893450636
1.9745845552297163
1.920821114369501
1.8621700879765395
1.8005865102639296
1.737047898338221
1.6764418377321604
1.6207233626588464
1.565982404692082
1.5151515151515151
1.4731182795698925
1.4418377321603129
1.4222873900293256
1.414467253176931
1.4173998044965788
1.4281524926686218
1.4467253176930597
1.4731182795698925
1.5053763440860215
1.541544477028348
1.5747800586510263
1.603128054740958
1.6265884652981428
1.643206256109482
1.6520039100684265
1.6549364613880744
1.653958944281525
1.6471163245356797
1.635386119257087
1.6236559139784943
1.6109481915933528
1.595307917888563
1.576735092864125
1.555229716520039
1.5288367546432062
1.499511241446725
1.4701857282502444
1.4428152492668622
1.4213098729227762
1.4007820136852396
1.3763440860215057
1.3509286412512218
1.3304007820136852
1.3255131964809383
1.3450635386119256
1.396871945259042
1.4858260019550342
1.6099706744868034
1.7634408602150538
1.935483870967742
2.0879765395894427
2.222873900293255
2.361681329423265
2.4838709677419355
2.581622678396872
2.652003910068426
2.6940371456500487
2.710654936461388
2.7067448680351904
2.684261974584555
2.6451612903225805
2.5972629521016617
2.5434995112414467
2.489736070381232
2.4379276637341154
2.383186705767351
2.3274682306940373
2.269794721407625
2.209188660801564
2.1485826001955037
2.089931573802541
2.029325513196481
1.9667644183773216
1.903225806451613
1.8416422287390029
1.790811339198436
1.7438905180840665
1.6930596285434996
1.6441837732160314
1.5992179863147604
1.5591397849462365
1.5298142717497556
1.5131964809384164
1.5083088954056696
1.5161290322580645
1.5347018572825024
1.5610948191593352
1.5923753665689149
1.6226783968719452
1.651026392961877
1.6793743890518085
1.7057673509286413
1.726295210166178
1.7409579667644184
1.747800586510264
1.7487781036168133
1.7438905180840665
1.7341153470185728
1.721407624633431
1.7038123167155426
1.686217008797654
1.6686217008797657
1.64613880742913
1.6207233626588464
1.5923753665689149
1.563049853372434
1.5327468230694037
1.501466275659824
1.4701857282502444
1.436950146627566
1.404692082111437
1.3792766373411536
1.3685239491691104
1.3743890518084063
1.4037145650048877
1.4672531769305963
1.56891495601173
1.704789833822092
1.865102639296188
2.0410557184750733
2.217986314760508
2.3822091886608017
2.52297165200391
2.632453567937439
2.708699902248289
2.750733137829912
2.7653958944281527
2.760508308895406
2.739980449657869
2.705767350928641
2.659824046920821
2.606060606060606
2.547409579667644
2.487781036168133
2.429130009775171
2.3685239491691106
2.3059628543499517
2.243401759530792
2.1867057673509285
2.134897360703812
2.0791788856304985
2.0195503421309877
1.9589442815249267
1.8973607038123168
1.836754643206256
1.7771260997067448
1.718475073313783
1.66177908113392
1.6099706744868034
1.565982404692082
1.5347018572825024
1.5141739980449658
1.501466275659824
1.500488758553275
1.5102639296187683
1.5298142717497556
1.5562072336265884
1.587487781036168
1.6187683284457477
1.6471163245356797
1.6744868035190617
1.6989247311827955
1.7116324535679377
1.715542521994135
1.715542521994135
1.7126099706744868
1.704789833822092
1.6901270772238517
1.6705767350928642
1.6480938416422288
1.624633431085044
1.603128054740958
1.581622678396872
1.5610948191593352
1.5395894428152492
1.520039100684262
1.499511241446725
1.474095796676442
1.444770283479961
1.412512218963832
1.380254154447703
1.3509286412512218
1.3313782991202343
1.3304007820136852
1.3577712609970674
1.4203323558162269
1.520039100684262
1.6304985337243405
1.7526881720430108
1.906158357771261
2.071358748778104
2.233626588465298
2.376344086021505
2.493646138807429
2.581622678396872
2.6392961876832843
2.6695992179863146
2.677419354838709
2.665689149560117
2.6373411534701856
2.60019550342131
2.557184750733138
2.506353861192571
2.4516129032258065
2.3949169110459434
2.3362658846529816
2.2766373411534704
2.2160312805474094
2.155425219941349
2.0957966764418376
2.035190615835777
1.9736070381231672
1.919843597262952
1.869012707722385
1.8132942326490715
1.7546432062561097
1.6950146627565983
1.6383186705767352
1.587487781036168
1.543499511241447
1.5083088954056696
1.4809384164222874
1.466275659824047
1.4643206256109482
1.4731182795698925
1.4887585532746823
1.5112414467253177
1.541544477028348
1.5757575757575757
1.6080156402737047
1.635386119257087
1.6578690127077225
1.6744868035190617
1.6852394916911049
1.6901270772238517
1.6901270772238517
1.6852394916911049
1.6774193548387095
1.6666666666666667
1.6480938416422288
1.6265884652981428
1.6011730205278591
1.573802541544477
1.544477028347996
1.5141739980449658
1.4838709677419355
1.455522971652004
1.4281524926686218
1.4007820136852396
1.370478983382209
1.3450635386119256
1.3255131964809383
1.310850439882698
1.3098729227761483
1.335288367546432
1.3949169110459434
1.490713587487781
1.6207233626588464
1.7771260997067448
1.948191593352884
2.120234604105572
2.2795698924731185
2.39980449657869
2.486803519061584
2.5591397849462365
2.611925708699902
2.643206256109482
2.653958944281525
2.6451612903225805
2.6207233626588464
2.58455522971652
2.539589442815249
2.487781036168133
2.4301075268817205
2.367546432062561
2.3098729227761488
2.2561094819159337
2.198435972629521
2.1378299120234603
2.075268817204301
2.013685239491691
1.9521016617790807
1.8914956011730208
1.8318670576735088
1.7741935483870968
1.7165200391006843
1.6588465298142718
1.6129032258064515
1.5718475073313782
1.5298142717497556
1.4936461388074291
1.466275659824047
1.4516129032258065
1.4496578690127078
1.458455522971652
1.478005865102639
1.5073313782991202
1.5405669599217986
1.5728250244379276
1.6011730205278591
1.6256109481915937
1.6480938416422288
1.6695992179863148
1.6852394916911049
1.6930596285434996
1.694037145650049
1.6901270772238517
1.6803519061583578
1.667644183773216
1.651026392961877
1.6304985337243405
1.6080156402737047
1.590420332355816
1.5757575757575757
1.555229716520039
1.5298142717497556
1.5024437927663734
1.4750733137829912
1.4486803519061584
1.4213098729227762
1.3949169110459434
1.3734115347018572
1.3655913978494625
1.3822091886608017
1.43108504398827
1.4975562072336266
1.585532746823069
1.710654936461388
1.8631476050830889
2.03128054740958
2.19941348973607
2.3548387096774195
2.487781036168133
2.592375366568915
2.665689149560117
2.7096774193548385
2.729227761485826
2.727272727272727
2.7116324535679373
2.684261974584555
2.64613880742913
2.6021505376344085
2.552297165200391
2.496578690127077
2.4389051808406648
2.3822091886608017
2.324535679374389
2.2658846529814274
2.207233626588465
2.1495601173020527
2.0987292277614857
2.050830889540567
1.9951124144672527
1.935483870967742
1.8748778103616808
1.8162267839687196
1.758553274682307
1.7018572825024438
1.6490713587487782
1.6050830889540566
1.5718475073313782
1.5513196480938416
1.543499511241447
1.547409579667644
1.5620723362658846
1.5835777126099706
1.608993157380254
1.640273704789834
1.6705767350928642
1.6989247311827955
1.7223851417399805
1.7409579667644184
1.75366568914956
1.761485826001955
1.7624633431085044
1.7595307917888563
1.7526881720430108
1.7419354838709675
1.7282502443792769
1.7096774193548387
1.6881720430107527
1.664711632453568
1.6383186705767352
1.6099706744868034
1.581622678396872
1.555229716520039
1.5278592375366569
1.5034213098729228
1.478983382209189
1.4486803519061584
1.4193548387096775
1.396871945259042
1.391006842619746
1.4086021505376345
1.457478005865103
1.543499511241447
1.667644183773216
1.8201368523949168
1.988269794721408
2.1378299120234603
2.272727272727273
2.409579667644184
2.530791788856305
2.625610948191593
2.69208211143695
2.730205278592375
2.742913000977517
2.736070381231672
2.7116324535679373
2.675464320625611
2.63049853372434
2.579667644183773
2.530791788856305
2.4809384164222874
2.426197458455523
2.36950146627566
2.310850439882698
2.251221896383187
2.182795698924731
2.1114369501466275
2.046920821114369
1.9833822091886608
1.919843597262952
1.8563049853372435
1.801564027370479
1.7526881720430108
1.699902248289345
1.6471163245356797
1.5992179863147604
1.555229716520039
1.5190615835777126
1.4936461388074291
1.479960899315738
1.478983382209189
1.4916911045943304
1.5131964809384164
1.5395894428152492
1.5650048875855327
1.587487781036168
1.611925708699902
1.635386119257087
1.656891495601173
1.672531769305963
1.683284457478006
1.6901270772238517
1.6920821114369502
1.6871945259042034
1.6774193548387095
1.66177908113392
1.6451612903225807
1.6275659824046922
1.606060606060606
1.5806451612903225
1.5532746823069403
1.5239491691104594
1.4936461388074291
1.4623655913978495
1.4320625610948192
1.3998044965786902
1.3655913978494625
1.3313782991202343
1.3040078201368523
1.2913000977517106
1.2981427174975562
1.3313782991202343
1.3998044965786902
1.5053763440860215
1.6441837732160314
1.8084066471163245
1.9833822091886608
2.156402737047898
2.315738025415445
2.450635386119257
2.555229716520039
2.6236559139784945
2.662756598240469
2.6832844574780057
2.6852394916911044
2.670576735092864
2.6422287390029324
2.6021505376344085
2.5532746823069403
2.4995112414467253
2.441837732160313
2.3812316715542523
2.318670576735093
2.2551319648093844
2.198435972629521
2.145650048875855
2.089931573802541
2.03128054740958
1.967741935483871
1.9042033235581624
1.8406647116324533
1.780058651026393
1.7194525904203324
1.6598240469208212
1.603128054740958
1.5503421309872922
1.509286412512219
1.479960899315738
1.4545454545454546
1.4389051808406648
1.436950146627566
1.4457478005865103
1.4643206256109482
1.4897360703812317
1.5180840664711632
1.5464320625610948
1.5728250244379276
1.5972629521016617
1.616813294232649
1.6314760508308896
1.6412512218963833
1.64613880742913
1.64613880742913
1.6412512218963833
1.629521016617791
1.611925708699902
1.590420332355816
1.5679374389051808
1.543499511241447
1.5161290322580645
1.4868035190615836
1.4613880742913
1.4389051808406648
1.4134897360703813
1.3861192570869991
1.3558162267839686
1.3225806451612905
1.289345063538612
1.2619745845552297
1.2482893450635386
1.2561094819159335
1.295210166177908
1.3714565004887584
1.4858260019550342
1.608993157380254
1.7409579667644184
1.9012707722385145
2.069403714565005
2.2297165200391005
2.3714565004887587
2.4858260019550342
2.570869990224829
2.624633431085044
2.652003910068426
2.6559139784946235
2.6422287390029324
2.6177908113391983
2.582600195503421
2.5376344086021505
2.486803519061584
2.43108504398827
2.3734115347018574
2.312805474095797
2.2502443792766376
2.187683284457478
2.1251221896383186
2.06158357771261
1.9960899315738023
1.9305962854349952
1.8748778103616808
1.8240469208211143
1.7673509286412512
1.7086999022482894
1.6490713587487782
1.5923753665689149
1.5395894428152492
1.4916911045943304
1.452590420332356
1.4242424242424243
1.4086021505376345
1.4076246334310851
1.4173998044965788
1.4349951124144673
1.4623655913978495
1.4965786901270772
1.5327468230694037
1.5679374389051808
1.5992179863147604
1.6256109481915937
1.6451612903225807
1.6588465298142718
1.6666666666666667
1.6695992179863148
1.6656891495601174
1.6588465298142718
1.6490713587487782
1.632453567937439
1.6109481915933528
1.587487781036168
1.564027370478983
1.541544477028348
1.5180840664711632
1.490713587487781
1.4613880742913
1.4301075268817205
1.3958944281524928
1.367546432062561
1.343108504398827
1.3186705767350928
1.3049853372434017
1.313782991202346
1.3548387096774193
1.43108504398827
1.543499511241447
1.689149560117302
1.857282502443793
2.037145650048876
2.2140762463343107
2.3734115347018574
2.493646138807429
2.579667644183773
2.6480938416422286
2.6940371456500487
2.716520039100684
2.7145650048875853
2.6940371456500487
2.658846529814272
2.6129032258064515
2.560117302052786
2.5024437927663734
2.442815249266862
2.388074291300098
2.3382209188660803
2.281524926686217
2.220918866080156
2.160312805474096
2.099706744868035
2.040078201368524
1.9775171065493649
1.913978494623656
1.8514173998044965
1.7898338220918866
1.7311827956989247
1.6813294232649072
1.635386119257087
1.5865102639296187
1.541544477028348
1.5034213098729228
1.47702834799609
1.4633431085043989
1.4623655913978495
1.4731182795698925
1.4946236559139785
1.5239491691104594
1.5571847507331378
1.590420332355816
1.6187683284457477
1.643206256109482
1.6656891495601174
1.6823069403714566
1.6920821114369502
1.6950146627565983
1.694037145650049
1.6881720430107527
1.6774193548387095
1.6637341153470186
1.6451612903225807
1.6226783968719452
1.6021505376344083
1.581622678396872
1.5562072336265884
1.5278592375366569
1.4975562072336266
1.4643206256109482
1.4281524926686218
1.3919843597262953
1.3558162267839686
1.321603128054741
1.2942326490713587
1.281524926686217
1.2932551319648091
1.3313782991202343
1.3988269794721409
1.5024437927663734
1.6412512218963833
1.8064516129032255
1.9853372434017595
2.164222873900293
2.329423264907136
2.4701857282502444
2.579667644183773
2.6578690127077222
2.705767350928641
2.724340175953079
2.721407624633431
2.702834799608993
2.670576735092864
2.627565982404692
2.5777126099706744
2.52297165200391
2.4652981427174976
2.406647116324536
2.347018572825025
2.2854349951124147
2.2238514173998043
2.160312805474096
2.103616813294233
2.0498533724340176
1.989247311827957
1.9266862170087975
1.865102639296188
1.8035190615835777
1.7419354838709675
1.6803519061583578
1.6217008797653958
1.5679374389051808
1.521016617790811
1.4819159335288368
1.455522971652004
1.4408602150537635
1.4349951124144673
1.4418377321603129
1.458455522971652
1.4848484848484849
1.517106549364614
1.5513196480938416
1.58455522971652
1.611925708699902
1.635386119257087
1.6520039100684265
1.66177908113392
1.6666666666666667
1.6656891495601174
1.6588465298142718
1.6471163245356797
1.629521016617791
1.6080156402737047
1.585532746823069
1.564027370478983
1.542521994134897
1.521994134897361
1.498533724340176
1.4721407624633431
1.4486803519061584
1.426197458455523
1.3988269794721409
1.3665689149560116
1.332355816226784
1.2991202346041055
1.2746823069403714
1.2688172043010753
1.289345063538612
1.3440860215053765
1.436950146627566
1.5650048875855327
1.7223851417399805
1.8729227761485825
2.01564027370479
2.16911045943304
2.313782991202346
2.4389051808406648
2.5376344086021505
2.6070381231671558
2.6471163245356792
2.66177908113392
2.6578690127077222
2.635386119257087
2.5972629521016617
2.555229716520039
2.509286412512219
2.455522971652004
2.39980449657869
2.3421309872922778
2.2825024437927666
2.2218963831867056
2.161290322580645
2.0987292277614857
2.034213098729228
1.9696969696969695
1.905180840664712
1.8387096774193548
1.780058651026393
1.7282502443792769
1.6695992179863148
1.6109481915933528
1.5562072336265884
1.504398826979472
1.4604105571847508
1.4281524926686218
1.4086021505376345
1.401759530791789
1.404692082111437
1.4173998044965788
1.435972629521017
1.4594330400782014
1.487781036168133
1.5180840664711632
1.547409579667644
1.5747800586510263
1.598240469208211
1.6148582600195502
1.6236559139784943
1.6256109481915937
1.6217008797653958
1.6099706744868034
1.5943304007820136
1.5796676441837731
1.565982404692082
1.5493646138807429
1.5298142717497556
1.5063538611925709
1.4819159335288368
1.455522971652004
1.4291300097751711
1.3998044965786902
1.367546432062561
1.3333333333333333
1.2991202346041055
1.2746823069403714
1.2590420332355816
1.2512218963831867
1.2619745845552297
1.3040078201368523
1.3822091886608017
1.4965786901270772
1.643206256109482
1.812316715542522
1.991202346041056
2.1652003910068425
2.3225806451612905
2.453567937438905
2.5454545454545454
2.606060606060606
2.6480938416422286
2.667644183773216
2.668621700879765
2.653958944281525
2.622678396871945
2.581622678396872
2.532746823069404
2.4780058651026398
2.421309872922776
2.361681329423265
2.304985337243402
2.251221896383187
2.193548387096774
2.133919843597263
2.0733137829912023
2.010752688172043
1.948191593352884
1.8856304985337244
1.8240469208211143
1.761485826001955
1.6979472140762464
1.6383186705767352
1.5826001955034212
1.5386119257087
1.5034213098729228
1.4701857282502444
1.444770283479961
1.43108504398827
1.4291300097751711
1.4389051808406648
1.457478005865103
1.4848484848484849
1.517106549364614
1.5513196480938416
1.585532746823069
1.6138807429130009
1.6373411534701858
1.656891495601173
1.6705767350928642
1.6774193548387095
1.6774193548387095
1.672531769305963
1.6627565982404693
1.6490713587487782
1.6304985337243405
1.6080156402737047
1.585532746823069
1.5679374389051808
1.5513196480938416
1.530791788856305
1.5073313782991202
1.4809384164222874
1.452590420332356
1.4222873900293256
1.3890518084066472
1.356793743890518
1.3313782991202343
1.3206256109481915
1.335288367546432
1.3861192570869991
1.457478005865103
1.5532746823069403
1.6901270772238517
1.855327468230694
2.035190615835777
2.2140762463343107
2.376344086021505
2.512218963831867
2.618768328445748
2.6959921798631474
2.744868035190616
2.7673509286412514
2.766373411534702
2.7497556207233624
2.720430107526881
2.6803519061583576
2.6295210166177907
2.5718475073313782
2.512218963831867
2.452590420332356
2.3919843597262958
2.329423264907136
2.2658846529814274
2.203323558162268
2.1407624633431084
2.083088954056696
2.029325513196481
1.9696969696969695
1.9090909090909087
1.8484848484848484
1.7888563049853372
1.729227761485826
1.6705767350928642
1.6158357771260996
1.5679374389051808
1.5288367546432062
1.499511241446725
1.4838709677419355
1.4809384164222874
1.4897360703812317
1.5083088954056696
1.5347018572825024
1.564027370478983
1.5933528836754642
1.619745845552297
1.6451612903225807
1.667644183773216
1.6852394916911049
1.6979472140762464
1.7038123167155426
1.7057673509286413
1.7028347996089932
1.6930596285434996
1.6774193548387095
1.656891495601173
1.632453567937439
1.6050830889540566
1.5786901270772238
1.552297165200391
1.5249266862170088
1.4965786901270772
1.4672531769305963
1.4437927663734116
1.423264907135875
1.396871945259042
1.3665689149560116
1.33822091886608
1.3186705767350928
1.3176930596285434
1.346041055718475
1.4115347018572826
1.517106549364614
1.653958944281525
1.81524926686217
1.989247311827957
2.1407624633431084
2.272727272727273
2.4027370478983383
2.515151515151515
2.6021505376344085
2.6608015640273703
2.69208211143695
2.7008797653958942
2.6901270772238512
2.664711632453568
2.6295210166177907
2.5855327468230693
2.5405669599217986
2.493646138807429
2.439882697947214
2.3851417399804498
2.3284457478005867
2.2688172043010755
2.2082111436950145
2.144672531769306
2.080156402737048
2.01564027370479
1.9530791788856303
1.8914956011730208
1.828934506353861
1.7732160312805474
1.7243401759530792
1.6735092864125125
1.6217008797653958
1.5728250244379276
1.5298142717497556
1.4965786901270772
1.4731182795698925
1.4613880742913
1.4604105571847508
1.4711632453567938
1.4926686217008798
1.5180840664711632
1.5454545454545454
1.5757575757575757
1.6041055718475072
1.629521016617791
1.6490713587487782
1.6627565982404693
1.6695992179863148
1.6705767350928642
1.6656891495601174
1.6559139784946235
1.6441837732160314
1.6285434995112416
1.611925708699902
1.5962854349951123
1.5786901270772238
1.5571847507331378
1.5317693059628543
1.504398826979472
1.4760508308895406
1.4467253176930597
1.4164222873900294
1.3841642228739004
1.3509286412512218
1.3176930596285434
1.2942326490713587
1.2834799608993157
1.2903225806451613
1.3255131964809383
1.3949169110459434
1.499511241446725
1.6373411534701858
1.7976539589442817
1.9687194525904204
2.136852394916911
2.2883675464320627
2.4173998044965788
2.520039100684262
2.5865102639296187
2.622678396871945
2.643206256109482
2.6480938416422286
2.638318670576735
2.6148582600195502
2.578690127077224
2.5347018572825024
2.484848484848485
2.43108504398827
2.3734115347018574
2.312805474095797
2.2561094819159337
2.203323558162268
2.144672531769306
2.0821114369501466
2.018572825024438
1.956989247311828
1.8934506353861196
1.827956989247312
1.761485826001955
