ppg
1.270772238514174
1.2561094819159335
1.2404692082111437
1.2228739002932552
1.2043010752688172
1.1867057673509287
1.1691104594330402
1.152492668621701
1.1358748778103618
1.118279569892473
1.1026392961876832
1.0918866080156402
1.0840664711632453
1.0742913000977516
1.0918866080156402
1.1221896383186705
1.1319648093841643
1.1319648093841643
1.1280547409579669
1.1221896383186705
1.1163245356793745
1.110459433040078
1.1055718475073313
1.1026392961876832
1.099706744868035
1.0928641251221896
1.0850439882697946
1.0772238514173995
1.0694037145650048
1.0625610948191593
1.056695992179863
1.050830889540567
1.04594330400782
1.0439882697947214
1.0410557184750733
1.0381231671554252
1.0381231671554252
1.0410557184750733
1.0449657869012707
1.0547409579667644
1.0762463343108504
1.115347018572825
1.1798631476050832
1.270772238514174
1.3870967741935485
1.5268817204301075
1.6823069403714566
1.8465298142717497
1.9902248289345064
2.118279569892473
2.2521994134897363
2.3792766373411536
2.493646138807429
2.591397849462365
2.6715542521994133
2.735092864125122
2.78494623655914
2.825024437927664
2.8563049853372435
2.8807429130009776
2.898338220918866
2.906158357771261
2.9071358748778104
2.9071358748778104
2.903225806451613
2.89247311827957
2.873900293255132
2.8475073313782997
2.8132942326490715
2.7702834799608995
2.719452590420332
2.66177908113392
2.598240469208211
2.5376344086021505
2.479960899315738
2.419354838709677
2.3597262952101663
2.3059628543499517
2.259042033235582
2.218963831867057
2.1847507331378297
2.156402737047898
2.1309872922776147
2.10752688172043
2.085043988269794
2.064516129032258
2.0439882697947214
2.021505376344086
1.9980449657869013
1.9726295210166176
1.945259042033236
1.916911045943304
1.8856304985337244
1.8533724340175952
1.8201368523949168
1.7859237536656891
1.7517106549364614
1.7165200391006843
1.686217008797654
1.6588465298142718
1.629521016617791
1.598240469208211
1.5679374389051808
1.5395894428152492
1.512218963831867
1.4858260019550342
1.4604105571847508
1.434017595307918
1.409579667644184
1.3861192570869991
1.367546432062561
1.3519061583577712
1.3343108504398826
1.316715542521994
1.2991202346041055
1.2825024437927663
1.2658846529814272
1.249266862170088
1.2336265884652982
1.2189638318670577
1.2052785923753666
1.1925708699902249
1.1808406647116323
1.173998044965787
1.1691104594330402
1.1612903225806452
1.1534701857282503
1.1456500488758554
1.1368523949169111
1.1290322580645162
1.1231671554252198
1.1173020527859236
1.110459433040078
1.1026392961876832
1.0948191593352885
1.0909090909090908
1.0869990224828934
1.0791788856304985
1.0703812316715542
1.0606060606060606
1.050830889540567
1.043010752688172
1.0371456500488758
1.0332355816226784
1.0303030303030305
1.0273704789833822
1.0224828934506354
1.0166177908113392
1.013685239491691
1.0127077223851415
1.013685239491691
1.0234604105571847
1.0488758553274682
1.0948191593352885
1.166177908113392
1.2639296187683284
1.3870967741935485
1.5298142717497556
1.6871945259042034
1.8504398826979471
1.992179863147605
2.117302052785924
2.247311827956989
2.36950146627566
2.4789833822091887
2.5718475073313782
2.6480938416422286
2.7096774193548385
2.757575757575758
2.7947214076246336
2.823069403714565
2.844574780058651
2.859237536656892
2.8641251221896384
2.8611925708699903
2.855327468230694
2.844574780058651
2.8269794721407626
2.7996089931573804
2.764418377321604
2.721407624633431
2.6695992179863146
2.610948191593353
2.5464320625610948
2.479960899315738
2.419354838709677
2.363636363636364
2.30791788856305
2.2561094819159337
2.210166177908113
2.172043010752688
2.139784946236559
2.1114369501466275
2.0879765395894427
2.067448680351906
2.046920821114369
2.0254154447702835
2.002932551319648
1.9824046920821117
1.9608993157380252
1.9364613880742916
1.9090909090909087
1.8807429130009776
1.8514173998044965
1.8211143695014664
1.790811339198436
1.758553274682307
1.7253176930596286
1.6911045943304008
1.6549364613880744
1.6236559139784943
1.595307917888563
1.5650048875855327
1.533724340175953
1.5034213098729228
1.4750733137829912
1.4496578690127078
1.4252199413489737
1.4027370478983383
1.3822091886608017
1.3616813294232648
1.3421309872922775
1.3225806451612905
1.3069403714565004
1.295210166177908
1.281524926686217
1.2668621700879763
1.2512218963831867
1.2346041055718475
1.2189638318670577
1.2043010752688172
1.1906158357771262
1.1759530791788857
1.1622678396871946
1.1485826001955035
1.1397849462365592
1.133919843597263
1.1270772238514175
1.1202346041055715
1.1133919843597262
1.1055718475073313
1.096774193548387
1.0879765395894427
1.0791788856304985
1.0713587487781036
1.064516129032258
1.0586510263929618
1.0527859237536656
1.0518084066471165
1.0527859237536656
1.0498533724340176
1.04594330400782
1.0410557184750733
1.0361681329423265
1.032258064516129
1.029325513196481
1.0263929618768328
1.0224828934506354
1.0166177908113392
1.0087976539589445
1.0048875855327468
1.002932551319648
0.9990224828934506
0.9980449657869012
1.0039100684261977
1.0224828934506354
1.0586510263929618
1.1202346041055715
1.209188660801564
1.327468230694037
1.478005865102639
1.6520039100684265
1.8299120234604105
1.9843597262952104
2.121212121212121
2.2629521016617797
2.396871945259042
2.5161290322580645
2.6177908113391983
2.702834799608993
2.7722385141739982
2.8289345063538613
2.8729227761485827
2.906158357771261
2.9315738025415445
2.9442815249266863
2.948191593352884
2.952101661779081
2.951124144672532
2.943304007820137
2.9286412512218964
2.905180840664712
2.8729227761485827
2.83088954056696
2.780058651026393
2.7233626588465296
2.6608015640273703
2.601173020527859
2.5434995112414467
2.4838709677419355
2.426197458455523
2.3714565004887587
2.321603128054741
2.27761485826002
2.2385141739980448
2.2052785923753664
2.176930596285435
2.150537634408602
2.126099706744868
2.101661779081134
2.0791788856304985
2.056695992179863
2.032258064516129
2.004887585532747
1.9765395894428155
1.946236559139785
1.9159335288367547
1.8836754643206255
1.8504398826979471
1.8162267839687196
1.7820136852394917
1.7468230694037146
1.715542521994135
1.686217008797654
1.6549364613880744
1.6226783968719452
1.5913978494623655
1.5610948191593352
1.530791788856305
1.5034213098729228
1.478983382209189
1.4545454545454546
1.4330400782013686
1.4134897360703813
1.3958944281524928
1.3822091886608017
1.3695014662756595
1.35386119257087
1.335288367546432
1.316715542521994
1.300097751710655
1.2854349951124144
1.2717497556207231
1.2590420332355816
1.2443792766373412
1.2287390029325511
1.2140762463343109
1.2043010752688172
1.1964809384164223
1.18475073313783
1.1720430107526882
1.1583577712609971
1.1456500488758554
1.1348973607038124
1.126099706744868
1.1192570869990224
1.1124144672531768
1.1055718475073313
1.0977517106549364
1.0909090909090908
1.0869990224828934
1.0850439882697946
1.0811339198435972
1.0762463343108504
1.0713587487781036
1.067448680351906
1.0635386119257086
1.0586510263929618
1.053763440860215
1.0488758553274682
1.0439882697947214
1.040078201368524
1.0391006842619743
1.0381231671554252
1.035190615835777
1.032258064516129
1.032258064516129
1.040078201368524
1.0625610948191593
1.104594330400782
1.1720430107526882
1.267839687194526
1.3890518084066472
1.5347018572825024
1.6979472140762464
1.8465298142717497
1.9853372434017595
2.134897360703812
2.280547409579668
2.4144672531769307
2.5317693059628543
2.631476050830889
2.713587487781036
2.779081133919844
2.832844574780059
2.87683284457478
2.911045943304008
2.930596285434995
2.941348973607038
2.951124144672532
2.956989247311828
2.956989247311828
2.9501466275659824
2.936461388074292
2.913000977517106
2.8797653958944283
2.838709677419355
2.789833822091887
2.7331378299120237
2.6695992179863146
2.6080156402737047
2.549364613880743
2.486803519061584
2.426197458455523
2.36950146627566
2.318670576735093
2.275659824046921
2.2404692082111435
2.212121212121212
2.187683284457478
2.1652003910068425
2.1436950146627565
2.12316715542522
2.103616813294233
2.0821114369501466
2.058651026392962
2.0332355816226784
2.005865102639296
1.9775171065493649
1.9472140762463344
1.9159335288367547
1.8836754643206255
1.8504398826979471
1.8162267839687196
1.782991202346041
1.7556207233626588
1.7302052785923754
1.7018572825024438
1.672531769305963
1.643206256109482
1.6148582600195502
1.587487781036168
1.5591397849462365
1.5317693059628543
1.5053763440860215
1.4809384164222874
1.457478005865103
1.4389051808406648
1.4222873900293256
1.404692082111437
1.3851417399804498
1.3665689149560116
1.3479960899315735
1.3294232649071358
1.3128054740957966
1.2981427174975562
1.2834799608993157
1.2697947214076246
1.2570869990224829
1.2453567937438903
1.2365591397849462
1.23069403714565
1.2218963831867058
1.2130987292277615
1.2052785923753666
1.1964809384164223
1.1867057673509287
1.176930596285435
1.1681329423264908
1.1593352883675463
1.1505376344086022
1.141739980449658
1.1368523949169111
1.1348973607038124
1.130987292277615
1.1270772238514175
1.1231671554252198
1.1192570869990224
1.1143695014662756
1.1094819159335287
1.104594330400782
1.099706744868035
1.0948191593352885
1.088954056695992
1.0821114369501466
1.0791788856304985
1.0772238514173995
1.0733137829912025
1.0703812316715542
1.0742913000977516
1.0928641251221896
1.130987292277615
1.1945259042033236
1.2864125122189638
1.4086021505376345
1.5542521994134897
1.718475073313783
1.869012707722385
2.010752688172043
2.164222873900293
2.314760508308896
2.4545454545454546
2.578690127077224
2.684261974584555
2.7722385141739982
2.844574780058651
2.902248289345064
2.948191593352884
2.98435972629521
3.0127077223851417
3.027370478983382
3.034213098729228
3.042033235581622
3.047898338220919
3.047898338220919
3.0410557184750733
3.0254154447702835
3.0
2.9657869012707723
2.921798631476051
2.8690127077223853
2.8103616813294234
2.7517106549364616
2.69208211143695
2.6285434995112413
2.5650048875855327
2.49266862170088
2.420332355816227
2.360703812316716
2.3118279569892475
2.271749755620724
2.2385141739980448
2.210166177908113
2.1837732160312804
2.161290322580645
2.139784946236559
2.117302052785924
2.0928641251221896
2.0664711632453567
2.038123167155425
2.006842619745845
1.9745845552297163
1.9413489736070384
1.9071358748778104
1.871945259042033
1.835777126099707
1.8005865102639296
1.7702834799608993
1.7438905180840665
1.715542521994135
1.6842619745845553
1.6529814271749756
1.6217008797653958
1.590420332355816
1.5591397849462365
1.530791788856305
1.5034213098729228
1.478005865102639
1.4545454545454546
1.435972629521017
1.4203323558162269
1.401759530791789
1.3822091886608017
1.3626588465298142
1.343108504398827
1.3235581622678396
1.303030303030303
1.2834799608993157
1.2639296187683284
1.24633431085044
1.2297165200391007
1.2160312805474096
1.2072336265884651
1.2003910068426198
1.1915933528836755
1.1837732160312806
1.1749755620723363
1.166177908113392
1.1583577712609971
1.1495601173020529
1.1397849462365592
1.1280547409579669
1.115347018572825
1.1036168132942326
1.096774193548387
1.093841642228739
1.0899315738025417
1.0850439882697946
1.0801564027370478
1.0742913000977516
1.0684261974584557
1.0625610948191593
1.0576735092864125
1.0518084066471165
1.04594330400782
1.040078201368524
1.0342130987292275
1.032258064516129
1.032258064516129
1.0283479960899315
1.0234604105571847
1.0205278592375366
1.0263929618768328
1.0469208211143697
1.0899315738025417
1.160312805474096
1.260019550342131
1.3870967741935485
1.5366568914956011
1.678396871945259
1.8162267839687196
1.9716520039100685
2.1270772238514173
2.2737047898338223
2.406647116324536
2.5219941348973607
2.618768328445748
2.6989247311827955
2.764418377321604
2.817204301075269
2.859237536656892
2.8914956011730206
2.9100684261974585
2.917888563049853
2.924731182795699
2.927663734115347
2.924731182795699
2.9159335288367547
2.8993157380254155
2.874877810361681
2.8406647116324537
2.7976539589442817
2.7468230694037143
2.6881720430107525
2.6295210166177907
2.5698924731182795
2.505376344086021
2.439882697947214
2.377321603128055
2.320625610948192
2.269794721407625
2.2248289345063537
2.185728250244379
2.1524926686217007
2.1221896383186705
2.096774193548387
2.074291300097752
2.0547409579667644
2.0361681329423265
2.016617790811339
1.9951124144672527
1.9716520039100685
1.9442815249266865
1.9130009775171064
1.8797653958944285
1.8455522971652003
1.8103616813294232
1.7732160312805474
1.737047898338221
1.70772238514174
1.6813294232649072
1.6529814271749756
1.6226783968719452
1.5923753665689149
1.563049853372434
1.5327468230694037
1.5024437927663734
1.4731182795698925
1.444770283479961
1.418377321603128
1.3949169110459434
1.3734115347018572
1.356793743890518
1.343108504398827
1.3255131964809383
1.3069403714565004
1.289345063538612
1.2727272727272727
1.2570869990224829
1.2443792766373412
1.2316715542521994
1.219941348973607
1.2082111436950147
1.1974584555229717
1.1915933528836755
1.1867057673509287
1.1798631476050832
1.1710654936461389
1.1612903225806452
1.1515151515151516
1.141739980449658
1.1329423264907137
1.1241446725317692
1.115347018572825
1.10752688172043
1.1016617790811338
1.096774193548387
1.0957966764418376
1.096774193548387
1.093841642228739
1.0899315738025417
1.0850439882697946
1.0801564027370478
1.0742913000977516
1.0684261974584557
1.0625610948191593
1.0576735092864125
1.0518084066471165
1.04594330400782
1.0439882697947214
1.0420332355816226
1.035190615835777
1.0283479960899315
1.0224828934506354
1.021505376344086
1.0312805474095796
1.056695992179863
1.104594330400782
1.1808406647116323
1.2834799608993157
1.4115347018572826
1.5620723362658846
1.7038123167155426
1.8416422287390029
1.9960899315738023
2.150537634408602
2.297165200391007
2.4281524926686218
2.5405669599217986
2.634408602150537
2.7116324535679373
2.773216031280548
2.822091886608016
2.859237536656892
2.881720430107527
2.8944281524926687
2.906158357771261
2.9149560117302054
2.918866080156403
2.9159335288367547
2.905180840664712
2.8856304985337244
2.857282502443793
2.820136852394917
2.773216031280548
2.717497556207233
2.66177908113392
2.6041055718475072
2.5405669599217986
2.4750733137829912
2.410557184750733
2.3489736070381237
2.2932551319648096
2.244379276637341
2.2023460410557183
2.16911045943304
2.1407624633431084
2.115347018572825
2.09188660801564
2.071358748778104
2.0527859237536656
2.0332355816226784
2.0117302052785924
1.989247311827957
1.964809384164223
1.9364613880742916
1.906158357771261
1.8748778103616808
1.8416422287390029
1.8074291300097751
1.7712609970674489
1.7390029325513197
1.7096774193548387
1.6774193548387095
1.6441837732160314
1.6109481915933528
1.5777126099706744
1.5464320625610948
1.517106549364614
1.490713587487781
1.4652981427174976
1.4418377321603129
1.4193548387096775
1.396871945259042
1.380254154447703
1.364613880742913
1.3450635386119256
1.324535679374389
1.3040078201368523
1.284457478005865
1.2658846529814272
1.2473118279569892
1.2287390029325511
1.2111436950146628
1.1945259042033236
1.1808406647116323
1.1730205278592376
1.1671554252199414
1.160312805474096
1.1515151515151516
1.141739980449658
1.1319648093841643
1.121212121212121
1.1114369501466277
1.1026392961876832
1.0948191593352885
1.0879765395894427
1.0801564027370478
1.0703812316715542
1.0635386119257086
1.0596285434995112
1.0527859237536656
1.0449657869012707
1.0371456500488758
1.0303030303030305
1.024437927663734
1.018572825024438
1.0127077223851415
1.0068426197458455
1.0009775171065494
0.9960899315738024
0.9941348973607038
0.9931573802541545
0.9882697947214076
0.981427174975562
0.975562072336266
0.9716520039100685
0.9745845552297164
0.989247311827957
1.0224828934506354
1.0801564027370478
1.166177908113392
1.281524926686217
1.4242424242424243
1.5650048875855327
1.7057673509286413
1.8699902248289344
2.0410557184750733
2.207233626588465
2.361681329423265
2.4975562072336266
2.613880742913001
2.710654936461388
2.789833822091887
2.852394916911046
2.902248289345064
2.932551319648094
2.951124144672532
2.970674486803519
2.986314760508309
2.9980449657869013
3.005865102639296
3.006842619745845
3.0
2.983382209188661
2.956011730205278
2.916911045943304
2.8670576735092865
2.809384164222874
2.7497556207233624
2.687194525904203
2.6177908113391983
2.5464320625610948
2.4780058651026398
2.4134897360703813
2.355816226783969
2.3059628543499517
2.2639296187683287
2.2297165200391005
2.201368523949169
2.175953079178885
2.15347018572825
2.131964809384164
2.1094819159335287
2.0879765395894427
2.064516129032258
2.038123167155425
2.010752688172043
1.9804496578690127
1.948191593352884
1.9159335288367547
1.8826979472140764
1.8484848484848484
1.8132942326490715
1.782991202346041
1.7546432062561097
1.721407624633431
1.6871945259042034
1.653958944281525
1.6217008797653958
1.5913978494623655
1.563049853372434
1.5356793743890518
1.5083088954056696
1.482893450635386
1.457478005865103
1.4379276637341154
1.4203323558162269
1.401759530791789
1.3841642228739004
1.367546432062561
1.3519061583577712
1.3362658846529814
1.3196480938416422
1.3040078201368523
1.289345063538612
1.2756598240469208
1.262952101661779
1.2502443792766371
1.241446725317693
1.2346041055718475
1.2238514173998043
1.2111436950146628
1.1994134897360704
1.187683284457478
1.1779081133919844
1.1681329423264908
1.1593352883675463
1.1505376344086022
1.141739980449658
1.1319648093841643
1.1270772238514175
1.1231671554252198
1.115347018572825
1.1065493646138806
1.0977517106549364
1.0909090909090908
1.0840664711632453
1.078201368523949
1.072336265884653
1.067448680351906
1.0625610948191593
1.0586510263929618
1.0586510263929618
1.0586510263929618
1.0586510263929618
1.0586510263929618
1.0586510263929618
1.0586510263929618
1.04594330400782
1.0547409579667644
1.0762463343108504
1.1192570869990224
1.1886608015640274
1.2873900293255132
1.414467253176931
1.544477028347996
1.6813294232649072
1.8455522971652003
2.0195503421309877
2.193548387096774
2.357771260997068
2.505376344086021
2.634408602150537
2.744868035190616
2.835777126099707
2.911045943304008
2.973607038123167
3.0234604105571847
3.0557184750733137
3.0762463343108504
3.0957966764418376
3.110459433040078
3.120234604105572
3.124144672531769
3.121212121212121
3.110459433040078
3.09188660801564
3.064516129032258
3.027370478983382
2.979472140762464
2.9266862170087977
2.8690127077223853
2.8044965786901277
2.735092864125122
2.6637341153470184
2.5943304007820136
2.5288367546432062
2.4701857282502444
2.4164222873900294
2.366568914956012
2.32355816226784
2.2854349951124147
2.2531769305962857
2.225806451612903
2.20039100684262
2.175953079178885
2.150537634408602
2.12316715542522
2.0957966764418376
2.0664711632453567
2.035190615835777
2.0019550342130987
1.9667644183773216
1.9305962854349952
1.8934506353861196
1.86119257086999
1.83088954056696
1.7956989247311828
1.758553274682307
1.7223851417399805
1.6871945259042034
1.6529814271749756
1.6217008797653958
1.5913978494623655
1.5620723362658846
1.5317693059628543
1.5034213098729228
1.4809384164222874
1.4604105571847508
1.4379276637341154
1.414467253176931
1.3919843597262953
1.370478983382209
1.348973607038123
1.327468230694037
1.3069403714565004
1.2873900293255132
1.2688172043010753
1.2531769305962854
1.2394916911045943
1.2297165200391007
1.2218963831867058
1.2121212121212122
1.2003910068426198
1.187683284457478
1.1759530791788857
1.164222873900293
1.1515151515151516
1.1378299120234605
1.1251221896383188
1.1133919843597262
1.1026392961876832
1.0977517106549364
1.0948191593352885
1.0909090909090908
1.086021505376344
1.0801564027370478
1.0801564027370478
1.0840664711632453
1.083088954056696
1.0801564027370478
1.075268817204301
1.0703812316715542
1.0654936461388074
1.0606060606060606
1.0586510263929618
1.0576735092864125
1.0518084066471165
1.0439882697947214
1.0361681329423265
1.029325513196481
1.0273704789833822
1.0312805474095796
1.0478983382209188
1.0840664711632453
1.1456500488758554
1.2346041055718475
1.3313782991202343
1.4418377321603129
1.5826001955034212
1.7390029325513197
1.902248289345064
2.0635386119257086
2.21505376344086
2.3528836754643208
2.4731182795698925
2.575757575757576
2.66177908113392
2.7331378299120237
2.789833822091887
2.827956989247312
2.854349951124145
2.8797653958944283
2.9012707722385143
2.916911045943304
2.9257086999022484
2.9266862170087977
2.920821114369501
2.906158357771261
2.8826979472140764
2.850439882697948
2.8103616813294234
2.7653958944281527
2.716520039100684
2.659824046920821
2.5972629521016617
2.5317693059628543
2.4672531769305963
2.404692082111437
2.347018572825025
2.294232649071359
2.2482893450635384
2.2082111436950145
2.1730205278592374
2.1417399804496577
2.114369501466276
2.088954056695992
2.0635386119257086
2.038123167155425
2.0146627565982405
1.991202346041056
1.967741935483871
1.943304007820137
1.916911045943304
1.8885630498533723
1.858260019550342
1.825024437927664
1.7947214076246334
1.7653958944281525
1.7311827956989247
1.6959921798631477
1.6608015640273706
1.6265884652981428
1.5923753665689149
1.560117302052786
1.530791788856305
1.5034213098729228
1.47702834799609
1.4516129032258065
1.426197458455523
1.4066471163245358
1.3900293255131966
1.3724340175953078
1.35386119257087
1.335288367546432
1.3157380254154447
1.2971652003910068
1.2795698924731185
1.262952101661779
1.24633431085044
1.23069403714565
1.217008797653959
1.2072336265884651
1.2013685239491692
1.1945259042033236
1.1857282502443791
1.1759530791788857
1.164222873900293
1.152492668621701
1.141739980449658
1.1300097751710656
1.121212121212121
1.1143695014662756
1.10752688172043
1.1016617790811338
1.099706744868035
1.0987292277614855
1.0948191593352885
1.0879765395894427
1.0791788856304985
1.0694037145650048
1.0596285434995112
1.050830889540567
1.043010752688172
1.0361681329423265
1.0312805474095796
1.0273704789833822
1.0263929618768328
1.0273704789833822
1.0263929618768328
1.024437927663734
1.0224828934506354
1.018572825024438
1.0127077223851415
1.0068426197458455
1.0048875855327468
1.0097751710654936
1.0283479960899315
1.0664711632453567
1.130987292277615
1.2082111436950147
1.300097751710655
1.4242424242424243
1.5718475073313782
1.7341153470185728
1.900293255131965
2.0625610948191597
2.21505376344086
2.3528836754643208
2.4731182795698925
2.575757575757576
2.659824046920821
2.718475073313783
2.760508308895406
2.801564027370479
2.8367546432062563
2.865102639296188
2.886608015640274
2.900293255131965
2.9071358748778104
2.9071358748778104
2.8993157380254155
2.884652981427175
2.860215053763441
2.8269794721407626
2.787878787878788
2.7419354838709675
2.687194525904203
2.625610948191593
2.5610948191593352
2.496578690127077
2.432062561094819
2.372434017595308
2.3167155425219943
2.2668621700879767
2.222873900293255
2.1837732160312804
2.1524926686217007
2.126099706744868
2.101661779081134
2.0791788856304985
2.056695992179863
2.0332355816226784
2.0087976539589443
1.9833822091886608
1.9560117302052784
1.9266862170087975
1.8963831867057677
1.865102639296188
1.835777126099707
1.8074291300097751
1.7771260997067448
1.7468230694037146
1.7165200391006843
1.6852394916911049
1.6520039100684265
1.619745845552297
1.587487781036168
1.5571847507331378
1.5288367546432062
1.500488758553275
1.4731182795698925
1.4516129032258065
1.434017595307918
1.414467253176931
1.393939393939394
1.3743890518084063
1.3548387096774193
1.335288367546432
1.3157380254154447
1.2971652003910068
1.2805474095796676
1.2649071358748778
1.2482893450635386
1.2365591397849462
1.2267839687194526
1.2140762463343109
1.2013685239491692
1.1886608015640274
