ppg
2.717497556207233
2.6901270772238512
2.644183773216031
2.58455522971652
2.515151515151515
2.4359726295210167
2.3597262952101663
2.2844574780058653
2.201368523949169
2.1114369501466275
2.016617790811339
1.9188660801564028
1.8201368523949168
1.7233626588465298
1.629521016617791
1.5386119257087
1.4516129032258065
1.3685239491691104
1.3020527859237536
1.2453567937438903
1.1886608015640274
1.1368523949169111
1.0918866080156402
1.0557184750733135
1.0283479960899315
1.0087976539589445
0.9980449657869012
0.9941348973607038
0.9960899315738024
1.002932551319648
1.0127077223851415
1.0263929618768328
1.0420332355816226
1.0586510263929618
1.0762463343108504
1.0918866080156402
1.1036168132942326
1.1124144672531768
1.1173020527859236
1.1202346041055715
1.1202346041055715
1.118279569892473
1.1133919843597262
1.110459433040078
1.1085043988269794
1.1065493646138806
1.1036168132942326
1.0987292277614855
1.0918866080156402
1.0850439882697946
1.078201368523949
1.0713587487781036
1.0664711632453567
1.0606060606060606
1.0527859237536656
1.0469208211143697
1.0449657869012707
1.0469208211143697
1.0557184750733135
1.0791788856304985
1.1251221896383188
1.2013685239491692
1.3128054740957966
1.458455522971652
1.6314760508308896
1.8240469208211143
2.022482893450636
2.2140762463343107
2.3685239491691106
2.490713587487781
2.6021505376344085
2.69208211143695
2.7565982404692084
2.793743890518084
2.803519061583578
2.787878787878788
2.750733137829912
2.6959921798631474
2.627565982404692
2.5464320625610948
2.466275659824047
2.3851417399804498
2.2932551319648096
2.1974584555229715
2.099706744868035
2.0009775171065494
1.902248289345064
1.8054740957966764
1.710654936461388
1.6207233626588464
1.5366568914956011
1.455522971652004
1.380254154447703
1.3206256109481915
1.2717497556207231
1.2228739002932552
1.1779081133919844
1.1397849462365592
1.1094819159335287
1.086021505376344
1.0694037145650048
1.0596285434995112
1.0557184750733135
1.0557184750733135
1.0606060606060606
1.0703812316715542
1.0840664711632453
1.0987292277614855
1.1124144672531768
1.126099706744868
1.1397849462365592
1.1505376344086022
1.1593352883675463
1.166177908113392
1.1710654936461389
1.1730205278592376
1.173998044965787
1.1749755620723363
1.176930596285435
1.1788856304985338
1.176930596285435
1.1730205278592376
1.1652003910068427
1.1544477028347997
1.141739980449658
1.1290322580645162
1.1163245356793745
1.104594330400782
1.093841642228739
1.0850439882697946
1.0811339198435972
1.083088954056696
1.0918866080156402
1.1163245356793745
1.166177908113392
1.2482893450635386
1.3655913978494625
1.5151515151515151
1.6911045943304008
1.8836754643206255
2.081133919843597
2.2688172043010755
2.4389051808406648
2.56891495601173
2.665689149560117
2.748778103616813
2.8084066471163247
2.841642228739003
2.8484848484848486
2.831867057673509
2.7947214076246336
2.739980449657869
2.6725317693059627
2.595307917888563
2.5102639296187683
2.4281524926686218
2.346041055718475
2.2551319648093844
2.157380254154448
2.056695992179863
1.9560117302052784
1.855327468230694
1.7575757575757576
1.6627565982404693
1.5718475073313782
1.4858260019550342
1.4056695992179864
1.332355816226784
1.2756598240469208
1.2316715542521994
1.1886608015640274
1.1515151515151516
1.1231671554252198
1.1036168132942326
1.0909090909090908
1.0850439882697946
1.0850439882697946
1.0918866080156402
1.1026392961876832
1.1143695014662756
1.1270772238514175
1.1407624633431086
1.1544477028347997
1.1681329423264908
1.181818181818182
1.195503421309873
1.206256109481916
1.2140762463343109
1.219941348973607
1.224828934506354
1.2267839687194526
1.2267839687194526
1.224828934506354
1.2238514173998043
1.2218963831867058
1.2365591397849462
1.260019550342131
1.267839687194526
1.2688172043010753
1.2658846529814272
1.260019550342131
1.2541544477028348
1.2473118279569892
1.241446725317693
1.238514173998045
1.241446725317693
1.2531769305962854
1.281524926686217
1.3362658846529814
1.4252199413489737
1.5493646138807429
1.7086999022482894
1.895405669599218
2.099706744868035
2.3069403714565007
2.504398826979472
2.678396871945259
2.823069403714565
2.921798631476051
2.9853372434017595
3.0283479960899315
3.04594330400782
3.040078201368524
3.010752688172043
2.960899315738025
2.8944281524926687
2.8152492668621703
2.727272727272727
2.633431085043988
2.5376344086021505
2.449657869012708
2.363636363636364
2.269794721407625
2.1730205278592374
2.074291300097752
1.975562072336266
1.878787878787879
1.7839687194525904
1.6911045943304008
1.6041055718475072
1.52297165200391
1.4486803519061584
1.3812316715542523
1.3294232649071358
1.289345063538612
1.252199413489736
1.2218963831867058
1.1994134897360704
1.1837732160312806
1.1749755620723363
1.1720430107526882
1.1749755620723363
1.1827956989247312
1.195503421309873
1.2130987292277615
1.2316715542521994
1.2502443792766371
1.2697947214076246
1.2864125122189638
1.300097751710655
1.3118279569892473
1.3206256109481915
1.3264907135874875
1.3294232649071358
1.3294232649071358
1.327468230694037
1.3235581622678396
1.316715542521994
1.310850439882698
1.3049853372434017
1.2991202346041055
1.2932551319648091
1.2883675464320623
1.284457478005865
1.2805474095796676
1.2776148582600195
1.2746823069403714
1.2717497556207231
1.2727272727272727
1.2805474095796676
1.2961876832844574
1.327468230694037
1.3890518084066472
1.4848484848484849
1.6177908113391983
1.7849462365591398
1.9765395894428155
2.1788856304985336
2.377321603128055
2.560117302052786
2.717497556207233
2.8426197458455524
2.924731182795699
2.973607038123167
3.004887585532747
3.0117302052785924
2.9960899315738025
2.9589442815249267
2.9042033235581624
2.834799608993157
2.7536656891495603
2.662756598240469
2.565982404692082
2.464320625610948
2.360703812316716
2.2688172043010755
2.1818181818181817
2.0869990224828934
1.9902248289345064
1.8934506353861196
1.7947214076246334
1.6959921798631477
1.5992179863147604
1.5053763440860215
1.4164222873900294
1.335288367546432
1.2639296187683284
1.2111436950146628
1.1710654936461389
1.133919843597263
1.1036168132942326
1.0811339198435972
1.0654936461388074
1.056695992179863
1.0527859237536656
1.053763440860215
1.0576735092864125
1.0635386119257086
1.0703812316715542
1.0791788856304985
1.0909090909090908
1.1055718475073313
1.121212121212121
1.1358748778103618
1.1495601173020529
1.1622678396871946
1.1730205278592376
1.1798631476050832
1.1837732160312806
1.18475073313783
1.1827956989247312
1.1788856304985338
1.1749755620723363
1.1710654936461389
1.163245356793744
1.1564027370478984
1.1515151515151516
1.147605083088954
1.1466275659824048
1.147605083088954
1.1495601173020529
1.1515151515151516
1.1544477028347997
1.163245356793744
1.18475073313783
1.2179863147605083
1.270772238514174
1.356793743890518
1.478005865102639
1.6314760508308896
1.8103616813294232
2.002932551319648
2.1974584555229715
2.3792766373411536
2.5386119257087
2.668621700879765
2.7653958944281527
2.8211143695014664
2.8455522971652005
2.849462365591398
2.83088954056696
2.790811339198436
2.7311827956989245
2.656891495601173
2.573802541544477
2.484848484848485
2.393939393939394
2.304985337243402
2.21505376344086
2.124144672531769
2.043010752688172
1.9667644183773216
1.881720430107527
1.790811339198436
1.6959921798631477
1.6011730205278591
1.509286412512219
1.4213098729227762
1.3411534701857282
1.270772238514174
1.2130987292277615
1.1652003910068427
1.1319648093841643
1.110459433040078
1.0928641251221896
1.0821114369501466
1.075268817204301
1.0733137829912025
1.0742913000977516
1.0791788856304985
1.0869990224828934
1.0987292277614855
1.1124144672531768
1.1251221896383188
1.1368523949169111
1.1495601173020529
1.1622678396871946
1.1720430107526882
1.1779081133919844
1.1808406647116323
1.1808406647116323
1.1798631476050832
1.176930596285435
1.1730205278592376
1.166177908113392
1.1564027370478984
1.1456500488758554
1.13880742913001
1.1329423264907137
1.1251221896383188
1.115347018572825
1.1065493646138806
1.0977517106549364
1.0879765395894427
1.078201368523949
1.0713587487781036
1.0694037145650048
1.0742913000977516
1.0948191593352885
1.1397849462365592
1.2013685239491692
1.284457478005865
1.409579667644184
1.5718475073313782
1.7605083088954057
1.9618768328445748
2.163245356793744
2.350928641251222
2.5141739980449658
2.64613880742913
2.7419354838709675
2.801564027370479
2.827956989247312
2.8299120234604107
2.812316715542522
2.7781036168132944
2.732160312805474
2.673509286412512
2.6050830889540566
2.527859237536657
2.443792766373412
2.3391984359726297
2.2218963831867056
2.112414467253177
2.006842619745845
1.913978494623656
1.8269794721407624
1.7302052785923754
1.6304985337243405
1.5317693059628543
1.4379276637341154
1.3499511241446724
1.2697947214076246
1.198435972629521
1.133919843597263
1.078201368523949
1.0303030303030305
0.9960899315738024
0.9696969696969696
0.946236559139785
0.927663734115347
0.9159335288367546
0.9130009775171064
0.9178885630498532
0.9286412512218964
0.9433040078201368
0.9628543499511242
0.9853372434017597
1.0058651026392962
1.024437927663734
1.0410557184750733
1.0557184750733135
1.067448680351906
1.0791788856304985
1.0899315738025417
1.099706744868035
1.10752688172043
1.1133919843597262
1.1163245356793745
1.115347018572825
1.110459433040078
1.1026392961876832
1.096774193548387
1.0918866080156402
1.0850439882697946
1.0791788856304985
1.0742913000977516
1.0703812316715542
1.0664711632453567
1.0635386119257086
1.0635386119257086
1.072336265884653
1.0948191593352885
1.13880742913001
1.2130987292277615
1.303030303030303
1.412512218963832
1.5610948191593352
1.7390029325513197
1.9335288367546437
2.1309872922776147
2.317693059628544
2.482893450635386
2.6207233626588464
2.729227761485826
2.8054740957966766
2.850439882697948
2.8670576735092865
2.8611925708699903
2.835777126099707
2.790811339198436
2.730205278592375
2.6578690127077222
2.575757575757576
2.484848484848485
2.3870967741935485
2.2854349951124147
2.182795698924731
2.078201368523949
1.9853372434017595
1.900293255131965
1.8084066471163245
1.7145650048875856
1.6226783968719452
1.5347018572825024
1.4545454545454546
1.3822091886608017
1.3186705767350928
1.2649071358748778
1.219941348973607
1.181818181818182
1.152492668621701
1.133919843597263
1.1231671554252198
1.1143695014662756
1.1094819159335287
1.110459433040078
1.1163245356793745
1.126099706744868
1.1378299120234605
1.1505376344086022
1.164222873900293
1.1779081133919844
1.1915933528836755
1.206256109481916
1.2189638318670577
1.2297165200391007
1.2375366568914956
1.241446725317693
1.2434017595307918
1.2434017595307918
1.2404692082111437
1.2355816226783969
1.2297165200391007
1.2228739002932552
1.2160312805474096
1.209188660801564
1.2052785923753666
1.2023460410557183
1.1974584555229717
1.1906158357771262
1.1837732160312806
1.176930596285435
1.1700879765395895
1.166177908113392
1.1691104594330402
1.187683284457478
1.23069403714565
1.3040078201368523
1.3919843597262953
1.499511241446725
1.6490713587487782
1.83088954056696
2.03128054740958
2.2375366568914954
2.434017595307918
2.6080156402737047
2.7517106549364616
2.8611925708699903
2.935483870967742
2.9745845552297165
2.9824046920821115
2.9657869012707723
2.9286412512218964
2.874877810361681
2.806451612903226
2.7262952101661777
2.6373411534701856
2.5425219941348973
2.442815249266862
2.3421309872922778
2.2404692082111435
2.1388074291300097
2.0391006842619745
1.951124144672532
1.8699902248289344
1.7820136852394917
1.6930596285434996
1.606060606060606
1.52297165200391
1.4437927663734116
1.370478983382209
1.305962854349951
1.2512218963831867
1.206256109481916
1.1720430107526882
1.147605083088954
1.133919843597263
1.1300097751710656
1.130987292277615
1.1358748778103618
1.144672531769306
1.1573802541544478
1.1749755620723363
1.195503421309873
1.2189638318670577
1.2434017595307918
1.267839687194526
1.2913000977517106
1.310850439882698
1.327468230694037
1.3411534701857282
1.3509286412512218
1.3558162267839686
1.3558162267839686
1.3528836754643203
1.346041055718475
1.3372434017595307
1.327468230694037
1.316715542521994
1.3069403714565004
1.2961876832844574
1.2883675464320623
1.281524926686217
1.273704789833822
1.2668621700879763
1.2590420332355816
1.2531769305962854
1.2512218963831867
1.2580645161290325
1.281524926686217
1.3294232649071358
1.409579667644184
1.5493646138807429
1.6852394916911049
1.8064516129032255
1.975562072336266
2.1681329423264906
2.364613880742913
2.548387096774193
2.708699902248289
2.8377321603128056
2.9315738025415445
2.9902248289345064
3.0175953079178885
3.0146627565982405
2.9872922776148583
2.945259042033236
2.8905180840664717
2.8211143695014664
2.739980449657869
2.6510263929618767
2.557184750733138
2.4604105571847508
2.361681329423265
2.26197458455523
2.161290322580645
2.059628543499511
1.9560117302052784
1.865102639296188
1.7810361681329423
1.6911045943304008
1.6001955034213098
1.5112414467253177
1.4281524926686218
1.3528836754643203
1.2854349951124144
1.2267839687194526
1.1779081133919844
1.1358748778103618
1.1006842619745845
1.0733137829912025
1.0547409579667644
1.1564027370478984
1.1544477028347997
1.1495601173020529
1.141739980449658
1.133919843597263
1.1300097751710656
1.1368523949169111
1.163245356793744
1.217008797653959
1.3040078201368523
1.426197458455523
1.555229716520039
1.6959921798631477
1.869012707722385
2.0576735092864125
2.244379276637341
2.4144672531769307
2.5620723362658846
2.681329423264907
2.7702834799608995
2.827956989247312
2.855327468230694
2.854349951124145
2.8299120234604107
2.790811339198436
2.739980449657869
2.674486803519061
2.5972629521016617
2.5141739980449658
2.4281524926686218
2.3382209188660803
2.247311827956989
2.156402737047898
2.065493646138808
1.9745845552297163
1.881720430107527
1.7996089931573802
1.7253176930596286
1.6451612903225807
1.564027370478983
1.487781036168133
1.418377321603128
1.3577712609970674
1.3069403714565004
1.2649071358748778
1.23069403714565
1.203323558162268
1.1837732160312806
1.1730205278592376
1.1681329423264908
1.166177908113392
1.166177908113392
1.1700879765395895
1.176930596285435
1.18475073313783
1.195503421309873
1.2082111436950147
1.219941348973607
1.23069403714565
1.2404692082111437
1.249266862170088
1.2570869990224829
1.2658846529814272
1.2727272727272727
1.2766373411534702
1.2776148582600195
1.2756598240469208
1.2697947214076246
1.260019550342131
1.249266862170088
1.2365591397849462
1.224828934506354
1.2140762463343109
1.2072336265884651
1.2023460410557183
1.1964809384164223
1.1896383186705768
1.181818181818182
1.173998044965787
1.1700879765395895
1.173998044965787
1.1925708699902249
1.2336265884652982
1.3049853372434017
1.409579667644184
1.5483870967741935
1.689149560117302
1.835777126099707
2.010752688172043
2.193548387096774
2.3685239491691106
2.5268817204301075
2.658846529814272
2.7595307917888565
2.8289345063538613
2.870967741935484
2.884652981427175
2.874877810361681
2.8475073313782997
2.8054740957966766
2.747800586510264
2.678396871945259
2.5992179863147604
2.512218963831867
2.4222873900293256
2.3304007820136854
2.236559139784946
2.144672531769306
2.053763440860215
1.962854349951124
1.871945259042033
1.7917888563049853
1.7194525904203324
1.6422287390029326
1.564027370478983
1.4897360703812317
1.4222873900293256
1.3636363636363635
1.3147605083088951
1.273704789833822
1.2404692082111437
1.2160312805474096
1.198435972629521
1.1886608015640274
1.18475073313783
1.1837732160312806
1.1867057673509287
1.1935483870967742
1.2013685239491692
1.2111436950146628
1.2228739002932552
1.2336265884652982
1.2424242424242424
1.2502443792766371
1.2551319648093842
1.2580645161290325
1.260019550342131
1.260019550342131
1.2570869990224829
1.252199413489736
1.2453567937438903
1.2346041055718475
1.2238514173998043
1.2121212121212122
1.2013685239491692
1.1906158357771262
1.1808406647116323
1.1700879765395895
1.163245356793744
1.1583577712609971
1.1515151515151516
1.142717497556207
1.1329423264907137
1.1241446725317692
1.118279569892473
1.1202346041055715
1.1397849462365592
1.18475073313783
1.2609970674486803
1.3724340175953078
1.5180840664711632
1.664711632453568
1.8172043010752688
1.9960899315738023
2.1808406647116323
2.357771260997068
2.5141739980449658
2.6422287390029324
2.7370478983382207
2.80058651026393
2.833822091886608
2.8406647116324537
2.8240469208211145
2.790811339198436
2.744868035190616
2.6852394916911044
2.6129032258064515
2.532746823069404
2.44672531769306
2.356793743890518
2.264907135874878
2.172043010752688
2.078201368523949
1.9833822091886608
1.8875855327468232
1.793743890518084
1.7145650048875856
1.6451612903225807
1.5708699902248289
1.499511241446725
1.4349951124144673
1.3695014662756595
1.3098729227761483
1.273704789833822
1.2512218963831867
1.2336265884652982
1.2228739002932552
1.2179863147605083
1.2189638318670577
1.2238514173998043
1.2326490713587488
1.2453567937438903
1.267839687194526
1.295210166177908
1.3147605083088951
1.3294232649071358
1.3499511241446724
1.3685239491691104
1.3812316715542523
1.3958944281524928
1.4086021505376345
1.4173998044965788
1.4213098729227762
1.4213098729227762
1.4193548387096775
1.41544477028348
1.4105571847507332
1.4037145650048877
1.3919843597262953
1.3841642228739004
1.3773216031280548
1.370478983382209
1.3665689149560116
1.364613880742913
1.359726295210166
1.3519061583577712
1.3470185728250244
1.3450635386119256
1.3519061583577712
1.375366568914956
1.4007820136852396
1.4672531769305963
1.5962854349951123
1.7497556207233629
1.9286412512218964
2.0957966764418376
2.2561094819159337
2.434017595307918
2.6080156402737047
2.764418377321604
2.89345063538612
2.9902248289345064
3.053763440860215
3.0869990224828934
3.060606060606061
2.995112414467253
2.932551319648094
2.870967741935484
2.806451612903226
2.7331378299120237
2.652003910068426
2.563049853372434
2.4682306940371457
2.3704789833822093
2.269794721407625
2.1681329423264906
2.0664711632453567
1.9657869012707725
1.8670576735092863
1.7820136852394917
1.7067448680351909
1.6275659824046922
1.5483870967741935
1.4721407624633431
1.4007820136852396
1.335288367546432
1.2776148582600195
1.2267839687194526
1.181818181818182
1.1436950146627567
1.1124144672531768
1.0869990224828934
1.0703812316715542
1.0596285434995112
1.050830889540567
1.0449657869012707
1.043010752688172
1.0439882697947214
1.04594330400782
1.0488758553274682
1.0518084066471165
1.0547409579667644
1.0576735092864125
1.0596285434995112
1.06158357771261
1.064516129032258
1.0654936461388074
1.0654936461388074
1.064516129032258
1.0635386119257086
1.0625610948191593
1.0596285434995112
1.056695992179863
1.0527859237536656
1.0449657869012707
1.0361681329423265
1.0273704789833822
1.021505376344086
1.0166177908113392
1.0097751710654936
1.002932551319648
0.997067448680352
0.9960899315738024
1.0039100684261977
1.0263929618768328
1.0733137829912025
1.1505376344086022
1.2619745845552297
1.4056695992179864
1.5493646138807429
1.6989247311827955
1.8758553274682308
2.059628543499511
2.2346041055718477
2.3900293255131966
2.5180840664711632
2.6148582600195502
2.6803519061583576
2.716520039100684
2.7262952101661777
2.7126099706744866
2.679374389051808
2.633431085043988
2.5777126099706744
2.509286412512219
2.43108504398827
2.346041055718475
2.2561094819159337
2.164222873900293
2.071358748778104
1.9794721407624636
1.8875855327468232
1.796676441837732
1.70772238514174
1.6304985337243405
1.560117302052786
1.4848484848484849
1.4105571847507332
1.3391984359726294
1.2746823069403714
1.2179863147605083
1.1691104594330402
1.1280547409579669
1.0948191593352885
1.067448680351906
1.0469208211143697
1.0312805474095796
1.0224828934506354
1.0195503421309873
1.018572825024438
1.0224828934506354
1.0312805474095796
1.0439882697947214
1.0596285434995112
1.0762463343108504
1.0918866080156402
1.1055718475073313
1.1163245356793745
1.1241446725317692
1.1290322580645162
1.133919843597263
1.133919843597263
1.1300097751710656
1.1221896383186705
1.1133919843597262
1.1055718475073313
1.0987292277614855
1.0918866080156402
1.086021505376344
1.0811339198435972
1.0772238514173995
1.0742913000977516
1.0733137829912025
1.0733137829912025
1.0713587487781036
1.067448680351906
1.064516129032258
1.0625610948191593
1.067448680351906
1.086021505376344
1.1270772238514175
1.1974584555229717
1.3040078201368523
1.4457478005865103
1.5894428152492668
1.7380254154447703
1.9149560117302051
2.0987292277614857
2.272727272727273
2.4271749755620724
2.555229716520039
2.653958944281525
2.721407624633431
2.757575757575758
2.7673509286412514
2.752688172043011
2.716520039100684
2.668621700879765
2.611925708699902
2.541544477028348
2.4594330400782014
2.3704789833822093
2.278592375366569
2.1847507331378297
2.0879765395894427
1.9902248289345064
1.8914956011730208
1.793743890518084
1.6989247311827955
1.6187683284457477
1.5483870967741935
1.4760508308895406
1.4056695992179864
1.3411534701857282
1.2834799608993157
1.2336265884652982
1.1906158357771262
1.1544477028347997
1.1251221896383188
1.1026392961876832
1.0879765395894427
1.0811339198435972
1.0811339198435972
1.0869990224828934
1.0957966764418376
1.1055718475073313
1.115347018572825
1.1231671554252198
1.1300097751710656
1.1368523949169111
1.1456500488758554
1.1544477028347997
1.164222873900293
1.173998044965787
1.1827956989247312
1.1915933528836755
1.1974584555229717
1.2003910068426198
1.2003910068426198
1.1964809384164223
1.1896383186705768
1.1798631476050832
1.1691104594330402
1.1564027370478984
1.1436950146627567
1.130987292277615
1.1192570869990224
1.110459433040078
1.1026392961876832
1.0918866080156402
1.0801564027370478
1.0694037145650048
1.064516129032258
1.0694037145650048
1.0899315738025417
1.133919843597263
1.2101661779081134
1.3206256109481915
1.4643206256109482
1.6099706744868034
1.7605083088954057
1.9374389051808407
2.120234604105572
2.29227761485826
2.441837732160313
2.5640273704789838
2.6559139784946235
2.717497556207233
2.750733137829912
2.758553274682307
2.7438905180840663
2.710654936461388
2.6666666666666665
2.613880742913001
2.547409579667644
2.4701857282502444
2.3851417399804498
2.29227761485826
2.1955034213098727
2.096774193548387
1.9980449657869013
1.900293255131965
1.8054740957966764
1.7126099706744868
1.6334310850439884
1.5620723362658846
1.4858260019550342
1.4105571847507332
1.33822091886608
1.2727272727272727
1.2150537634408602
1.166177908113392
1.1280547409579669
1.099706744868035
1.0791788856304985
1.0664711632453567
1.0625610948191593
1.064516129032258
1.0694037145650048
1.078201368523949
1.0928641251221896
1.110459433040078
1.1251221896383188
1.1397849462365592
1.1515151515151516
1.1612903225806452
1.1691104594330402
1.176930596285435
1.1837732160312806
1.1906158357771262
1.195503421309873
1.198435972629521
1.1994134897360704
1.1994134897360704
1.1974584555229717
1.1935483870967742
1.1886608015640274
1.1827956989247312
1.1759530791788857
1.1681329423264908
1.1612903225806452
1.1564027370478984
1.1534701857282503
1.1485826001955035
1.142717497556207
1.1378299120234605
1.1348973607038124
1.13880742913001
1.1544477028347997
1.1906158357771262
1.2561094819159335
1.3548387096774193
1.490713587487781
1.66177908113392
1.8269794721407624
1.991202346041056
2.1808406647116323
2.372434017595308
2.550342130987292
2.702834799608993
2.825024437927664
2.913000977517106
2.9696969696969697
2.997067448680352
2.997067448680352
2.9745845552297165
2.936461388074292
2.884652981427175
2.8181818181818183
2.739980449657869
2.652003910068426
2.558162267839687
2.4604105571847508
2.360703812316716
2.260997067448681
2.164222873900293
2.070381231671554
