ppg
2.750733137829912
2.8181818181818183
2.8563049853372435
2.868035190615836
2.8582600195503423
2.832844574780059
2.793743890518084
2.7438905180840663
2.6823069403714563
2.610948191593353
2.530791788856305
2.441837732160313
2.345063538611926
2.241446725317693
2.133919843597263
2.0254154447702835
1.9315738025415443
1.8484848484848484
1.7634408602150538
1.686217008797654
1.6207233626588464
1.56891495601173
1.5288367546432062
1.500488758553275
1.482893450635386
1.474095796676442
1.4711632453567938
1.4701857282502444
1.4701857282502444
1.4721407624633431
1.4731182795698925
1.4731182795698925
1.4731182795698925
1.4721407624633431
1.4701857282502444
1.4672531769305963
1.4623655913978495
1.455522971652004
1.447702834799609
1.436950146627566
1.4242424242424243
1.4115347018572826
1.4007820136852396
1.3861192570869991
1.3685239491691104
1.348973607038123
1.3284457478005864
1.3069403714565004
1.284457478005865
1.262952101661779
1.241446725317693
1.2179863147605083
1.1935483870967742
1.173998044965787
1.1564027370478984
1.1368523949169111
1.1163245356793745
1.0977517106549364
1.0821114369501466
1.0703812316715542
1.0606060606060606
1.0547409579667644
1.0527859237536656
1.053763440860215
1.06158357771261
1.0791788856304985
1.104594330400782
1.1456500488758554
1.2101661779081134
1.3020527859237536
1.4252199413489737
1.576735092864125
1.7526881720430108
1.9423264907135875
2.1358748778103616
2.3225806451612905
2.490713587487781
2.634408602150537
2.735092864125122
2.8025415444770285
2.8533724340175954
2.8826979472140764
2.889540566959922
2.875855327468231
2.8455522971652005
2.801564027370479
2.766373411534702
2.729227761485826
2.6666666666666665
2.587487781036168
2.496578690127077
2.410557184750733
2.32355816226784
2.2267839687194524
2.1270772238514173
2.029325513196481
1.9374389051808407
1.8563049853372435
1.7869012707722385
1.7311827956989247
1.6881720430107527
1.656891495601173
1.6363636363636365
1.6256109481915937
1.6217008797653958
1.6236559139784943
1.629521016617791
1.6392961876832846
1.6500488758553276
1.6608015640273706
1.6695992179863148
1.675464320625611
1.6793743890518085
1.6803519061583578
1.6803519061583578
1.6774193548387095
1.6735092864125125
1.667644183773216
1.6588465298142718
1.6471163245356797
1.6314760508308896
1.6129032258064515
1.5923753665689149
1.5698924731182795
1.5464320625610948
1.52297165200391
1.498533724340176
1.474095796676442
1.4535679374389052
1.4349951124144673
1.412512218963832
1.3890518084066472
1.3665689149560116
1.3450635386119256
1.3235581622678396
1.303030303030303
1.2854349951124144
1.2727272727272727
1.262952101661779
1.2561094819159335
1.252199413489736
1.2541544477028348
1.2609970674486803
1.2727272727272727
1.2932551319648091
1.3284457478005864
1.3812316715542523
1.458455522971652
1.5620723362658846
1.6930596285434996
1.8484848484848484
2.021505376344086
2.204301075268817
2.361681329423265
2.498533724340176
2.6392961876832843
2.7653958944281527
2.866080156402737
2.9374389051808407
2.9804496578690127
2.995112414467253
2.986314760508309
2.9579667644183774
2.913000977517106
2.8533724340175954
2.782013685239492
2.70772238514174
2.6295210166177907
2.5376344086021505
2.436950146627566
2.3313782991202348
2.222873900293255
2.115347018572825
2.0127077223851417
1.9188660801564028
1.836754643206256
1.7683284457478006
1.7126099706744868
1.6735092864125125
1.64613880742913
1.624633431085044
1.611925708699902
1.6080156402737047
1.6099706744868034
1.616813294232649
1.6275659824046922
1.6392961876832846
1.6500488758553276
1.6598240469208212
1.667644183773216
1.6735092864125125
1.6774193548387095
1.678396871945259
1.6764418377321604
1.6705767350928642
1.66177908113392
1.6480938416422288
1.6314760508308896
1.6129032258064515
1.5933528836754642
1.5728250244379276
1.5513196480938416
1.5298142717497556
1.5112414467253177
1.4946236559139785
1.474095796676442
1.4516129032258065
1.426197458455523
1.3988269794721409
1.3695014662756595
1.3411534701857282
1.313782991202346
1.2883675464320623
1.2649071358748778
1.2434017595307918
1.2267839687194526
1.2150537634408602
1.203323558162268
1.1945259042033236
1.1906158357771262
1.1906158357771262
1.1994134897360704
1.2228739002932552
1.2668621700879763
1.3362658846529814
1.435972629521017
1.5679374389051808
1.7282502443792769
1.8836754643206255
2.037145650048876
2.21505376344086
2.3958944281524928
2.5640273704789838
2.708699902248289
2.8240469208211145
2.906158357771261
2.956011730205278
2.975562072336266
2.9696969696969697
2.943304007820137
2.903225806451613
2.8514173998044967
2.7869012707722387
2.710654936461388
2.624633431085044
2.530791788856305
2.4301075268817205
2.32355816226784
2.2140762463343107
2.103616813294233
1.9960899315738023
1.895405669599218
1.8054740957966764
1.7341153470185728
1.678396871945259
1.6275659824046922
1.585532746823069
1.5542521994134897
1.533724340175953
1.521994134897361
1.517106549364614
1.5161290322580645
1.517106549364614
1.5180840664711632
1.520039100684262
1.521016617790811
1.521994134897361
1.521016617790811
1.5180840664711632
1.5131964809384164
1.5053763440860215
1.495601173020528
1.482893450635386
1.4682306940371457
1.452590420332356
1.435972629521017
1.418377321603128
1.396871945259042
1.3782991202346042
1.359726295210166
1.3362658846529814
1.3098729227761483
1.2825024437927663
1.2531769305962854
1.2238514173998043
1.1935483870967742
1.163245356793744
1.133919843597263
1.1065493646138806
1.0801564027370478
1.06158357771261
1.0478983382209188
1.0332355816226784
1.0195503421309873
1.0087976539589445
1.0019550342130987
1.0009775171065494
1.0097751710654936
1.0342130987292275
1.0801564027370478
1.1534701857282503
1.2590420332355816
1.396871945259042
1.5386119257087
1.6871945259042034
1.869012707722385
2.065493646138808
2.259042033235582
2.436950146627566
2.589442815249267
2.7116324535679373
2.80058651026393
2.8563049853372435
2.8826979472140764
2.884652981427175
2.868035190615836
2.8367546432062563
2.791788856304985
2.735092864125122
2.667644183773216
2.591397849462365
2.506353861192571
2.412512218963832
2.3118279569892475
2.206256109481916
2.0987292277614857
1.992179863147605
1.8905180840664717
1.8064516129032255
1.7360703812316716
1.667644183773216
1.606060606060606
1.555229716520039
1.517106549364614
1.4897360703812317
1.4731182795698925
1.4643206256109482
1.4613880742913
1.4623655913978495
1.4643206256109482
1.4672531769305963
1.4711632453567938
1.474095796676442
1.4750733137829912
1.474095796676442
1.4721407624633431
1.469208211143695
1.4633431085043989
1.4545454545454546
1.4428152492668622
1.4291300097751711
1.4134897360703813
1.3958944281524928
1.3812316715542523
1.367546432062561
1.3519061583577712
1.335288367546432
1.316715542521994
1.2961876832844574
1.2746823069403714
1.2512218963831867
1.227761485826002
1.2043010752688172
1.1798631476050832
1.155425219941349
1.1368523949169111
1.121212121212121
1.1036168132942326
1.0840664711632453
1.064516129032258
1.0469208211143697
1.0332355816226784
1.0234604105571847
1.0175953079178883
1.018572825024438
1.029325513196481
1.0547409579667644
1.1016617790811338
1.1612903225806452
1.2404692082111437
1.356793743890518
1.509286412512219
1.6901270772238517
1.889540566959922
2.096774193548387
2.2981427174975564
2.482893450635386
2.641251221896383
2.76930596285435
2.8641251221896384
2.932551319648094
2.949169110459433
2.948191593352884
2.916911045943304
2.87683284457478
2.825024437927664
2.7624633431085046
2.689149560117302
2.6070381231671558
2.5161290322580645
2.4173998044965788
2.313782991202346
2.217986314760508
2.1280547409579667
2.03128054740958
1.9364613880742916
1.8484848484848484
1.7712609970674489
1.7057673509286413
1.6344086021505375
1.6021505376344083
1.5806451612903225
1.5650048875855327
1.564027370478983
1.565982404692082
1.5708699902248289
1.5777126099706744
1.5835777126099706
1.5884652981427174
1.5933528836754642
1.595307917888563
1.5962854349951123
1.5962854349951123
1.5943304007820136
1.5913978494623655
1.5884652981427174
1.5826001955034212
1.5728250244379276
1.560117302052786
1.5454545454545454
1.5288367546432062
1.5102639296187683
1.4887585532746823
1.4652981427174976
1.439882697947214
1.414467253176931
1.3900293255131966
1.370478983382209
1.3528836754643203
1.3196480938416422
1.2971652003910068
1.2766373411534702
1.2502443792766371
1.238514173998045
1.23069403714565
1.2267839687194526
1.2267839687194526
1.23069403714565
1.2404692082111437
1.2570869990224829
1.2854349951124144
1.3304007820136852
1.3978494623655917
1.4916911045943304
1.6148582600195502
1.7644183773216031
1.935483870967742
2.1192570869990224
2.304985337243402
2.4819159335288368
2.641251221896383
2.760508308895406
2.8475073313782997
2.9227761485826003
2.9765395894428157
3.006842619745845
3.0146627565982405
3.0
2.9667644183773216
2.918866080156403
2.857282502443793
2.782991202346041
2.6989247311827955
2.6158357771261
2.5317693059628543
2.4349951124144678
2.3304007820136854
2.222873900293255
2.117302052785924
2.016617790811339
1.924731182795699
1.8455522971652003
1.7781036168132942
1.7243401759530792
1.6852394916911049
1.6578690127077225
1.6412512218963833
1.6334310850439884
1.632453567937439
1.6373411534701858
1.64613880742913
1.656891495601173
1.667644183773216
1.678396871945259
1.6881720430107527
1.6959921798631477
1.7018572825024438
1.7028347996089932
1.7018572825024438
1.6979472140762464
1.6911045943304008
1.6823069403714566
1.6705767350928642
1.6559139784946235
1.6392961876832846
1.6207233626588464
1.6011730205278591
1.5806451612903225
1.560117302052786
1.5386119257087
1.517106549364614
1.499511241446725
1.482893450635386
1.4633431085043989
1.4428152492668622
1.4213098729227762
1.3978494623655917
1.3743890518084063
1.3519061583577712
1.3313782991202343
1.3118279569892473
1.2942326490713587
1.2805474095796676
1.2727272727272727
1.2697947214076246
1.267839687194526
1.2697947214076246
1.278592375366569
1.2991202346041055
1.3362658846529814
1.393939393939394
1.4760508308895406
1.5865102639296187
1.726295210166178
1.8914956011730208
2.074291300097752
2.2385141739980448
2.388074291300098
2.549364613880743
2.699902248289345
2.8289345063538613
2.929618768328446
3.0
3.0391006842619745
3.050830889540567
3.038123167155425
3.003910068426197
2.9530791788856305
2.8944281524926687
2.8289345063538613
2.7517106549364616
2.664711632453568
2.567937438905181
2.463343108504399
2.3528836754643208
2.2404692082111435
2.1300097751710654
2.0254154447702835
1.9296187683284456
1.8465298142717497
1.775171065493646
1.7223851417399805
1.6852394916911049
1.653958944281525
1.6304985337243405
1.6148582600195502
1.606060606060606
1.6021505376344083
1.6011730205278591
1.603128054740958
1.606060606060606
1.608993157380254
1.6109481915933528
1.611925708699902
1.611925708699902
1.608993157380254
1.6041055718475072
1.598240469208211
1.5894428152492668
1.5777126099706744
1.5620723362658846
1.544477028347996
1.5249266862170088
1.5024437927663734
1.478005865102639
1.4516129032258065
1.4291300097751711
1.4076246334310851
1.3812316715542523
1.3519061583577712
1.321603128054741
1.2903225806451613
1.2609970674486803
1.2336265884652982
1.2043010752688172
1.173998044965787
1.147605083088954
1.1241446725317692
1.10752688172043
1.096774193548387
1.0850439882697946
1.075268817204301
1.072336265884653
1.0801564027370478
1.1036168132942326
1.1495601173020529
1.2238514173998043
1.3284457478005864
1.4633431085043989
1.6256109481915937
1.8064516129032255
1.970674486803519
2.1221896383186705
2.2825024437927666
2.434017595307918
2.5650048875855327
2.668621700879765
2.740957966764418
2.782991202346041
2.7976539589442817
2.790811339198436
2.7653958944281527
2.7253176930596283
2.677419354838709
2.622678396871945
2.555229716520039
2.4789833822091887
2.3929618768328447
2.2981427174975564
2.1974584555229715
2.0928641251221896
1.9872922776148585
1.8836754643206255
1.7849462365591398
1.6959921798631477
1.616813294232649
1.5562072336265884
1.5112414467253177
1.4711632453567938
1.4389051808406648
1.4164222873900294
1.4037145650048877
1.3978494623655917
1.396871945259042
1.3988269794721409
1.401759530791789
1.404692082111437
1.4076246334310851
1.409579667644184
1.4105571847507332
1.4105571847507332
1.409579667644184
1.4056695992179864
1.3998044965786902
1.3900293255131966
1.3782991202346042
1.3636363636363635
1.3479960899315735
1.3313782991202343
1.3128054740957966
1.2961876832844574
1.281524926686217
1.2619745845552297
1.238514173998045
1.2130987292277615
1.1857282502443791
1.1564027370478984
1.1270772238514175
1.0977517106549364
1.0703812316715542
1.0449657869012707
1.021505376344086
1.0
0.9853372434017597
0.975562072336266
0.9657869012707724
0.9589442815249268
0.9560117302052786
0.959921798631476
0.975562072336266
1.0087976539589445
1.064516129032258
1.1485826001955035
1.2649071358748778
1.412512218963832
1.5591397849462365
1.7116324535679377
1.8944281524926687
2.086021505376344
2.271749755620724
2.4379276637341154
2.575757575757576
2.6823069403714563
2.755620723362659
2.798631476050831
2.814271749755621
2.8084066471163247
2.7839687194525906
2.748778103616813
2.7038123167155423
2.6480938416422286
2.581622678396872
2.505376344086021
2.420332355816227
2.3255131964809386
2.2238514173998043
2.117302052785924
2.007820136852395
1.900293255131965
1.7976539589442817
1.7145650048875856
1.6471163245356797
1.5835777126099706
1.5298142717497556
1.487781036168133
1.456500488758553
1.435972629521017
1.423264907135875
1.4173998044965788
1.414467253176931
1.414467253176931
1.4173998044965788
1.4213098729227762
1.4252199413489737
1.4291300097751711
1.43108504398827
1.4320625610948192
1.4301075268817205
1.4252199413489737
1.4193548387096775
1.4134897360703813
1.4056695992179864
1.396871945259042
1.3861192570869991
1.3734115347018572
1.3607038123167154
1.348973607038123
1.3343108504398826
1.316715542521994
1.2971652003910068
1.2756598240469208
1.2531769305962854
1.2297165200391007
1.2052785923753666
1.181818181818182
1.1573802541544478
1.133919843597263
1.1124144672531768
1.096774193548387
1.0850439882697946
1.072336265884653
1.0596285434995112
1.0498533724340176
1.0420332355816226
1.0381231671554252
1.0381231671554252
1.04594330400782
1.0654936461388074
1.1026392961876832
1.1622678396871946
1.2336265884652982
1.3235581622678396
1.4506353861192571
1.608993157380254
1.790811339198436
1.986314760508309
2.1847507331378297
2.375366568914956
2.547409579667644
2.6930596285435
2.807429130009776
2.8914956011730206
2.9472140762463344
2.9716520039100685
2.972629521016618
2.9589442815249267
2.9315738025415445
2.8914956011730206
2.838709677419355
2.776148582600196
2.701857282502444
2.6177908113391983
2.5239491691104594
2.4222873900293256
2.314760508308896
2.217986314760508
2.1270772238514173
2.0303030303030303
1.935483870967742
1.8494623655913975
1.7741935483870968
1.7126099706744868
1.664711632453568
1.6304985337243405
1.6080156402737047
1.5943304007820136
1.5894428152492668
1.5894428152492668
1.5933528836754642
1.6001955034213098
1.608993157380254
1.6177908113391983
1.6265884652981428
1.6334310850439884
1.6383186705767352
1.6412512218963833
1.6422287390029326
1.640273704789834
1.6344086021505375
1.6256109481915937
1.616813294232649
1.607038123167155
1.5933528836754642
1.5757575757575757
1.5562072336265884
1.533724340175953
1.5102639296187683
1.4868035190615836
1.4604105571847508
1.434017595307918
1.4086021505376345
1.383186705767351
1.3587487781036167
1.3391984359726294
1.3225806451612905
1.303030303030303
1.281524926686217
1.2619745845552297
1.2434017595307918
1.2287390029325511
1.2179863147605083
1.2121212121212122
1.2111436950146628
1.2160312805474096
1.2287390029325511
1.2482893450635386
1.2776148582600195
1.3255131964809383
1.396871945259042
1.4946236559139785
1.619745845552297
1.7702834799608993
1.9393939393939397
2.117302052785924
2.294232649071359
2.4604105571847508
2.6070381231671558
2.727272727272727
2.8084066471163247
2.859237536656892
2.89345063538612
2.9071358748778104
2.900293255131965
2.874877810361681
2.832844574780059
2.776148582600196
2.70772238514174
2.6295210166177907
2.5425219941348973
2.4486803519061584
2.3597262952101663
2.271749755620724
2.1739980449657867
2.0733137829912023
1.975562072336266
1.884652981427175
1.804496578690127
1.7380254154447703
1.6842619745845553
1.6441837732160314
1.616813294232649
1.5992179863147604
1.590420332355816
1.5894428152492668
1.5923753665689149
1.598240469208211
1.6041055718475072
1.6109481915933528
1.616813294232649
1.6207233626588464
1.6226783968719452
1.6226783968719452
1.6207233626588464
1.6148582600195502
1.6050830889540566
1.5962854349951123
1.5865102639296187
1.5728250244379276
1.5542521994134897
1.533724340175953
1.512218963831867
1.490713587487781
1.4682306940371457
1.444770283479961
1.418377321603128
1.391006842619746
1.3616813294232648
1.3372434017595307
1.3157380254154447
1.2913000977517106
1.2649071358748778
1.2404692082111437
1.217008797653959
1.1945259042033236
1.173998044965787
1.1564027370478984
1.141739980449658
1.1300097751710656
1.1221896383186705
1.1202346041055715
1.126099706744868
1.142717497556207
1.1759530791788857
1.2326490713587488
1.3176930596285434
1.434017595307918
1.5796676441837731
1.7497556207233629
1.9345063538611929
2.121212121212121
2.2981427174975564
2.4565004887585533
2.575757575757576
2.66177908113392
2.7331378299120237
2.7810361681329425
2.8044965786901277
2.8054740957966766
2.7869012707722387
2.752688172043011
2.705767350928641
2.6480938416422286
2.5806451612903225
2.504398826979472
2.418377321603128
2.335288367546432
2.2531769305962857
2.1593352883675463
2.059628543499511
1.9589442815249267
1.86119257086999
1.7702834799608993
1.689149560117302
1.619745845552297
1.5620723362658846
1.5161290322580645
1.4819159335288368
1.4604105571847508
1.4486803519061584
1.4428152492668622
1.439882697947214
1.4408602150537635
1.4428152492668622
1.444770283479961
1.4467253176930597
1.447702834799609
1.4486803519061584
1.447702834799609
1.4457478005865103
1.4418377321603129
1.4379276637341154
1.434017595307918
1.4252199413489737
1.4134897360703813
1.3998044965786902
1.383186705767351
1.364613880742913
1.343108504398827
1.3186705767350928
1.29227761485826
1.2639296187683284
1.2336265884652982
1.209188660801564
1.1867057673509287
1.1612903225806452
1.1348973607038124
1.1094819159335287
1.0850439882697946
1.0625610948191593
1.0420332355816226
1.0234604105571847
1.0068426197458455
0.9941348973607038
0.9853372434017597
0.981427174975562
0.9843597262952102
0.997067448680352
1.0224828934506354
1.0654936461388074
1.1329423264907137
1.2287390029325511
1.3558162267839686
1.5112414467253177
1.6871945259042034
1.8758553274682308
2.064516129032258
2.244379276637341
2.3870967741935485
2.498533724340176
2.5992179863147604
2.678396871945259
2.7331378299120237
2.7624633431085046
2.768328445747801
2.755620723362659
2.7262952101661777
2.6832844574780057
2.6295210166177907
2.5650048875855327
2.490713587487781
2.4173998044965788
2.340175953079179
2.249266862170088
2.1495601173020527
2.0449657869012707
1.9403714565004888
1.8387096774193548
1.7429130009775171
1.6578690127077225
1.585532746823069
1.5268817204301075
1.4819159335288368
1.4535679374389052
1.436950146627566
1.426197458455523
1.4213098729227762
1.4213098729227762
1.4242424242424243
1.4291300097751711
1.4349951124144673
1.4408602150537635
1.4457478005865103
1.4486803519061584
1.4506353861192571
1.4506353861192571
1.4496578690127078
1.447702834799609
1.4437927663734116
1.4379276637341154
1.4301075268817205
1.4213098729227762
1.4105571847507332
1.396871945259042
1.3822091886608017
1.3665689149560116
1.348973607038123
1.3304007820136852
1.3147605083088951
1.300097751710655
1.2805474095796676
1.2580645161290325
1.2336265884652982
1.209188660801564
1.1857282502443791
1.164222873900293
1.144672531769306
1.1270772238514175
1.1124144672531768
1.1016617790811338
1.0948191593352885
1.093841642228739
1.0977517106549364
1.1055718475073313
1.121212121212121
1.1485826001955035
1.1925708699902249
1.2580645161290325
1.3499511241446724
1.4711632453567938
1.619745845552297
1.790811339198436
1.9765395894428155
2.142717497556207
2.294232649071359
2.4545454545454546
2.606060606060606
2.7370478983382207
2.841642228739003
2.917888563049853
2.9667644183773216
2.989247311827957
2.9902248289345064
2.972629521016618
2.9393939393939394
2.89247311827957
2.8377321603128056
2.776148582600196
2.7008797653958942
2.6158357771261
2.5210166177908118
2.419354838709677
2.3118279569892475
2.203323558162268
2.0977517106549364
1.997067448680352
1.905180840664712
1.826001955034213
1.7644183773216031
1.7174975562072337
1.6774193548387095
1.6471163245356797
1.6265884652981428
1.6158357771260996
1.611925708699902
1.6138807429130009
1.619745845552297
1.6314760508308896
1.64613880742913
1.6588465298142718
1.6695992179863148
1.6774193548387095
1.683284457478006
1.6871945259042034
1.6881720430107527
1.6871945259042034
1.6842619745845553
1.678396871945259
1.6686217008797657
1.6559139784946235
1.640273704789834
1.6236559139784943
1.6041055718475072
1.5865102639296187
1.5679374389051808
1.5454545454545454
1.521016617790811
1.4965786901270772
1.4731182795698925
1.4486803519061584
1.4252199413489737
1.4037145650048877
1.3841642228739004
1.3655913978494625
1.3479960899315735
1.3343108504398826
1.324535679374389
1.3157380254154447
1.3098729227761483
1.3079178885630498
1.310850439882698
1.3196480938416422
1.33822091886608
1.370478983382209
1.423264907135875
1.498533724340176
1.6001955034213098
1.7272727272727273
1.8533724340175952
1.9843597262952104
2.1417399804496577
2.30791788856305
2.4701857282502444
2.616813294232649
2.7419354838709675
2.8396871945259043
2.90811339198436
2.9501466275659824
2.9667644183773216
2.960899315738025
2.9393939393939394
2.903225806451613
2.854349951124145
2.793743890518084
2.7223851417399803
2.641251221896383
2.5513196480938416
2.4545454545454546
2.3528836754643208
2.2482893450635384
2.144672531769306
2.04594330400782
1.9550342130987293
1.8807429130009776
1.8201368523949168
1.7644183773216031
1.718475073313783
1.6842619745845553
1.6598240469208212
1.6441837732160314
1.6373411534701858
1.6363636363636365
1.6392961876832846
1.6451612903225807
1.651026392961877
1.656891495601173
1.6627565982404693
1.6686217008797657
1.6715542521994136
1.6705767350928642
1.667644183773216
1.66177908113392
1.6529814271749756
1.6412512218963833
1.6265884652981428
1.608993157380254
1.5884652981427174
1.565982404692082
1.5454545454545454
1.525904203323558
1.5024437927663734
1.4750733137829912
1.447702834799609
1.4193548387096775
1.3900293255131966
1.3607038123167154
1.332355816226784
1.3049853372434017
1.278592375366569
1.2541544477028348
1.2365591397849462
1.2228739002932552
1.2082111436950147
1.1945259042033236
1.1827956989247312
1.176930596285435
1.1798631476050832
1.1945259042033236
1.2258064516129032
1.2805474095796676
1.3626588465298142
1.4750733137829912
1.616813294232649
1.7556207233626588
1.8973607038123168
2.0625610948191597
2.232649071358749
2.3929618768328447
2.533724340175953
2.6480938416422286
2.7341153470185726
2.790811339198436
2.8211143695014664
2.827956989247312
2.8152492668621703
2.788856304985337
2.750733137829912
2.699902248289345
2.6373411534701856
2.5650048875855327
2.4819159335288368
2.3900293255131966
2.290322580645161
2.185728250244379
2.0772238514174
1.9696969696969695
1.866080156402737
1.7702834799608993
1.6930596285434996
1.6304985337243405
1.5718475073313782
