ppg
2.8826979472140764
2.8406647116324537
2.790811339198436
2.7341153470185726
2.677419354838709
2.622678396871945
2.5620723362658846
2.4995112414467253
2.4389051808406648
2.380254154447703
2.326490713587488
2.278592375366569
2.2346041055718477
2.196480938416422
2.164222873900293
2.134897360703812
2.1065493646138806
2.081133919843597
2.0576735092864125
2.0332355816226784
2.005865102639296
1.9765395894428155
1.945259042033236
1.913978494623656
1.881720430107527
1.8514173998044965
1.8211143695014664
1.7869012707722385
1.750733137829912
1.7194525904203324
1.6930596285434996
1.664711632453568
1.6363636363636365
1.608993157380254
1.5806451612903225
1.5503421309872922
1.521994134897361
1.495601173020528
1.4711632453567938
1.4496578690127078
1.4301075268817205
1.4115347018572826
1.3988269794721409
1.388074291300098
1.375366568914956
1.3577712609970674
1.3391984359726294
1.3235581622678396
1.3079178885630498
1.2932551319648091
1.2805474095796676
1.2688172043010753
1.2580645161290325
1.2473118279569892
1.2404692082111437
1.2355816226783969
1.227761485826002
1.217008797653959
1.203323558162268
1.1886608015640274
1.1749755620723363
1.1612903225806452
1.1495601173020529
1.1378299120234605
1.1241446725317692
1.110459433040078
1.0977517106549364
1.0918866080156402
1.0899315738025417
1.0869990224828934
1.0821114369501466
1.0772238514173995
1.0733137829912025
1.0742913000977516
1.083088954056696
1.1036168132942326
1.13880742913001
1.1935483870967742
1.270772238514174
1.35386119257087
1.4457478005865103
1.560117302052786
1.689149560117302
1.8299120234604105
1.975562072336266
2.117302052785924
2.2551319648093844
2.3870967741935485
2.50733137829912
2.6129032258064515
2.7038123167155423
2.76930596285435
2.8181818181818183
2.8699902248289346
2.916911045943304
2.95405669599218
2.981427174975562
3.0019550342130987
3.01564027370479
3.024437927663734
3.027370478983382
3.024437927663734
3.016617790811339
3.003910068426197
2.98435972629521
2.956989247311828
2.9227761485826003
2.8797653958944283
2.827956989247312
2.76930596285435
2.7067448680351904
2.644183773216031
2.582600195503421
2.52297165200391
2.464320625610948
2.407624633431085
2.3597262952101663
2.318670576735093
2.27761485826002
2.2355816226783967
2.1974584555229715
2.1652003910068425
2.1358748778103616
2.10850439882698
2.0791788856304985
2.048875855327468
2.0195503421309877
1.989247311827957
1.9579667644183771
1.9305962854349952
1.9042033235581624
1.873900293255132
1.8416422287390029
1.8084066471163245
1.7761485826001957
1.7429130009775171
1.7096774193548387
1.6774193548387095
1.6451612903225807
1.6138807429130009
1.5826001955034212
1.5571847507331378
1.5376344086021505
1.5190615835777126
1.499511241446725
1.478983382209189
1.4594330400782014
1.439882697947214
1.4193548387096775
1.3988269794721409
1.3773216031280548
1.356793743890518
1.33822091886608
1.3235581622678396
1.3147605083088951
1.3098729227761483
1.3020527859237536
1.29227761485826
1.2825024437927663
1.2727272727272727
1.2619745845552297
1.2512218963831867
1.241446725317693
1.2297165200391007
1.217008797653959
1.2052785923753666
1.198435972629521
1.1945259042033236
1.187683284457478
1.1788856304985338
1.1691104594330402
1.1593352883675463
1.1495601173020529
1.13880742913001
1.1290322580645162
1.1173020527859236
1.1055718475073313
1.0957966764418376
1.0899315738025417
1.0909090909090908
1.1006842619745845
1.118279569892473
1.1466275659824048
1.1915933528836755
1.2561094819159335
1.33822091886608
1.436950146627566
1.5513196480938416
1.6774193548387095
1.8113391984359728
1.949169110459433
2.069403714565005
2.177908113391984
2.294232649071359
2.409579667644184
2.515151515151515
2.608993157380254
2.6901270772238512
2.7565982404692084
2.809384164222874
2.8514173998044967
2.884652981427175
2.909090909090909
2.9266862170087977
2.935483870967742
2.9374389051808407
2.93841642228739
2.935483870967742
2.9266862170087977
2.9100684261974585
2.886608015640274
2.854349951124145
2.8152492668621703
2.768328445747801
2.7145650048875853
2.654936461388074
2.5972629521016617
2.5425219941348973
2.484848484848485
2.4271749755620724
2.3704789833822093
2.318670576735093
2.271749755620724
2.228739002932551
2.1915933528836757
2.160312805474096
2.1309872922776147
2.103616813294233
2.0762463343108504
2.0527859237536656
2.03128054740958
2.007820136852395
1.9804496578690127
1.951124144672532
1.920821114369501
1.8914956011730208
1.86119257086999
1.827956989247312
1.7927663734115349
1.7565982404692082
1.721407624633431
1.694037145650049
1.6695992179863148
1.6412512218963833
1.6138807429130009
1.587487781036168
1.5610948191593352
1.5376344086021505
1.5151515151515151
1.4936461388074291
1.4721407624633431
1.4506353861192571
1.43108504398827
1.4134897360703813
1.4007820136852396
1.391006842619746
1.3792766373411536
1.367546432062561
1.356793743890518
1.3450635386119256
1.332355816226784
1.3206256109481915
1.3098729227761483
1.3020527859237536
1.2961876832844574
1.2913000977517106
1.2883675464320623
1.2854349951124144
1.2746823069403714
1.2658846529814272
1.2561094819159335
1.2355816226783969
1.224828934506354
1.2150537634408602
1.2003910068426198
1.1945259042033236
1.1906158357771262
1.1906158357771262
1.1886608015640274
1.1867057673509287
1.1857282502443791
1.1837732160312806
1.1827956989247312
1.1857282502443791
1.1935483870967742
1.2267839687194526
1.2658846529814272
1.316715542521994
1.409579667644184
1.4946236559139785
1.5962854349951123
1.7116324535679377
1.8387096774193548
1.9726295210166176
2.1094819159335287
2.2453567937438903
2.3743890518084068
2.49266862170088
2.5972629521016617
2.689149560117302
2.755620723362659
2.803519061583578
2.849462365591398
2.889540566959922
2.921798631476051
2.945259042033236
2.960899315738025
2.970674486803519
2.973607038123167
2.9716520039100685
2.962854349951124
2.946236559139785
2.9237536656891496
2.8944281524926687
2.857282502443793
2.814271749755621
2.764418377321604
2.7126099706744866
2.658846529814272
2.6050830889540566
2.5532746823069403
2.5034213098729228
2.4565004887585533
2.4134897360703813
2.377321603128055
2.3489736070381237
2.32355816226784
2.3010752688172045
2.278592375366569
2.257086999022483
2.2355816226783967
2.21505376344086
2.1955034213098727
2.174975562072336
2.1515151515151514
2.1270772238514173
2.101661779081134
2.078201368523949
2.0547409579667644
2.0303030303030303
2.007820136852395
1.9843597262952104
1.959921798631476
1.932551319648094
1.905180840664712
1.8641251221896384
1.81524926686217
1.7790811339198436
1.7487781036168133
1.7243401759530792
1.7028347996089932
1.6793743890518085
1.656891495601173
1.635386119257087
1.6158357771260996
1.598240469208211
1.581622678396872
1.5650048875855327
1.5483870967741935
1.5347018572825024
1.52297165200391
1.5112414467253177
1.5034213098729228
1.4965786901270772
1.487781036168133
1.47702834799609
1.4643206256109482
1.4516129032258065
1.4379276637341154
1.4252199413489737
1.4115347018572826
1.3978494623655917
1.3841642228739004
1.3714565004887584
1.3607038123167154
1.3509286412512218
1.33822091886608
1.3235581622678396
1.3069403714565004
1.2883675464320623
1.267839687194526
1.2473118279569892
1.2258064516129032
1.2052785923753666
1.1886608015640274
1.1749755620723363
1.1652003910068427
1.164222873900293
1.173998044965787
1.195503421309873
1.2346041055718475
1.29227761485826
1.3685239491691104
1.4604105571847508
1.5669599217986314
1.6842619745845553
1.8084066471163245
1.9364613880742916
2.065493646138808
2.1739980449657867
2.2688172043010755
2.3685239491691106
2.462365591397849
2.547409579667644
2.6207233626588464
2.6803519061583576
2.7262952101661777
2.7595307917888565
2.782013685239492
2.7947214076246336
2.7996089931573804
2.7976539589442817
2.789833822091887
2.7781036168132944
2.764418377321604
2.7468230694037143
2.721407624633431
2.689149560117302
2.6510263929618767
2.6080156402737047
2.5591397849462365
2.50733137829912
2.4516129032258065
2.393939393939394
2.3421309872922778
2.294232649071359
2.2453567937438903
2.198435972629521
2.1544477028347995
2.114369501466276
2.080156402737048
2.0498533724340176
2.022482893450636
1.9980449657869013
1.9765395894428155
1.9560117302052784
1.935483870967742
1.916911045943304
1.8993157380254155
1.878787878787879
1.8533724340175952
1.826001955034213
1.7986314760508308
1.772238514173998
1.7438905180840665
1.7135874877810362
1.683284457478006
1.653958944281525
1.6226783968719452
1.5962854349951123
1.5757575757575757
1.5513196480938416
1.525904203323558
1.5024437927663734
1.479960899315738
1.4594330400782014
1.4408602150537635
1.4222873900293256
1.4037145650048877
1.383186705767351
1.3626588465298142
1.3411534701857282
1.3225806451612905
1.3079178885630498
1.2942326490713587
1.281524926686217
1.2697947214076246
1.2580645161290325
1.2482893450635386
1.2394916911045943
1.2316715542521994
1.2228739002932552
1.2130987292277615
1.203323558162268
1.1974584555229717
1.1915933528836755
1.181818181818182
1.1710654936461389
1.160312805474096
1.1495601173020529
1.13880742913001
1.1300097751710656
1.1231671554252198
1.1163245356793745
1.110459433040078
1.104594330400782
1.0977517106549364
1.0928641251221896
1.088954056695992
1.083088954056696
1.078201368523949
1.0742913000977516
1.0742913000977516
1.0850439882697946
1.1085043988269794
1.1466275659824048
1.2052785923753666
1.284457478005865
1.3861192570869991
1.487781036168133
1.5933528836754642
1.7243401759530792
1.871945259042033
2.026392961876833
2.1788856304985336
2.324535679374389
2.462365591397849
2.589442815249267
2.702834799608993
2.8025415444770285
2.886608015640274
2.956989247311828
3.005865102639296
3.040078201368524
3.0733137829912023
3.101661779081134
3.124144672531769
3.1407624633431084
3.1544477028347995
3.1652003910068425
3.1700879765395893
3.16911045943304
3.160312805474096
3.1436950146627565
3.1192570869990224
3.0869990224828934
3.046920821114369
2.9980449657869013
2.941348973607038
2.878787878787879
2.8103616813294234
2.7390029325513194
2.6666666666666665
2.5972629521016617
2.5317693059628543
2.469208211143695
2.410557184750733
2.361681329423265
2.3196480938416424
2.280547409579668
2.2453567937438903
2.2111436950146626
2.177908113391984
2.146627565982405
2.117302052785924
2.089931573802541
2.060606060606061
2.029325513196481
1.9960899315738023
1.9667644183773216
1.9403714565004888
1.9100684261974583
1.8748778103616808
1.836754643206256
1.7986314760508308
1.761485826001955
1.7233626588465298
1.686217008797654
1.6500488758553276
1.6158357771260996
1.5826001955034212
1.555229716520039
1.530791788856305
1.5024437927663734
1.4760508308895406
1.4535679374389052
1.43108504398827
1.4105571847507332
1.391006842619746
1.370478983382209
1.3509286412512218
1.3313782991202343
1.3128054740957966
1.2961876832844574
1.2864125122189638
1.2805474095796676
1.2717497556207231
1.2609970674486803
1.2482893450635386
1.2365591397849462
1.2228739002932552
1.2082111436950147
1.1925708699902249
1.1759530791788857
1.1593352883675463
1.142717497556207
1.1319648093841643
1.1251221896383188
1.1173020527859236
1.1094819159335287
1.1006842619745845
1.0909090909090908
1.0791788856304985
1.067448680351906
1.056695992179863
1.04594330400782
1.0361681329423265
1.0273704789833822
1.0234604105571847
1.0283479960899315
1.0439882697947214
1.0654936461388074
1.0987292277614855
1.152492668621701
1.2287390029325511
1.3235581622678396
1.4330400782013686
1.555229716520039
1.6871945259042034
1.8211143695014664
1.9530791788856303
2.065493646138808
2.1652003910068425
2.269794721407625
2.36950146627566
2.4613880742913
2.541544477028348
2.610948191593353
2.670576735092864
2.721407624633431
2.7624633431085046
2.7947214076246336
2.819159335288368
2.8367546432062563
2.8426197458455524
2.8406647116324537
2.8367546432062563
2.827956989247312
2.8152492668621703
2.7976539589442817
2.7751710654936463
2.745845552297165
2.708699902248289
2.664711632453568
2.6129032258064515
2.5542521994134897
2.4975562072336266
2.4408602150537635
2.380254154447703
2.320625610948192
2.2639296187683287
2.210166177908113
2.1622678396871944
2.118279569892473
2.0791788856304985
2.04594330400782
2.016617790811339
1.9902248289345064
1.963831867057673
1.9413489736070384
1.919843597262952
1.895405669599218
1.868035190615836
1.839687194525904
1.8103616813294232
1.7810361681329423
1.7497556207233629
1.718475073313783
1.6871945259042034
1.653958944281525
1.619745845552297
1.5913978494623655
1.5669599217986314
1.5395894428152492
1.5112414467253177
1.4838709677419355
1.457478005865103
1.4330400782013686
1.4105571847507332
1.3900293255131966
1.3685239491691104
1.3470185728250244
1.3264907135874875
1.3049853372434017
1.289345063538612
1.2756598240469208
1.2590420332355816
1.2424242424242424
1.2287390029325511
1.217008797653959
1.206256109481916
1.195503421309873
1.18475073313783
1.1749755620723363
1.1652003910068427
1.155425219941349
1.1485826001955035
1.142717497556207
1.133919843597263
1.1231671554252198
1.1114369501466277
1.1016617790811338
1.093841642228739
1.086021505376344
1.0762463343108504
1.0664711632453567
1.056695992179863
1.0449657869012707
1.0312805474095796
1.021505376344086
1.0146627565982405
1.0039100684261977
0.9921798631476052
0.9824046920821116
0.9745845552297164
0.9726295210166178
0.9794721407624634
0.997067448680352
1.0312805474095796
1.0840664711632453
1.1564027370478984
1.2326490713587488
1.3147605083088951
1.4164222873900294
1.5327468230694037
1.6608015640273706
1.7947214076246334
1.927663734115347
2.0576735092864125
2.1808406647116323
2.2932551319648096
2.3929618768328447
2.479960899315738
2.5532746823069403
2.6041055718475072
2.6392961876832843
2.673509286412512
2.702834799608993
2.727272727272727
2.748778103616813
2.7653958944281527
2.776148582600196
2.779081133919844
2.776148582600196
2.766373411534702
2.7497556207233624
2.7253176930596283
2.6930596285435
2.653958944281525
2.6099706744868034
2.560117302052786
2.506353861192571
2.449657869012708
2.3929618768328447
2.3382209188660803
2.2873900293255134
2.2404692082111435
2.1974584555229715
2.157380254154448
2.12316715542522
2.093841642228739
2.067448680351906
2.0449657869012707
2.0254154447702835
2.006842619745845
1.9872922776148585
1.964809384164223
1.9413489736070384
1.916911045943304
1.8934506353861196
1.870967741935484
1.8514173998044965
1.8328445747800584
1.8103616813294232
1.7859237536656891
1.758553274682307
1.7311827956989247
1.7057673509286413
1.6803519061583578
1.653958944281525
1.6275659824046922
1.6011730205278591
1.576735092864125
1.5581622678396871
1.543499511241447
1.525904203323558
1.5073313782991202
1.490713587487781
1.474095796676442
1.456500488758553
1.4389051808406648
1.4222873900293256
1.4076246334310851
1.396871945259042
1.3861192570869991
1.3763440860215057
1.3714565004887584
1.3685239491691104
1.364613880742913
1.3607038123167154
1.3558162267839686
1.3509286412512218
1.3450635386119256
1.3372434017595307
1.3294232649071358
1.321603128054741
1.3128054740957966
1.3020527859237536
1.2942326490713587
1.2873900293255132
1.2795698924731185
1.270772238514174
1.2609970674486803
1.2541544477028348
1.249266862170088
1.2473118279569892
1.24633431085044
1.2453567937438903
1.2453567937438903
1.2453567937438903
1.24633431085044
1.2512218963831867
1.2639296187683284
1.2864125122189638
1.3225806451612905
1.3743890518084063
1.4428152492668622
1.5278592375366569
1.6265884652981428
1.7350928641251222
1.8523949169110456
1.9765395894428155
2.101661779081134
2.207233626588465
2.300097751710655
2.398826979472141
2.4946236559139785
2.582600195503421
2.658846529814272
2.720430107526881
2.768328445747801
2.8054740957966766
2.8299120234604107
2.844574780058651
2.8514173998044967
2.850439882697948
2.8396871945259043
2.823069403714565
2.803519061583578
2.780058651026393
2.752688172043011
2.718475073313783
2.679374389051808
2.635386119257087
2.5855327468230693
2.5317693059628543
2.4750733137829912
2.4164222873900294
2.363636363636364
2.3167155425219943
2.269794721407625
2.2248289345063537
2.1837732160312804
2.146627565982405
2.113391984359726
2.083088954056696
2.0557184750733137
2.0518084066471163
2.060606060606061
2.0518084066471163
2.03128054740958
2.006842619745845
1.981427174975562
1.9501466275659824
1.9130009775171064
1.873900293255132
1.8347996089931573
1.7976539589442817
1.7605083088954057
1.721407624633431
1.6823069403714566
1.64613880742913
1.611925708699902
1.58455522971652
1.560117302052786
1.5327468230694037
1.504398826979472
1.47702834799609
1.4496578690127078
1.4222873900293256
1.392961876832845
1.3636363636363635
1.3372434017595307
1.313782991202346
1.2913000977517106
1.270772238514174
1.2561094819159335
1.2434017595307918
1.2267839687194526
1.2082111436950147
1.1896383186705768
1.1730205278592376
1.1573802541544478
1.144672531769306
1.133919843597263
1.126099706744868
1.1173020527859236
1.1065493646138806
1.1006842619745845
1.096774193548387
1.0869990224828934
1.0742913000977516
1.0596285434995112
1.0469208211143697
1.0381231671554252
1.0312805474095796
1.0234604105571847
1.0146627565982405
1.0039100684261977
0.9931573802541545
0.9833822091886608
0.9775171065493646
0.9745845552297164
0.9716520039100685
0.9716520039100685
0.9765395894428152
0.9912023460410556
1.0195503421309873
1.0635386119257086
1.1280547409579669
1.2140762463343109
1.3186705767350928
1.4379276637341154
1.5513196480938416
1.6666666666666667
1.8025415444770283
1.945259042033236
2.0869990224828934
2.2238514173998043
2.350928641251222
2.466275659824047
2.56891495601173
2.656891495601173
2.730205278592375
2.793743890518084
2.8475073313782997
2.886608015640274
2.913978494623656
2.9393939393939394
2.960899315738025
2.978494623655914
2.991202346041056
2.9980449657869013
2.997067448680352
2.9902248289345064
2.975562072336266
2.95405669599218
2.9266862170087977
2.8944281524926687
2.8563049853372435
2.809384164222874
2.7546432062561097
2.6940371456500487
2.632453567937439
2.5698924731182795
2.5083088954056696
2.4486803519061584
2.391006842619746
2.3391984359726297
2.2932551319648096
2.2531769305962857
2.219941348973607
2.190615835777126
2.161290322580645
2.132942326490713
2.10850439882698
2.086021505376344
2.06158357771261
2.0332355816226784
2.0009775171065494
1.967741935483871
1.9345063538611929
1.8993157380254155
1.869012707722385
1.8406647116324533
1.8093841642228736
1.7771260997067448
1.7419354838709675
1.7057673509286413
1.6705767350928642
1.6373411534701858
1.6050830889540566
1.5757575757575757
1.5483870967741935
1.521016617790811
1.499511241446725
1.482893450635386
1.4652981427174976
1.4457478005865103
1.4252199413489737
1.404692082111437
1.3851417399804498
1.367546432062561
1.3499511241446724
1.3313782991202343
1.3157380254154447
1.3020527859237536
1.2903225806451613
1.2834799608993157
1.278592375366569
1.270772238514174
1.260019550342131
1.2473118279569892
1.2326490713587488
1.2179863147605083
1.2023460410557183
1.1867057673509287
1.1720430107526882
1.1583577712609971
1.1466275659824048
1.1407624633431086
1.1378299120234605
1.1319648093841643
1.1241446725317692
1.1133919843597262
1.1006842619745845
1.088954056695992
1.0801564027370478
1.0733137829912025
1.0694037145650048
1.0703812316715542
1.0772238514173995
1.093841642228739
1.118279569892473
1.152492668621701
1.2043010752688172
1.2746823069403714
1.364613880742913
1.474095796676442
1.598240469208211
1.7341153470185728
1.8778103616813293
2.024437927663734
2.167155425219941
2.302052785923754
2.4115347018572826
2.5034213098729228
2.5962854349951123
2.6823069403714563
2.757575757575758
2.823069403714565
2.87683284457478
2.920821114369501
2.956989247311828
2.986314760508309
3.0087976539589443
3.024437927663734
3.034213098729228
3.0332355816226784
3.026392961876833
3.0175953079178885
3.003910068426197
2.98435972629521
2.956989247311828
2.9237536656891496
2.8826979472140764
2.831867057673509
2.773216031280548
2.708699902248289
2.641251221896383
2.578690127077224
2.5210166177908118
2.463343108504399
2.407624633431085
2.356793743890518
2.3088954056695994
2.2639296187683287
2.2218963831867056
2.1837732160312804
2.1495601173020527
2.1192570869990224
2.090909090909091
2.0635386119257086
2.040078201368524
2.016617790811339
1.989247311827957
1.959921798631476
1.927663734115347
1.8914956011730208
1.855327468230694
1.8201368523949168
1.7849462365591398
1.7487781036168133
1.7145650048875856
1.6823069403714566
1.653958944281525
1.629521016617791
1.6021505376344083
1.5757575757575757
1.5483870967741935
1.520039100684262
1.4936461388074291
1.4701857282502444
1.447702834799609
1.426197458455523
1.404692082111437
1.3841642228739004
1.3626588465298142
1.346041055718475
1.3304007820136852
1.313782991202346
1.2991202346041055
1.2864125122189638
1.2746823069403714
1.2639296187683284
1.2531769305962854
1.2424242424242424
1.2316715542521994
1.2209188660801564
1.209188660801564
1.2003910068426198
1.1935483870967742
1.1827956989247312
1.176930596285435
1.1730205278592376
1.1652003910068427
1.1573802541544478
1.1485826001955035
1.1378299120234605
1.1270772238514175
1.115347018572825
1.1016617790811338
1.0879765395894427
1.078201368523949
1.0733137829912025
1.0684261974584557
1.0654936461388074
1.0684261974584557
1.078201368523949
1.099706744868035
1.1348973607038124
1.1867057673509287
1.2580645161290325
1.346041055718475
1.447702834799609
1.5483870967741935
1.6520039100684265
1.7741935483870968
1.906158357771261
2.040078201368524
2.1710654936461387
2.294232649071359
2.407624633431085
2.509286412512219
2.5962854349951123
2.6695992179863146
2.729227761485826
2.776148582600196
2.807429130009776
2.827956989247312
2.8475073313782997
2.863147605083089
2.874877810361681
2.8826979472140764
2.884652981427175
2.881720430107527
2.8729227761485827
2.854349951124145
2.8260019550342133
2.790811339198436
2.7517106549364616
2.70772238514174
2.656891495601173
2.601173020527859
2.5425219941348973
2.4838709677419355
2.4271749755620724
2.372434017595308
2.321603128054741
2.275659824046921
2.2355816226783967
2.20039100684262
2.167155425219941
2.1388074291300097
2.115347018572825
2.090909090909091
2.065493646138808
2.040078201368524
2.0146627565982405
1.989247311827957
1.962854349951124
1.9345063538611929
1.905180840664712
1.8748778103616808
1.844574780058651
1.8201368523949168
1.7986314760508308
1.7761485826001957
1.7517106549364614
1.7272727272727273
1.7008797653958945
1.672531769305963
1.6451612903225807
1.6207233626588464
1.5962854349951123
1.5728250244379276
1.5503421309872922
1.5288367546432062
1.5112414467253177
1.4975562072336266
1.482893450635386
1.4682306940371457
1.4535679374389052
1.4379276637341154
1.423264907135875
1.4076246334310851
1.392961876832845
1.3773216031280548
1.3626588465298142
1.348973607038123
1.3391984359726294
1.3313782991202343
1.3235581622678396
1.316715542521994
1.3079178885630498
1.2991202346041055
1.2913000977517106
1.2834799608993157
1.2756598240469208
1.267839687194526
1.2619745845552297
1.2561094819159335
1.2531769305962854
1.2531769305962854
1.2512218963831867
1.2473118279569892
1.2424242424242424
1.2365591397849462
1.2297165200391007
1.2209188660801564
1.2121212121212122
1.203323558162268
1.198435972629521
1.1964809384164223
1.2023460410557183
1.217008797653959
1.241446725317693
1.2805474095796676
1.3362658846529814
1.4115347018572826
1.5024437927663734
1.6080156402737047
1.7282502443792769
1.8563049853372435
1.9872922776148585
2.118279569892473
2.2453567937438903
2.350928641251222
2.439882697947214
2.532746823069404
