ppg
1.2756598240469208
1.2717497556207231
1.2717497556207231
1.2727272727272727
1.2717497556207231
1.2697947214076246
1.2688172043010753
1.2688172043010753
1.2688172043010753
1.2688172043010753
1.2668621700879763
1.262952101661779
1.2580645161290325
1.2502443792766371
1.2404692082111437
1.2267839687194526
1.2052785923753666
1.181818181818182
1.1652003910068427
1.1691104594330402
1.2043010752688172
1.2825024437927663
1.409579667644184
1.5806451612903225
1.7859237536656891
2.0097751710654936
2.204301075268817
2.367546432062561
2.5210166177908118
2.641251221896383
2.719452590420332
2.755620723362659
2.752688172043011
2.719452590420332
2.665689149560117
2.601173020527859
2.532746823069404
2.466275659824047
2.4086021505376345
2.363636363636364
2.329423264907136
2.302052785923754
2.280547409579668
2.2629521016617797
2.2453567937438903
2.2248289345063537
2.198435972629521
2.1652003910068425
2.1221896383186705
2.071358748778104
2.01564027370479
1.963831867057673
1.9178885630498532
1.8729227761485825
1.8347996089931573
1.8025415444770283
1.7771260997067448
1.758553274682307
1.7438905180840665
1.732160312805474
1.721407624633431
1.710654936461388
1.6979472140762464
1.6813294232649072
1.6627565982404693
1.6422287390029326
1.6158357771260996
1.5835777126099706
1.547409579667644
1.5083088954056696
1.4701857282502444
1.434017595307918
1.396871945259042
1.3558162267839686
1.313782991202346
1.273704789833822
1.2424242424242424
1.2160312805474096
1.1886608015640274
1.160312805474096
1.1329423264907137
1.110459433040078
1.0918866080156402
1.0733137829912025
1.053763440860215
1.0361681329423265
1.021505376344086
1.007820136852395
0.997067448680352
0.9931573802541545
0.9941348973607038
0.9941348973607038
0.9941348973607038
1.0166177908113392
1.050830889540567
1.0684261974584557
1.0791788856304985
1.0879765395894427
1.0918866080156402
1.093841642228739
1.093841642228739
1.093841642228739
1.0918866080156402
1.083088954056696
1.067448680351906
1.0488758553274682
1.029325513196481
1.0166177908113392
1.0234604105571847
1.06158357771261
1.1397849462365592
1.2649071358748778
1.434017595307918
1.6383186705767352
1.8318670576735088
2.0127077223851417
2.203323558162268
2.375366568914956
2.512218963831867
2.606060606060606
2.656891495601173
2.6725317693059627
2.6578690127077222
2.621700879765396
2.5747800586510263
2.5249266862170088
2.4789833822091887
2.4379276637341154
2.403714565004888
2.3792766373411536
2.363636363636364
2.355816226783969
2.3519061583577714
2.345063538611926
2.333333333333333
2.313782991202346
2.2844574780058653
2.24633431085044
2.201368523949169
2.156402737047898
2.1114369501466275
2.064516129032258
2.0195503421309877
1.9804496578690127
1.948191593352884
1.9227761485826005
1.9042033235581624
1.89247311827957
1.8836754643206255
1.87683284457478
1.869012707722385
1.86119257086999
1.8533724340175952
1.8416422287390029
1.826001955034213
1.8064516129032255
1.7810361681329423
1.7517106549364614
1.7223851417399805
1.6920821114369502
1.66177908113392
1.6304985337243405
1.595307917888563
1.5591397849462365
1.5317693059628543
1.509286412512219
1.4858260019550342
1.4613880742913
1.436950146627566
1.4134897360703813
1.391006842619746
1.3714565004887584
1.3558162267839686
1.3440860215053765
1.335288367546432
1.3284457478005864
1.324535679374389
1.3255131964809383
1.3284457478005864
1.3313782991202343
1.3333333333333333
1.335288367546432
1.3401759530791788
1.348973607038123
1.3558162267839686
1.359726295210166
1.3616813294232648
1.3626588465298142
1.3626588465298142
1.3626588465298142
1.359726295210166
1.3528836754643203
1.3440860215053765
1.332355816226784
1.3157380254154447
1.2942326490713587
1.2756598240469208
1.267839687194526
1.2834799608993157
1.3343108504398826
1.4291300097751711
1.542521994134897
1.6823069403714566
1.8729227761485825
2.09188660801564
2.3167155425219943
2.5249266862170088
2.6989247311827955
2.8269794721407626
2.906158357771261
2.940371456500489
2.936461388074292
2.905180840664712
2.8563049853372435
2.801564027370479
2.7468230694037143
2.6881720430107525
2.632453567937439
2.5855327468230693
2.548387096774193
2.5210166177908118
2.5024437927663734
2.486803519061584
2.474095796676442
2.4594330400782014
2.4379276637341154
2.410557184750733
2.376344086021505
2.3313782991202348
2.278592375366569
2.219941348973607
2.158357771260997
2.099706744868035
2.048875855327468
2.004887585532747
1.970674486803519
1.945259042033236
1.9266862170087975
1.9149560117302051
1.906158357771261
1.8963831867057677
1.8826979472140764
1.866080156402737
1.847507331378299
1.8240469208211143
1.793743890518084
1.7595307917888563
1.7243401759530792
1.689149560117302
1.6520039100684265
1.6138807429130009
1.5796676441837731
1.5464320625610948
1.5083088954056696
1.469208211143695
1.4281524926686218
1.3900293255131966
1.35386119257087
1.3206256109481915
1.2903225806451613
1.2609970674486803
1.2326490713587488
1.2072336265884651
1.1906158357771262
1.1798631476050832
1.1681329423264908
1.160312805474096
1.1564027370478984
1.1544477028347997
1.1534701857282503
1.1544477028347997
1.1573802541544478
1.1612903225806452
1.1652003910068427
1.1671554252199414
1.1681329423264908
1.1710654936461389
1.173998044965787
1.1730205278592376
1.1691104594330402
1.166177908113392
1.1612903225806452
1.152492668621701
1.1378299120234605
1.121212121212121
1.10752688172043
1.104594330400782
1.1241446725317692
1.163245356793744
1.23069403714565
1.3470185728250244
1.5083088954056696
1.7057673509286413
1.9227761485826005
2.1388074291300097
2.3362658846529816
2.498533724340176
2.6158357771261
2.6852394916911044
2.710654936461388
2.699902248289345
2.6695992179863146
2.6265884652981426
2.5718475073313782
2.5131964809384164
2.4565004887585533
2.404692082111437
2.361681329423265
2.3284457478005867
2.302052785923754
2.283479960899316
2.269794721407625
2.2561094819159337
2.2404692082111435
2.222873900293255
2.19941348973607
2.1652003910068425
2.121212121212121
2.070381231671554
2.0146627565982405
1.956989247311828
1.903225806451613
1.858260019550342
1.8240469208211143
1.796676441837732
1.7761485826001957
1.7634408602150538
1.7565982404692082
1.750733137829912
1.7419354838709675
1.732160312805474
1.7204301075268815
1.704789833822092
1.6852394916911049
1.66177908113392
1.6344086021505375
1.603128054740958
1.5679374389051808
1.5376344086021505
1.5112414467253177
1.478983382209189
1.4428152492668622
1.4086021505376345
1.3763440860215057
1.346041055718475
1.3186705767350928
1.29227761485826
1.2658846529814272
1.2424242424242424
1.23069403714565
1.2267839687194526
1.2209188660801564
1.2140762463343109
1.2043010752688172
1.1935483870967742
1.18475073313783
1.1788856304985338
1.1759530791788857
1.1749755620723363
1.173998044965787
1.173998044965787
1.173998044965787
1.1749755620723363
1.1788856304985338
1.1867057673509287
1.195503421309873
1.2023460410557183
1.2072336265884651
1.2111436950146628
1.2130987292277615
1.2140762463343109
1.2121212121212122
1.2052785923753666
1.1974584555229717
1.1896383186705768
1.187683284457478
1.1964809384164223
1.2218963831867058
1.2776148582600195
1.3734115347018572
1.5131964809384164
1.6911045943304008
1.8963831867057677
2.112414467253177
2.3167155425219943
2.49266862170088
2.6295210166177907
2.724340175953079
2.7751710654936463
2.789833822091887
2.779081133919844
2.744868035190616
2.6940371456500487
2.635386119257087
2.5777126099706744
2.5249266862170088
2.479960899315738
2.444770283479961
2.419354838709677
2.403714565004888
2.3958944281524928
2.388074291300098
2.377321603128055
2.366568914956012
2.3528836754643208
2.3313782991202348
2.3010752688172045
2.26197458455523
2.218963831867057
2.1739980449657867
2.129032258064516
2.0869990224828934
2.0498533724340176
2.022482893450636
2.0019550342130987
1.9853372434017595
1.9736070381231672
1.964809384164223
1.9550342130987293
1.9423264907135875
1.9286412512218964
1.911045943304008
1.8885630498533723
1.8631476050830889
1.8318670576735088
1.7956989247311828
1.761485826001955
1.7302052785923754
1.696969696969697
1.66177908113392
1.624633431085044
1.587487781036168
1.5532746823069403
1.521016617790811
1.4897360703812317
1.4613880742913
1.4349951124144673
1.4115347018572826
1.3949169110459434
1.3822091886608017
1.3685239491691104
1.3548387096774193
1.3421309872922775
1.332355816226784
1.324535679374389
1.3186705767350928
1.313782991202346
1.3128054740957966
1.3147605083088951
1.3186705767350928
1.3235581622678396
1.3294232649071358
1.3372434017595307
1.3479960899315735
1.359726295210166
1.3695014662756595
1.3773216031280548
1.383186705767351
1.3861192570869991
1.3861192570869991
1.383186705767351
1.3763440860215057
1.3626588465298142
1.3479960899315735
1.335288367546432
1.3264907135874875
1.332355816226784
1.364613880742913
1.434017595307918
1.547409579667644
1.7028347996089932
1.8934506353861196
2.101661779081134
2.3088954056695994
2.496578690127077
2.635386119257087
2.7282502443792764
2.792766373411535
2.822091886608016
2.819159335288368
2.788856304985337
2.7370478983382207
2.6715542521994133
2.603128054740958
2.5386119257087
2.4809384164222874
2.432062561094819
2.3958944281524928
2.36950146627566
2.350928641251222
2.3391984359726297
2.329423264907136
2.318670576735093
2.302052785923754
2.2766373411534704
2.243401759530792
2.203323558162268
2.155425219941349
2.104594330400782
2.053763440860215
2.0117302052785924
1.978494623655914
1.9501466275659824
1.9266862170087975
1.9100684261974583
1.8993157380254155
1.89247311827957
1.8875855327468232
1.8826979472140764
1.8758553274682308
1.8670576735092863
1.857282502443793
1.844574780058651
1.83088954056696
1.8132942326490715
1.7878787878787878
1.7556207233626588
1.7223851417399805
1.6901270772238517
1.6559139784946235
1.6226783968719452
1.590420332355816
1.560117302052786
1.5327468230694037
1.5073313782991202
1.4887585532746823
1.4721407624633431
1.4535679374389052
1.434017595307918
1.4134897360703813
1.393939393939394
1.3763440860215057
1.3607038123167154
1.3479960899315735
1.33822091886608
1.3304007820136852
1.3235581622678396
1.3176930596285434
1.3147605083088951
1.3157380254154447
1.3186705767350928
1.3235581622678396
1.3294232649071358
1.3362658846529814
1.3450635386119256
1.3558162267839686
1.3655913978494625
1.3714565004887584
1.3743890518084063
1.3743890518084063
1.3743890518084063
1.3734115347018572
1.3665689149560116
1.3577712609970674
1.3528836754643203
1.359726295210166
1.3890518084066472
1.452590420332356
1.5562072336265884
1.7018572825024438
1.8836754643206255
2.0879765395894427
2.2961876832844577
2.4682306940371457
2.606060606060606
2.729227761485826
2.8181818181818183
2.8690127077223853
2.8826979472140764
2.868035190615836
2.832844574780059
2.7839687194525906
2.729227761485826
2.674486803519061
2.622678396871945
2.578690127077224
2.5434995112414467
2.5161290322580645
2.493646138807429
2.4780058651026398
2.464320625610948
2.449657869012708
2.43108504398827
2.4056695992179864
2.3743890518084068
2.337243401759531
2.290322580645161
2.239491691104594
2.193548387096774
2.1515151515151514
2.1094819159335287
2.072336265884653
2.042033235581622
2.0195503421309877
2.005865102639296
1.9980449657869013
1.992179863147605
1.9872922776148585
1.9824046920821117
1.9765395894428155
1.9696969696969695
1.959921798631476
1.9442815249266865
1.9237536656891496
1.900293255131965
1.858260019550342
1.8054740957966764
1.7595307917888563
1.7145650048875856
1.6705767350928642
1.6304985337243405
1.5943304007820136
1.5591397849462365
1.5298142717497556
1.5024437927663734
1.4731182795698925
1.4467253176930597
1.4193548387096775
1.391006842619746
1.364613880742913
1.3401759530791788
1.316715542521994
1.295210166177908
1.2776148582600195
1.2639296187683284
1.2570869990224829
1.2570869990224829
1.260019550342131
1.2639296187683284
1.2697947214076246
1.2776148582600195
1.284457478005865
1.2903225806451613
1.2942326490713587
1.2981427174975562
1.3010752688172045
1.303030303030303
1.3040078201368523
1.3040078201368523
1.3010752688172045
1.2942326490713587
1.2834799608993157
1.2697947214076246
1.2561094819159335
1.2482893450635386
1.2570869990224829
1.295210166177908
1.3724340175953078
1.4965786901270772
1.6666666666666667
1.8416422287390029
2.021505376344086
2.232649071358749
2.444770283479961
2.632453567937439
2.7810361681329425
2.8836754643206257
2.9374389051808407
2.949169110459433
2.9257086999022484
2.875855327468231
2.811339198435973
2.740957966764418
2.675464320625611
2.6129032258064515
2.552297165200391
2.501466275659824
2.4613880742913
2.432062561094819
2.409579667644184
2.3929618768328447
2.376344086021505
2.356793743890518
2.3313782991202348
2.2961876832844577
2.2580645161290325
2.2160312805474094
2.167155425219941
2.114369501466276
2.06158357771261
2.0127077223851417
1.9716520039100685
1.9393939393939397
1.9149560117302051
1.8973607038123168
1.8856304985337244
1.8758553274682308
1.8631476050830889
1.8504398826979471
1.836754643206256
1.8211143695014664
1.8035190615835777
1.7839687194525904
1.7595307917888563
1.7311827956989247
1.696969696969697
1.6588465298142718
1.6207233626588464
1.581622678396872
1.542521994134897
1.509286412512219
1.479960899315738
1.4467253176930597
1.412512218963832
1.3782991202346042
1.343108504398827
1.3069403714565004
1.273704789833822
1.2424242424242424
1.2140762463343109
1.1906158357771262
1.1700879765395895
1.155425219941349
1.1436950146627567
1.130987292277615
1.121212121212121
1.1143695014662756
1.1114369501466277
1.1094819159335287
1.1085043988269794
1.1085043988269794
1.1085043988269794
1.1094819159335287
1.1124144672531768
1.1173020527859236
1.1241446725317692
1.1300097751710656
1.1319648093841643
1.1300097751710656
1.1231671554252198
1.1094819159335287
1.0918866080156402
1.0742913000977516
1.067448680351906
1.0791788856304985
1.1202346041055715
1.2023460410557183
1.3049853372434017
1.434017595307918
1.6129032258064515
1.825024437927664
2.04594330400782
2.2580645161290325
2.4408602150537635
2.579667644183773
2.6715542521994133
2.717497556207233
2.7223851417399803
2.695014662756598
2.6471163245356792
2.590420332355816
2.530791788856305
2.4672531769305963
2.404692082111437
2.3499511241446727
2.3059628543499517
2.272727272727273
2.247311827956989
2.2277614858260018
2.2111436950146626
2.1925708699902247
2.1710654936461387
2.147605083088954
2.1192570869990224
2.0791788856304985
2.032258064516129
1.9824046920821117
1.9296187683284456
1.8778103616813293
1.8318670576735088
1.793743890518084
1.761485826001955
1.7360703812316716
1.7165200391006843
1.7008797653958945
1.689149560117302
1.678396871945259
1.667644183773216
1.6549364613880744
1.6412512218963833
1.6226783968719452
1.6001955034213098
1.5747800586510263
1.5464320625610948
1.5141739980449658
1.479960899315738
1.4457478005865103
1.4173998044965788
1.3919843597262953
1.3626588465298142
1.3304007820136852
1.2991202346041055
1.2697947214076246
1.2404692082111437
1.2121212121212122
1.18475073313783
1.1612903225806452
1.141739980449658
1.126099706744868
1.1173020527859236
1.1143695014662756
1.1143695014662756
1.1143695014662756
1.115347018572825
1.118279569892473
1.1231671554252198
1.1280547409579669
1.1358748778103618
1.1485826001955035
1.163245356793744
1.1788856304985338
1.195503421309873
1.2101661779081134
1.2218963831867058
1.23069403714565
1.2355816226783969
1.2346041055718475
1.2316715542521994
1.224828934506354
1.2101661779081134
1.1886608015640274
1.163245356793744
1.1397849462365592
1.126099706744868
1.1348973607038124
1.166177908113392
1.2287390029325511
1.3391984359726294
1.501466275659824
1.704789833822092
1.9335288367546437
2.1700879765395893
2.391006842619746
2.5806451612903225
2.727272727272727
2.8260019550342133
2.877810361681329
2.889540566959922
2.8729227761485827
2.835777126099707
2.782013685239492
2.719452590420332
2.6559139784946235
2.595307917888563
2.5405669599217986
2.496578690127077
2.463343108504399
2.439882697947214
2.4252199413489737
2.4164222873900294
2.406647116324536
2.3929618768328447
2.3734115347018574
2.347018572825025
2.313782991202346
2.271749755620724
2.222873900293255
2.1730205278592374
2.126099706744868
2.081133919843597
2.042033235581622
2.006842619745845
1.9794721407624636
1.962854349951124
1.95405669599218
1.951124144672532
1.948191593352884
1.9442815249266865
1.9393939393939397
1.932551319648094
1.9227761485826005
1.9071358748778104
1.8856304985337244
1.8602150537634408
1.83088954056696
1.804496578690127
1.7790811339198436
1.7487781036168133
1.7145650048875856
1.678396871945259
1.6422287390029326
1.606060606060606
1.5718475073313782
1.5405669599217986
1.509286412512219
1.4809384164222874
1.455522971652004
1.435972629521017
1.4193548387096775
1.4007820136852396
1.380254154447703
1.3616813294232648
1.3470185728250244
1.3343108504398826
1.324535679374389
1.3176930596285434
1.3128054740957966
1.3098729227761483
1.3079178885630498
1.3069403714565004
1.3079178885630498
1.310850439882698
1.3147605083088951
1.3186705767350928
1.3206256109481915
1.321603128054741
1.3206256109481915
1.3157380254154447
1.3049853372434017
1.2873900293255132
1.2658846529814272
1.2453567937438903
1.2336265884652982
1.2355816226783969
1.2580645161290325
1.3128054740957966
1.4105571847507332
1.5513196480938416
1.729227761485826
1.9345063538611929
2.146627565982405
2.345063538611926
2.5131964809384164
2.6392961876832843
2.717497556207233
2.750733137829912
2.7497556207233624
2.721407624633431
2.670576735092864
2.6050830889540566
2.533724340175953
2.4613880742913
2.3929618768328447
2.333333333333333
2.2844574780058653
2.2453567937438903
2.2130987292277613
2.187683284457478
2.167155425219941
2.147605083088954
2.1251221896383186
2.0977517106549364
2.0635386119257086
2.022482893450636
1.9765395894428155
1.9286412512218964
1.881720430107527
1.839687194525904
1.804496578690127
1.780058651026393
1.7644183773216031
1.75366568914956
1.7487781036168133
1.7458455522971652
1.7448680351906158
1.7409579667644184
1.7341153470185728
1.7253176930596286
1.7126099706744868
1.6950146627565983
1.672531769305963
1.64613880742913
1.6207233626588464
1.5943304007820136
1.5620723362658846
1.525904203323558
1.487781036168133
1.4496578690127078
1.4115347018572826
1.3734115347018572
1.3372434017595307
1.3010752688172045
1.2668621700879763
1.2365591397849462
1.2130987292277615
1.1935483870967742
1.1710654936461389
1.1505376344086022
1.1329423264907137
1.1192570869990224
1.1065493646138806
1.0948191593352885
1.0840664711632453
1.0733137829912025
1.0654936461388074
1.06158357771261
1.0596285434995112
1.0625610948191593
1.0694037145650048
1.075268817204301
1.0801564027370478
1.0850439882697946
1.0899315738025417
1.0928641251221896
1.093841642228739
1.0948191593352885
1.0948191593352885
1.093841642228739
1.088954056695992
1.0850439882697946
1.0801564027370478
1.0713587487781036
1.0654936461388074
1.0733137829912025
1.1065493646138806
1.1759530791788857
1.2883675464320623
1.4428152492668622
1.6344086021505375
1.8494623655913975
2.069403714565005
2.275659824046921
2.434017595307918
2.549364613880743
2.641251221896383
2.697947214076246
2.716520039100684
2.701857282502444
2.66177908113392
2.6070381231671558
2.5454545454545454
2.484848484848485
2.4301075268817205
2.3841642228739004
2.347996089931574
2.321603128054741
2.304007820136853
2.29227761485826
2.2844574780058653
2.275659824046921
2.264907135874878
2.247311827956989
2.219941348973607
2.182795698924731
2.1388074291300097
2.089931573802541
2.0410557184750733
2.0
1.964809384164223
1.9305962854349952
1.903225806451613
1.8807429130009776
1.8641251221896384
1.8533724340175952
1.8455522971652003
1.8387096774193548
1.83088954056696
1.8211143695014664
1.8074291300097751
1.7956989247311828
1.782991202346041
1.7653958944281525
1.7448680351906158
1.7194525904203324
1.6901270772238517
1.6608015640273706
1.6334310850439884
1.603128054740958
1.5718475073313782
1.5405669599217986
1.5083088954056696
1.47702834799609
1.4506353861192571
1.4271749755620724
1.3988269794721409
1.3685239491691104
1.3372434017595307
1.3079178885630498
1.2825024437927663
1.260019550342131
1.241446725317693
1.2238514173998043
1.209188660801564
1.1994134897360704
1.1945259042033236
1.1945259042033236
1.2003910068426198
1.2111436950146628
1.227761485826002
1.249266862170088
1.2717497556207231
1.2942326490713587
1.3147605083088951
1.3313782991202343
1.3440860215053765
1.3519061583577712
1.3528836754643203
1.3509286412512218
1.3450635386119256
1.3284457478005864
1.3049853372434017
1.2834799608993157
1.2717497556207231
1.2756598240469208
1.3069403714565004
1.3792766373411536
1.500488758553275
1.6705767350928642
1.878787878787879
2.074291300097752
2.260019550342131
2.4613880742913
2.644183773216031
2.788856304985337
2.8836754643206257
2.9286412512218964
2.929618768328446
2.8944281524926687
2.834799608993157
2.7595307917888565
2.677419354838709
2.5972629521016617
2.5268817204301075
2.469208211143695
2.418377321603128
2.376344086021505
2.3440860215053765
2.310850439882698
2.2795698924731185
2.254154447702835
2.228739002932551
2.1974584555229715
2.1593352883675463
2.115347018572825
2.071358748778104
2.0254154447702835
1.9765395894428155
1.9296187683284456
1.8875855327468232
1.8533724340175952
1.8269794721407624
1.8084066471163245
1.796676441837732
1.7878787878787878
1.7810361681329423
1.775171065493646
1.7683284457478006
1.7595307917888563
1.7468230694037146
1.729227761485826
1.7057673509286413
1.675464320625611
1.6412512218963833
1.606060606060606
1.5679374389051808
1.5278592375366569
1.4868035190615836
1.4457478005865103
1.4037145650048877
1.3685239491691104
1.33822091886608
1.305962854349951
1.2727272727272727
1.2404692082111437
1.2111436950146628
1.1827956989247312
1.1573802541544478
1.1368523949169111
1.121212121212121
1.10752688172043
1.0957966764418376
1.088954056695992
1.0840664711632453
1.0772238514173995
1.0713587487781036
1.067448680351906
1.0654936461388074
1.064516129032258
1.0635386119257086
1.064516129032258
1.0694037145650048
1.075268817204301
1.0811339198435972
1.0850439882697946
1.0899315738025417
1.0948191593352885
1.0957966764418376
1.0928641251221896
1.083088954056696
1.067448680351906
1.050830889540567
1.0371456500488758
1.0371456500488758
1.06158357771261
1.121212121212121
1.224828934506354
1.346041055718475
1.4897360703812317
1.6764418377321604
1.8866080156402736
2.099706744868035
2.29227761485826
2.447702834799609
2.558162267839687
2.622678396871945
2.6451612903225805
2.631476050830889
2.592375366568915
2.536656891495601
2.4789833822091887
2.4222873900293256
2.363636363636364
2.3088954056695994
2.26197458455523
2.222873900293255
2.193548387096774
2.172043010752688
2.1544477028347995
2.1378299120234603
2.1221896383186705
2.103616813294233
2.0821114369501466
2.0557184750733137
2.018572825024438
1.975562072336266
1.9286412512218964
1.8807429130009776
1.835777126099707
1.7986314760508308
1.772238514173998
1.7565982404692082
1.7487781036168133
1.7448680351906158
1.7438905180840665
1.7448680351906158
1.7438905180840665
1.7390029325513197
1.7302052785923754
1.7165200391006843
1.696969696969697
1.6715542521994136
1.6412512218963833
1.6080156402737047
1.573802541544477
1.5376344086021505
1.501466275659824
1.4711632453567938
1.4457478005865103
1.4173998044965788
1.3900293255131966
1.3655913978494625
1.343108504398827
1.321603128054741
1.3040078201368523
1.29227761485826
1.284457478005865
1.2776148582600195
1.2727272727272727
1.2688172043010753
1.2668621700879763
