ppg
1.3411534701857282
1.3411534701857282
1.3401759530791788
1.3372434017595307
1.332355816226784
1.3264907135874875
1.3196480938416422
1.3118279569892473
1.3020527859237536
1.2913000977517106
1.2795698924731185
1.2668621700879763
1.2570869990224829
1.2482893450635386
1.2355816226783969
1.2218963831867058
1.2082111436950147
1.1945259042033236
1.1808406647116323
1.1671554252199414
1.1534701857282503
1.1407624633431086
1.1290322580645162
1.1173020527859236
1.1094819159335287
1.1036168132942326
1.096774193548387
1.0899315738025417
1.0840664711632453
1.0791788856304985
1.0742913000977516
1.0694037145650048
1.064516129032258
1.0586510263929618
1.050830889540567
1.043010752688172
1.0381231671554252
1.043010752688172
1.06158357771261
1.104594330400782
1.1808406647116323
1.2961876832844574
1.4516129032258065
1.640273704789834
1.8514173998044965
2.069403714565005
2.27761485826002
2.464320625610948
2.619745845552297
2.727272727272727
2.798631476050831
2.8514173998044967
2.8826979472140764
2.89247311827957
2.884652981427175
2.86217008797654
2.8269794721407626
2.7839687194525906
2.7331378299120237
2.67644183773216
2.613880742913001
2.5464320625610948
2.4809384164222874
2.4144672531769307
2.3391984359726297
2.2580645161290325
2.1730205278592374
2.085043988269794
1.997067448680352
1.9100684261974583
1.826001955034213
1.7468230694037146
1.6744868035190617
1.6080156402737047
1.555229716520039
1.5131964809384164
1.4731182795698925
1.4379276637341154
1.4086021505376345
1.3861192570869991
1.370478983382209
1.359726295210166
1.35386119257087
1.3509286412512218
1.348973607038123
1.3479960899315735
1.346041055718475
1.3450635386119256
1.3440860215053765
1.3411534701857282
1.335288367546432
1.327468230694037
1.3176930596285434
1.3069403714565004
1.2942326490713587
1.2805474095796676
1.2658846529814272
1.2512218963831867
1.2365591397849462
1.224828934506354
1.2140762463343109
1.2013685239491692
1.1867057673509287
1.1720430107526882
1.1573802541544478
1.1436950146627567
1.1319648093841643
1.1202346041055715
1.1094819159335287
1.1006842619745845
1.0918866080156402
1.0850439882697946
1.0811339198435972
1.0801564027370478
1.0772238514173995
1.0742913000977516
1.0713587487781036
1.0664711632453567
1.0606060606060606
1.0527859237536656
1.0478983382209188
1.050830889540567
1.0713587487781036
1.1202346041055715
1.1867057673509287
1.2805474095796676
1.4252199413489737
1.611925708699902
1.827956989247312
2.056695992179863
2.2795698924731185
2.4819159335288368
2.6529814271749754
2.787878787878788
2.8856304985337244
2.949169110459433
2.9824046920821115
2.988269794721408
2.975562072336266
2.951124144672532
2.9159335288367547
2.870967741935484
2.819159335288368
2.760508308895406
2.696969696969697
2.627565982404692
2.5532746823069403
2.4731182795698925
2.389051808406647
2.3098729227761488
2.232649071358749
2.147605083088954
2.058651026392962
1.9696969696969695
1.8836754643206255
1.801564027370479
1.726295210166178
1.6588465298142718
1.5992179863147604
1.547409579667644
1.5034213098729228
1.4682306940371457
1.4437927663734116
1.4271749755620724
1.4134897360703813
1.4027370478983383
1.3958944281524928
1.391006842619746
1.3870967741935485
1.3841642228739004
1.3812316715542523
1.3782991202346042
1.3734115347018572
1.3665689149560116
1.3616813294232648
1.356793743890518
1.348973607038123
1.33822091886608
1.3264907135874875
1.313782991202346
1.300097751710655
1.2864125122189638
1.2717497556207231
1.2570869990224829
1.2424242424242424
1.227761485826002
1.2130987292277615
1.203323558162268
1.195503421309873
1.18475073313783
1.173998044965787
1.1622678396871946
1.1515151515151516
1.141739980449658
1.1319648093841643
1.1221896383186705
1.1133919843597262
1.1065493646138806
1.1006842619745845
1.0987292277614855
1.0987292277614855
1.0957966764418376
1.0899315738025417
1.0821114369501466
1.075268817204301
1.0742913000977516
1.0879765395894427
1.126099706744868
1.2003910068426198
1.3176930596285434
1.478005865102639
1.6774193548387095
1.8699902248289344
2.058651026392962
2.270772238514174
2.479960899315738
2.665689149560117
2.819159335288368
2.935483870967742
3.01564027370479
3.0625610948191597
3.083088954056696
3.081133919843597
3.06158357771261
3.0303030303030303
2.991202346041056
2.9442815249266863
2.889540566959922
2.8289345063538613
2.763440860215054
2.69208211143695
2.6148582600195502
2.532746823069404
2.44672531769306
2.355816226783969
2.2629521016617797
2.1681329423264906
2.0840664711632453
2.005865102639296
1.9227761485826005
1.8406647116324533
1.7634408602150538
1.6920821114369502
1.6285434995112416
1.5718475073313782
1.5239491691104594
1.4848484848484849
1.4535679374389052
1.4291300097751711
1.412512218963832
1.401759530791789
1.3919843597262953
1.3841642228739004
1.3773216031280548
1.370478983382209
1.3636363636363635
1.3558162267839686
1.3470185728250244
1.3362658846529814
1.324535679374389
1.3128054740957966
1.303030303030303
1.2942326490713587
1.281524926686217
1.2668621700879763
1.2512218963831867
1.2355816226783969
1.219941348973607
1.203323558162268
1.1867057673509287
1.1700879765395895
1.1544477028347997
1.13880742913001
1.1241446725317692
1.115347018572825
1.1085043988269794
1.0987292277614855
1.0879765395894427
1.0772238514173995
1.067448680351906
1.0576735092864125
1.0498533724340176
1.043010752688172
1.0381231671554252
1.0332355816226784
1.0283479960899315
1.0254154447702837
1.0224828934506354
1.0166177908113392
1.0097751710654936
1.007820136852395
1.0205278592375366
1.0596285434995112
1.1348973607038124
1.252199413489736
1.412512218963832
1.608993157380254
1.8299120234604105
2.059628543499511
2.254154447702835
2.418377321603128
2.578690127077224
2.7155425219941347
2.819159335288368
2.8905180840664717
2.930596285434995
2.945259042033236
2.93841642228739
2.9149560117302054
2.877810361681329
2.83088954056696
2.780058651026393
2.7253176930596283
2.662756598240469
2.593352883675464
2.5180840664711632
2.4379276637341154
2.35386119257087
2.2658846529814274
2.174975562072336
2.0821114369501466
1.989247311827957
1.8993157380254155
1.812316715542522
1.739980449657869
1.6774193548387095
1.6148582600195502
1.5562072336265884
1.5034213098729228
1.458455522971652
1.4222873900293256
1.393939393939394
1.3724340175953078
1.3577712609970674
1.3479960899315735
1.3411534701857282
1.33822091886608
1.3372434017595307
1.3362658846529814
1.3343108504398826
1.3304007820136852
1.324535679374389
1.3176930596285434
1.3088954056695992
1.2981427174975562
1.2864125122189638
1.273704789833822
1.260019550342131
1.2453567937438903
1.2336265884652982
1.2238514173998043
1.2111436950146628
1.1964809384164223
1.1808406647116323
1.1652003910068427
1.1495601173020529
1.1348973607038124
1.1202346041055715
1.1055718475073313
1.0909090909090908
1.0772238514173995
1.0684261974584557
1.0625610948191593
1.0547409579667644
1.0469208211143697
1.0391006842619743
1.032258064516129
1.0254154447702837
1.0195503421309873
1.0146627565982405
1.0097751710654936
1.0039100684261977
0.997067448680352
0.989247311827957
0.9863147605083088
0.9921798631476052
1.0127077223851415
1.0576735092864125
1.1378299120234605
1.260019550342131
1.4242424242424243
1.6138807429130009
1.8172043010752688
2.029325513196481
2.232649071358749
2.4144672531769307
2.550342130987292
2.6471163245356792
2.7262952101661777
2.7810361681329425
2.809384164222874
2.8152492668621703
2.8025415444770285
2.7751710654936463
2.7370478983382207
2.689149560117302
2.634408602150537
2.573802541544477
2.5083088954056696
2.444770283479961
2.380254154447703
2.3069403714565007
2.2267839687194524
2.142717497556207
2.056695992179863
1.970674486803519
1.8856304985337244
1.8035190615835777
1.726295210166178
1.6549364613880744
1.5894428152492668
1.5376344086021505
1.495601173020528
1.456500488758553
1.4222873900293256
1.3949169110459434
1.3743890518084063
1.359726295210166
1.3499511241446724
1.3440860215053765
1.3411534701857282
1.3391984359726294
1.3391984359726294
1.33822091886608
1.33822091886608
1.33822091886608
1.335288367546432
1.3304007820136852
1.3235581622678396
1.3157380254154447
1.3069403714565004
1.2961876832844574
1.284457478005865
1.2717497556207231
1.2590420332355816
1.2443792766373412
1.2326490713587488
1.2228739002932552
1.2111436950146628
1.198435972629521
1.18475073313783
1.1720430107526882
1.1593352883675463
1.1466275659824048
1.1348973607038124
1.1231671554252198
1.1124144672531768
1.1026392961876832
1.0928641251221896
1.0879765395894427
1.0850439882697946
1.0801564027370478
1.075268817204301
1.0703812316715542
1.064516129032258
1.0586510263929618
1.050830889540567
1.043010752688172
1.0391006842619743
1.04594330400782
1.072336265884653
1.1163245356793745
1.18475073313783
1.295210166177908
1.4457478005865103
1.629521016617791
1.8347996089931573
2.046920821114369
2.251221896383187
2.4330400782013686
2.58455522971652
2.701857282502444
2.7839687194525906
2.833822091886608
2.8533724340175954
2.852394916911046
2.8377321603128056
2.811339198435973
2.774193548387097
2.7282502443792764
2.67644183773216
2.6177908113391983
2.5542521994134897
2.4858260019550342
2.412512218963832
2.335288367546432
2.26197458455523
2.1915933528836757
2.112414467253177
2.0303030303030303
1.946236559139785
1.8641251221896384
1.7849462365591398
1.710654936461388
1.6422287390029326
1.5806451612903225
1.5268817204301075
1.479960899315738
1.4457478005865103
1.4203323558162269
1.396871945259042
1.3782991202346042
1.3636363636363635
1.35386119257087
1.3470185728250244
1.343108504398827
1.3391984359726294
1.3362658846529814
1.332355816226784
1.327468230694037
1.321603128054741
1.316715542521994
1.3118279569892473
1.3049853372434017
1.295210166177908
1.284457478005865
1.2727272727272727
1.2590420332355816
1.2453567937438903
1.23069403714565
1.2160312805474096
1.2013685239491692
1.1867057673509287
1.1749755620723363
1.166177908113392
1.155425219941349
1.142717497556207
1.130987292277615
1.1192570869990224
1.10752688172043
1.096774193548387
1.086021505376344
1.0762463343108504
1.067448680351906
1.0606060606060606
1.0547409579667644
1.0518084066471165
1.050830889540567
1.0478983382209188
1.0420332355816226
1.0342130987292275
1.0273704789833822
1.0254154447702837
1.0371456500488758
1.072336265884653
1.13880742913001
1.2434017595307918
1.388074291300098
1.5386119257087
1.6979472140762464
1.8905180840664717
2.0928641251221896
2.2854349951124147
2.455522971652004
2.5943304007820136
2.6989247311827955
2.771260997067449
2.8132942326490715
2.8299120234604107
2.8269794721407626
2.807429130009776
2.7781036168132944
2.740957966764418
2.6959921798631474
2.6451612903225805
2.5884652981427174
2.5268817204301075
2.4604105571847508
2.389051808406647
2.313782991202346
2.2346041055718477
2.1515151515151514
2.0664711632453567
1.991202346041056
1.920821114369501
1.844574780058651
1.76930596285435
1.696969696969697
1.6304985337243405
1.5708699902248289
1.5180840664711632
1.4731182795698925
1.435972629521017
1.4066471163245358
1.3841642228739004
1.3685239491691104
1.359726295210166
1.3548387096774193
1.3519061583577712
1.3499511241446724
1.348973607038123
1.3479960899315735
1.346041055718475
1.343108504398827
1.3391984359726294
1.332355816226784
1.324535679374389
1.3157380254154447
1.3088954056695992
1.3020527859237536
1.29227761485826
1.2805474095796676
1.267839687194526
1.2541544477028348
1.2404692082111437
1.2267839687194526
1.2130987292277615
1.1994134897360704
1.1867057673509287
1.1749755620723363
1.164222873900293
1.1564027370478984
1.1505376344086022
1.142717497556207
1.1348973607038124
1.1270772238514175
1.1202346041055715
1.1133919843597262
1.1085043988269794
1.1036168132942326
1.099706744868035
1.0948191593352885
1.088954056695992
1.0840664711632453
1.0811339198435972
1.0801564027370478
1.088954056695992
1.1163245356793745
1.173998044965787
1.2697947214076246
1.4056695992179864
1.576735092864125
1.7741935483870968
1.9843597262952104
2.190615835777126
2.3812316715542523
2.5268817204301075
2.662756598240469
2.7996089931573804
2.89247311827957
2.9501466275659824
2.978494623655914
2.983382209188661
2.970674486803519
2.943304007820137
2.905180840664712
2.8582600195503423
2.803519061583578
2.747800586510264
2.6901270772238512
2.625610948191593
2.5532746823069403
2.4760508308895406
2.393939393939394
2.3069403714565007
2.2170087976539588
2.126099706744868
2.035190615835777
1.946236559139785
1.86119257086999
1.7810361681329423
1.715542521994135
1.6608015640273706
1.606060606060606
1.5562072336265884
1.512218963831867
1.4760508308895406
1.447702834799609
1.426197458455523
1.4105571847507332
1.3998044965786902
1.392961876832845
1.3890518084066472
1.3870967741935485
1.3861192570869991
1.3841642228739004
1.3792766373411536
1.3734115347018572
1.3655913978494625
1.356793743890518
1.346041055718475
1.3343108504398826
1.321603128054741
1.3079178885630498
1.2942326490713587
1.2795698924731185
1.267839687194526
1.2570869990224829
1.2443792766373412
1.2297165200391007
1.2150537634408602
1.2003910068426198
1.1867057673509287
1.1730205278592376
1.160312805474096
1.1485826001955035
1.1378299120234605
1.1280547409579669
1.1231671554252198
1.1202346041055715
1.1163245356793745
1.1124144672531768
1.1085043988269794
1.1026392961876832
1.0957966764418376
1.0879765395894427
1.078201368523949
1.0703812316715542
1.0684261974584557
1.083088954056696
1.1133919843597262
1.1681329423264908
1.2639296187683284
1.4037145650048877
1.5826001955034212
1.7917888563049853
2.01564027370479
2.2385141739980448
2.4457478005865103
2.624633431085044
2.768328445747801
2.875855327468231
2.948191593352884
2.98435972629521
2.9960899315738025
2.9931573802541545
2.975562072336266
2.946236559139785
2.9071358748778104
2.859237536656892
2.8044965786901277
2.742913000977517
2.67644183773216
2.6050830889540566
2.5288367546432062
2.455522971652004
2.383186705767351
2.3010752688172045
2.2130987292277613
2.1221896383186705
2.03128054740958
1.9413489736070384
1.8543499511241448
1.772238514173998
1.696969696969697
1.6285434995112416
1.5679374389051808
1.5161290322580645
1.478005865102639
1.4486803519061584
1.4222873900293256
1.3998044965786902
1.3822091886608017
1.3695014662756595
1.359726295210166
1.3528836754643203
1.3470185728250244
1.3411534701857282
1.3343108504398826
1.327468230694037
1.321603128054741
1.316715542521994
1.3088954056695992
1.2991202346041055
1.2873900293255132
1.2746823069403714
1.2609970674486803
1.2473118279569892
1.2326490713587488
1.217008797653959
1.2003910068426198
1.18475073313783
1.1691104594330402
1.1573802541544478
1.147605083088954
1.1358748778103618
1.1221896383186705
1.1094819159335287
1.096774193548387
1.0850439882697946
1.0733137829912025
1.0625610948191593
1.0527859237536656
1.0439882697947214
1.0361681329423265
1.032258064516129
1.0312805474095796
1.0283479960899315
1.024437927663734
1.018572825024438
1.010752688172043
1.0019550342130987
0.9960899315738024
1.0019550342130987
1.0283479960899315
1.0869990224828934
1.1837732160312806
1.324535679374389
1.474095796676442
1.6383186705767352
1.8416422287390029
2.060606060606061
2.2737047898338223
2.466275659824047
2.627565982404692
2.752688172043011
2.8406647116324537
2.895405669599218
2.920821114369501
2.921798631476051
2.905180840664712
2.874877810361681
2.834799608993157
2.7859237536656893
2.730205278592375
2.668621700879765
2.601173020527859
2.527859237536657
2.449657869012708
2.366568914956012
2.2795698924731185
2.190615835777126
2.099706744868035
2.018572825024438
1.9442815249266865
1.865102639296188
1.7859237536656891
1.710654936461388
1.6412512218963833
1.5796676441837731
1.5249266862170088
1.478983382209189
1.4408602150537635
1.4115347018572826
1.3890518084066472
1.3743890518084063
1.3655913978494625
1.3587487781036167
1.35386119257087
1.3499511241446724
1.3470185728250244
1.3440860215053765
1.3401759530791788
1.335288367546432
1.3294232649071358
1.321603128054741
1.3128054740957966
1.3020527859237536
1.2942326490713587
1.2864125122189638
1.2756598240469208
1.262952101661779
1.249266862170088
1.2346041055718475
1.2189638318670577
1.2043010752688172
1.1886608015640274
1.173998044965787
1.1583577712609971
1.1436950146627567
1.1329423264907137
1.1241446725317692
1.1143695014662756
1.1026392961876832
1.0909090909090908
1.0801564027370478
1.0703812316715542
1.06158357771261
1.053763440860215
1.0478983382209188
1.0420332355816226
1.0361681329423265
1.0303030303030305
1.0273704789833822
1.0254154447702837
1.0195503421309873
1.0127077223851415
1.010752688172043
1.0234604105571847
1.0596285434995112
1.1300097751710656
1.241446725317693
1.3949169110459434
1.585532746823069
1.8005865102639296
1.9960899315738023
2.174975562072336
2.3626588465298144
2.535679374389052
2.6803519061583576
2.790811339198436
2.865102639296188
2.90811339198436
2.9159335288367547
2.8993157380254155
2.8699902248289346
2.83088954056696
2.782013685239492
2.730205278592375
2.675464320625611
2.611925708699902
2.5425219941348973
2.4682306940371457
2.389051808406647
2.3059628543499517
2.219941348973607
2.1309872922776147
2.0410557184750733
1.9530791788856303
1.868035190615836
1.7956989247311828
1.7331378299120237
1.6695992179863148
1.608993157380254
1.5542521994134897
1.5063538611925709
1.466275659824047
1.4349951124144673
1.4105571847507332
1.392961876832845
1.3812316715542523
1.3734115347018572
1.3685239491691104
1.367546432062561
1.367546432062561
1.3665689149560116
1.364613880742913
1.3626588465298142
1.359726295210166
1.3548387096774193
1.348973607038123
1.3411534701857282
1.3313782991202343
1.3206256109481915
1.3079178885630498
1.2981427174975562
1.289345063538612
1.2776148582600195
1.2639296187683284
1.2482893450635386
1.2326490713587488
1.2179863147605083
1.2023460410557183
1.187683284457478
1.173998044965787
1.160312805474096
1.1466275659824048
1.1378299120234605
1.130987292277615
1.1231671554252198
1.1143695014662756
1.1065493646138806
1.0987292277614855
1.0918866080156402
1.086021505376344
1.0801564027370478
1.0742913000977516
1.067448680351906
1.0606060606060606
1.0527859237536656
1.0498533724340176
1.053763440860215
1.0684261974584557
1.1055718475073313
1.1759530791788857
1.2864125122189638
1.4379276637341154
1.624633431085044
1.836754643206256
2.059628543499511
2.2766373411534704
2.474095796676442
2.624633431085044
2.735092864125122
2.8289345063538613
2.897360703812317
2.9393939393939394
2.956011730205278
2.952101661779081
2.9315738025415445
2.898338220918866
2.855327468230694
2.8044965786901277
2.747800586510264
2.684261974584555
2.621700879765396
2.558162267839687
2.4858260019550342
2.407624633431085
2.324535679374389
2.2375366568914954
2.147605083088954
2.0576735092864125
1.9687194525904204
1.8826979472140764
1.8005865102639296
1.7243401759530792
1.66177908113392
1.6099706744868034
1.5591397849462365
1.5131964809384164
1.474095796676442
1.4418377321603129
1.4164222873900294
1.3978494623655917
1.3851417399804498
1.3763440860215057
1.370478983382209
1.3665689149560116
1.3626588465298142
1.3607038123167154
1.359726295210166
1.3577712609970674
1.3528836754643203
1.346041055718475
1.3372434017595307
1.327468230694037
1.316715542521994
1.3049853372434017
1.29227761485826
1.278592375366569
1.2649071358748778
1.2541544477028348
1.2443792766373412
1.2316715542521994
1.2179863147605083
1.203323558162268
1.1896383186705768
1.1759530791788857
1.163245356793744
1.1515151515151516
1.1407624633431086
1.1300097751710656
1.1202346041055715
1.110459433040078
1.104594330400782
1.1006842619745845
1.0957966764418376
1.0909090909090908
1.086021505376344
1.0811339198435972
1.075268817204301
1.0684261974584557
1.0606060606060606
1.053763440860215
1.0527859237536656
1.0654936461388074
1.0918866080156402
1.141739980449658
1.2297165200391007
1.3587487781036167
1.5278592375366569
1.7302052785923754
1.951124144672532
2.174975562072336
2.3851417399804498
2.5698924731182795
2.720430107526881
2.834799608993157
2.913978494623656
2.956011730205278
2.970674486803519
2.9696969696969697
2.95405669599218
2.924731182795699
2.8856304985337244
2.8377321603128056
2.782013685239492
2.720430107526881
2.653958944281525
2.582600195503421
2.506353861192571
2.434017595307918
2.361681329423265
2.281524926686217
2.196480938416422
2.10850439882698
2.0205278592375366
1.9345063538611929
1.8514173998044965
1.7741935483870968
1.7028347996089932
1.640273704789834
1.585532746823069
1.5386119257087
1.5034213098729228
1.47702834799609
1.4545454545454546
1.436950146627566
1.4242424242424243
1.41544477028348
1.4086021505376345
1.4037145650048877
1.3998044965786902
1.396871945259042
1.392961876832845
1.388074291300098
1.3841642228739004
1.380254154447703
1.3743890518084063
1.3655913978494625
1.3558162267839686
1.3450635386119256
1.3333333333333333
1.3206256109481915
1.3069403714565004
1.2942326490713587
1.2805474095796676
1.2668621700879763
1.2531769305962854
1.2434017595307918
1.2355816226783969
1.2258064516129032
1.2150537634408602
1.2043010752688172
1.1935483870967742
1.1837732160312806
1.173998044965787
1.164222873900293
1.1564027370478984
1.1495601173020529
1.1436950146627567
1.141739980449658
1.141739980449658
1.1397849462365592
1.1358748778103618
1.1300097751710656
1.1221896383186705
1.1143695014662756
1.1114369501466277
1.121212121212121
1.1534701857282503
1.219941348973607
1.3284457478005864
1.478983382209189
1.6363636363636365
1.8054740957966764
2.0117302052785924
2.2297165200391005
2.4389051808406648
2.624633431085044
2.777126099706745
2.89345063538612
2.972629521016618
3.0195503421309877
3.040078201368524
3.0391006842619745
3.0205278592375366
2.9902248289345064
2.9345063538611926
2.863147605083089
2.798631476050831
2.7331378299120237
2.6666666666666665
2.5962854349951123
2.5219941348973607
2.442815249266862
2.3597262952101663
2.2737047898338223
2.1945259042033234
2.1192570869990224
2.0361681329423265
1.9501466275659824
1.865102639296188
1.782991202346041
1.7057673509286413
1.6363636363636365
1.573802541544477
1.5190615835777126
1.4731182795698925
1.4349951124144673
1.4037145650048877
1.3822091886608017
1.3665689149560116
1.35386119257087
1.3440860215053765
1.3362658846529814
1.3304007820136852
1.324535679374389
1.3186705767350928
1.3128054740957966
1.305962854349951
1.2971652003910068
1.2873900293255132
1.2795698924731185
1.2727272727272727
1.2619745845552297
1.2502443792766371
1.2365591397849462
1.2228739002932552
1.2072336265884651
1.1915933528836755
1.1759530791788857
1.1593352883675463
1.1436950146627567
1.1290322580645162
1.1143695014662756
1.104594330400782
1.096774193548387
1.0869990224828934
1.0772238514173995
1.067448680351906
1.0586510263929618
1.0498533724340176
1.043010752688172
1.0361681329423265
1.0303030303030305
1.0254154447702837
1.0205278592375366
1.018572825024438
1.0166177908113392
1.010752688172043
1.002932551319648
0.997067448680352
1.0009775171065494
1.0224828934506354
1.072336265884653
1.1593352883675463
1.2873900293255132
1.455522971652004
1.653958944281525
1.870967741935484
2.06158357771261
2.2297165200391005
2.40078201368524
2.5532746823069403
2.67644183773216
2.766373411534702
2.8240469208211145
2.8533724340175954
2.860215053763441
2.8475073313782997
2.820136852394917
2.782013685239492
2.73802541544477
2.689149560117302
2.632453567937439
2.5698924731182795
2.501466275659824
2.4281524926686218
2.350928641251222
2.269794721407625
2.1837732160312804
2.0957966764418376
2.006842619745845
1.9178885630498532
1.83088954056696
1.7575757575757576
1.6930596285434996
1.6256109481915937
