ppg
1.2355816226783969
1.4066471163245358
1.616813294232649
1.8504398826979471
2.085043988269794
2.303030303030303
2.4887585532746823
2.631476050830889
2.7223851417399803
2.773216031280548
2.801564027370479
2.807429130009776
2.793743890518084
2.7653958944281527
2.724340175953079
2.673509286412512
2.6148582600195502
2.5513196480938416
2.4858260019550342
2.4173998044965788
2.35386119257087
2.2932551319648096
2.2267839687194524
2.158357771260997
2.088954056695992
2.0195503421309877
1.949169110459433
1.878787878787879
1.8064516129032255
1.7331378299120237
1.6598240469208212
1.585532746823069
1.521016617790811
1.4623655913978495
1.3978494623655917
1.3333333333333333
1.2717497556207231
1.2160312805474096
1.1681329423264908
1.1290322580645162
1.1006842619745845
1.0840664711632453
1.0772238514173995
1.0791788856304985
1.0909090909090908
1.1065493646138806
1.1251221896383188
1.144672531769306
1.164222873900293
1.18475073313783
1.203323558162268
1.217008797653959
1.2258064516129032
1.23069403714565
1.2316715542521994
1.2297165200391007
1.2258064516129032
1.2218963831867058
1.217008797653959
1.2072336265884651
1.195503421309873
1.1837732160312806
1.1730205278592376
1.163245356793744
1.1534701857282503
1.1456500488758554
1.1378299120234605
1.1368523949169111
1.13880742913001
1.1329423264907137
1.1251221896383188
1.1163245356793745
1.1036168132942326
1.0909090909090908
1.0791788856304985
1.0694037145650048
1.06158357771261
1.053763440860215
1.04594330400782
1.0391006842619743
1.032258064516129
1.0254154447702837
1.0205278592375366
1.0175953079178883
1.0127077223851415
1.0068426197458455
1.0
0.9951124144672532
0.9931573802541545
0.9921798631476052
0.9912023460410556
0.9912023460410556
0.9921798631476052
0.9931573802541545
0.9941348973607038
0.9980449657869012
1.0039100684261977
1.0087976539589445
1.0117302052785924
1.013685239491691
1.013685239491691
1.010752688172043
1.0068426197458455
1.0087976539589445
1.029325513196481
1.0791788856304985
1.1710654936461389
1.284457478005865
1.4271749755620724
1.6265884652981428
1.86119257086999
2.1055718475073317
2.3382209188660803
2.5386119257087
2.6959921798631474
2.806451612903226
2.8719452590420333
2.9012707722385143
2.903225806451613
2.8836754643206257
2.8514173998044967
2.809384164222874
2.760508308895406
2.704789833822092
2.644183773216031
2.581622678396872
2.5161290322580645
2.44672531769306
2.375366568914956
2.303030303030303
2.2297165200391005
2.157380254154448
2.090909090909091
2.0283479960899315
1.959921798631476
1.8875855327468232
1.8142717497556209
1.739980449657869
1.6637341153470186
1.585532746823069
1.5112414467253177
1.4418377321603129
1.375366568914956
1.313782991202346
1.2619745845552297
1.224828934506354
1.1994134897360704
1.1798631476050832
1.1691104594330402
1.166177908113392
1.1710654936461389
1.1837732160312806
1.2003910068426198
1.2189638318670577
1.238514173998045
1.2590420332355816
1.2776148582600195
1.2932551319648091
1.3049853372434017
1.3118279569892473
1.313782991202346
1.3118279569892473
1.3079178885630498
1.3010752688172045
1.29227761485826
1.2805474095796676
1.267839687194526
1.2541544477028348
1.2404692082111437
1.2267839687194526
1.217008797653959
1.209188660801564
1.1994134897360704
1.1896383186705768
1.1798631476050832
1.1691104594330402
1.1593352883675463
1.1485826001955035
1.1378299120234605
1.1251221896383188
1.1124144672531768
1.1016617790811338
1.0957966764418376
1.0909090909090908
1.0840664711632453
1.0772238514173995
1.0703812316715542
1.0635386119257086
1.0557184750733135
1.0469208211143697
1.0391006842619743
1.032258064516129
1.0254154447702837
1.0195503421309873
1.0156402737047898
1.0146627565982405
1.0166177908113392
1.018572825024438
1.0205278592375366
1.021505376344086
1.021505376344086
1.021505376344086
1.0234604105571847
1.0273704789833822
1.0312805474095796
1.0332355816226784
1.032258064516129
1.0312805474095796
1.0312805474095796
1.032258064516129
1.0449657869012707
1.083088954056696
1.1593352883675463
1.2834799608993157
1.457478005865103
1.6744868035190617
1.9159335288367547
2.160312805474096
2.388074291300098
2.5806451612903225
2.7155425219941347
2.8044965786901277
2.8690127077223853
2.903225806451613
2.911045943304008
2.897360703812317
2.8690127077223853
2.8289345063538613
2.780058651026393
2.7253176930596283
2.665689149560117
2.6021505376344085
2.539589442815249
2.4780058651026398
2.412512218963832
2.3440860215053765
2.2737047898338223
2.204301075268817
2.133919843597263
2.0625610948191597
1.991202346041056
1.916911045943304
1.8416422287390029
1.7644183773216031
1.686217008797654
1.616813294232649
1.5542521994134897
1.4887585532746823
1.423264907135875
1.359726295210166
1.303030303030303
1.2541544477028348
1.2160312805474096
1.1896383186705768
1.173998044965787
1.1671554252199414
1.1681329423264908
1.1749755620723363
1.1867057673509287
1.2013685239491692
1.2189638318670577
1.2365591397849462
1.2531769305962854
1.267839687194526
1.281524926686217
1.29227761485826
1.3010752688172045
1.305962854349951
1.3079178885630498
1.3079178885630498
1.3049853372434017
1.2971652003910068
1.2864125122189638
1.2746823069403714
1.2609970674486803
1.2473118279569892
1.2336265884652982
1.2209188660801564
1.209188660801564
1.198435972629521
1.187683284457478
1.176930596285435
1.1691104594330402
1.1622678396871946
1.1534701857282503
1.1436950146627567
1.1319648093841643
1.1192570869990224
1.1065493646138806
1.0957966764418376
1.086021505376344
1.0762463343108504
1.0684261974584557
1.0606060606060606
1.0557184750733135
1.0527859237536656
1.0478983382209188
1.0420332355816226
1.035190615835777
1.0283479960899315
1.0224828934506354
1.018572825024438
1.0166177908113392
1.0156402737047898
1.0156402737047898
1.0166177908113392
1.0175953079178883
1.0195503421309873
1.0224828934506354
1.0254154447702837
1.029325513196481
1.0332355816226784
1.0361681329423265
1.0361681329423265
1.032258064516129
1.0273704789833822
1.0283479960899315
1.0449657869012707
1.0928641251221896
1.1622678396871946
1.2649071358748778
1.4252199413489737
1.6334310850439884
1.8826979472140764
2.146627565982405
2.391006842619746
2.60019550342131
2.764418377321604
2.8797653958944283
2.949169110459433
2.9804496578690127
2.981427174975562
2.962854349951124
2.930596285434995
2.889540566959922
2.838709677419355
2.7810361681329425
2.717497556207233
2.650048875855328
2.579667644183773
2.50733137829912
2.434017595307918
2.3597262952101663
2.2844574780058653
2.2140762463343107
2.147605083088954
2.078201368523949
2.005865102639296
1.9315738025415443
1.8563049853372435
1.7790811339198436
1.7008797653958945
1.6217008797653958
1.543499511241447
1.4682306940371457
1.396871945259042
1.3304007820136852
1.278592375366569
1.2394916911045943
1.203323558162268
1.1749755620723363
1.1564027370478984
1.147605083088954
1.1505376344086022
1.163245356793744
1.1837732160312806
1.209188660801564
1.2365591397849462
1.262952101661779
1.284457478005865
1.303030303030303
1.3176930596285434
1.327468230694037
1.3333333333333333
1.3343108504398826
1.3313782991202343
1.3264907135874875
1.3186705767350928
1.3079178885630498
1.2961876832844574
1.2834799608993157
1.2697947214076246
1.2590420332355816
1.249266862170088
1.2375366568914956
1.2267839687194526
1.2160312805474096
1.2052785923753666
1.1945259042033236
1.1837732160312806
1.1730205278592376
1.1622678396871946
1.1515151515151516
1.1407624633431086
1.1329423264907137
1.126099706744868
1.118279569892473
1.1094819159335287
1.1006842619745845
1.0918866080156402
1.0821114369501466
1.072336265884653
1.0625610948191593
1.0547409579667644
1.0478983382209188
1.0439882697947214
1.0420332355816226
1.0420332355816226
1.0439882697947214
1.0449657869012707
1.04594330400782
1.0469208211143697
1.0488758553274682
1.0498533724340176
1.0498533724340176
1.050830889540567
1.0527859237536656
1.0547409579667644
1.0557184750733135
1.0576735092864125
1.0576735092864125
1.053763440860215
1.0518084066471165
1.0606060606060606
1.0918866080156402
1.1593352883675463
1.273704789833822
1.4408602150537635
1.653958944281525
1.8993157380254155
2.155425219941349
2.40078201368524
2.592375366568915
2.735092864125122
2.855327468230694
2.940371456500489
2.9902248289345064
3.007820136852395
3.0
2.973607038123167
2.9335288367546437
2.8836754643206257
2.825024437927664
2.760508308895406
2.6959921798631474
2.633431085043988
2.5669599217986314
2.496578690127077
2.426197458455523
2.35386119257087
2.281524926686217
2.2082111436950145
2.134897360703812
2.060606060606061
1.9853372434017595
1.9090909090909087
1.8299120234604105
1.7575757575757576
1.6901270772238517
1.616813294232649
1.544477028347996
1.4750733137829912
1.4086021505376345
1.3499511241446724
1.2991202346041055
1.2570869990224829
1.2267839687194526
1.206256109481916
1.195503421309873
1.1935483870967742
1.1994134897360704
1.2121212121212122
1.2297165200391007
1.252199413489736
1.2756598240469208
1.2971652003910068
1.3147605083088951
1.3264907135874875
1.332355816226784
1.3333333333333333
1.3304007820136852
1.3255131964809383
1.321603128054741
1.3176930596285434
1.3118279569892473
1.3049853372434017
1.295210166177908
1.2834799608993157
1.2697947214076246
1.2561094819159335
1.2424242424242424
1.2297165200391007
1.2189638318670577
1.2082111436950147
1.2003910068426198
1.1935483870967742
1.18475073313783
1.1749755620723363
1.1652003910068427
1.1534701857282503
1.1397849462365592
1.1280547409579669
1.1163245356793745
1.1055718475073313
1.0957966764418376
1.0869990224828934
1.0821114369501466
1.078201368523949
1.0733137829912025
1.067448680351906
1.0606060606060606
1.0557184750733135
1.050830889540567
1.0469208211143697
1.0449657869012707
1.0439882697947214
1.0439882697947214
1.0439882697947214
1.0439882697947214
1.0449657869012707
1.0478983382209188
1.0488758553274682
1.050830889540567
1.053763440860215
1.0586510263929618
1.0654936461388074
1.0703812316715542
1.0713587487781036
1.0664711632453567
1.0596285434995112
1.0586510263929618
1.0684261974584557
1.099706744868035
1.166177908113392
1.281524926686217
1.4496578690127078
1.6637341153470186
1.9100684261974583
2.1681329423264906
2.4144672531769307
2.6285434995112413
2.7966764418377323
2.9159335288367547
2.988269794721408
3.018572825024438
3.0175953079178885
2.99902248289345
2.964809384164223
2.917888563049853
2.863147605083089
2.8025415444770285
2.73802541544477
2.6715542521994133
2.6021505376344085
2.5317693059628543
2.4613880742913
2.3958944281524928
2.3313782991202348
2.2629521016617797
2.1925708699902247
2.1192570869990224
2.0449657869012707
1.967741935483871
1.8885630498533723
1.8074291300097751
1.7253176930596286
1.6441837732160314
1.564027370478983
1.4868035190615836
1.4222873900293256
1.3685239491691104
1.3147605083088951
1.2658846529814272
1.2267839687194526
1.1974584555229717
1.176930596285435
1.166177908113392
1.164222873900293
1.1700879765395895
1.1720430107526882
1.1730205278592376
1.181818181818182
1.195503421309873
1.2121212121212122
1.2297165200391007
1.2453567937438903
1.2580645161290325
1.2688172043010753
1.2766373411534702
1.281524926686217
1.281524926686217
1.278592375366569
1.273704789833822
1.2658846529814272
1.2570869990224829
1.2482893450635386
1.2375366568914956
1.2238514173998043
1.209188660801564
1.195503421309873
1.1837732160312806
1.173998044965787
1.164222873900293
1.155425219941349
1.1456500488758554
1.1348973607038124
1.1251221896383188
1.1163245356793745
1.1055718475073313
1.0928641251221896
1.0811339198435972
1.0703812316715542
1.0606060606060606
1.0518084066471165
1.0439882697947214
1.0361681329423265
1.0283479960899315
1.021505376344086
1.0146627565982405
1.0097751710654936
1.007820136852395
1.0058651026392962
1.0048875855327468
1.0048875855327468
1.0048875855327468
1.0048875855327468
1.0048875855327468
1.0048875855327468
1.0048875855327468
1.007820136852395
1.0117302052785924
1.0146627565982405
1.018572825024438
1.0205278592375366
1.0195503421309873
1.0156402737047898
1.010752688172043
1.0127077223851415
1.0332355816226784
1.0850439882697946
1.1837732160312806
1.3343108504398826
1.533724340175953
1.7702834799608993
1.9902248289345064
2.1925708699902247
2.403714565004888
2.592375366568915
2.740957966764418
2.844574780058651
2.905180840664712
2.929618768328446
2.9257086999022484
2.902248289345064
2.8641251221896384
2.817204301075269
2.766373411534702
2.7116324535679373
2.650048875855328
2.58455522971652
2.5141739980449658
2.4408602150537635
2.3655913978494625
2.291300097751711
2.2170087976539588
2.142717497556207
2.0684261974584555
1.994134897360704
1.916911045943304
1.8465298142717497
1.780058651026393
1.7057673509286413
1.6285434995112416
1.5503421309872922
1.474095796676442
1.401759530791789
1.3343108504398826
1.2727272727272727
1.2189638318670577
1.1749755620723363
1.141739980449658
1.1202346041055715
1.1085043988269794
1.1036168132942326
1.1065493646138806
1.1173020527859236
1.133919843597263
1.1534701857282503
1.173998044965787
1.1945259042033236
1.2150537634408602
1.2346041055718475
1.2502443792766371
1.262952101661779
1.2717497556207231
1.2776148582600195
1.278592375366569
1.2746823069403714
1.2697947214076246
1.2639296187683284
1.2570869990224829
1.249266862170088
1.2394916911045943
1.227761485826002
1.2140762463343109
1.2003910068426198
1.1906158357771262
1.181818181818182
1.1710654936461389
1.160312805474096
1.1495601173020529
1.13880742913001
1.1280547409579669
1.118279569892473
1.1065493646138806
1.0928641251221896
1.0811339198435972
1.0694037145650048
1.0625610948191593
1.0576735092864125
1.0518084066471165
1.0449657869012707
1.0381231671554252
1.0312805474095796
1.024437927663734
1.018572825024438
1.0127077223851415
1.007820136852395
1.002932551319648
1.0
0.9980449657869012
0.9990224828934506
1.0019550342130987
1.0039100684261977
1.007820136852395
1.0117302052785924
1.0156402737047898
1.018572825024438
1.0205278592375366
1.0195503421309873
1.0146627565982405
1.007820136852395
1.0048875855327468
1.0127077223851415
1.0381231671554252
1.0957966764418376
1.1994134897360704
1.3558162267839686
1.5620723362658846
1.8035190615835777
2.0576735092864125
2.304007820136853
2.5210166177908118
2.695014662756598
2.820136852394917
2.898338220918866
2.9335288367546437
2.9374389051808407
2.9227761485826003
2.89345063538612
2.852394916911046
2.801564027370479
2.7438905180840663
2.681329423264907
2.6158357771261
2.5464320625610948
2.4760508308895406
2.4056695992179864
2.3411534701857284
2.280547409579668
2.2140762463343107
2.144672531769306
2.0733137829912023
2.0009775171065494
1.927663734115347
1.8523949169110456
1.775171065493646
1.6959921798631477
1.616813294232649
1.5386119257087
1.4633431085043989
1.3998044965786902
1.346041055718475
1.2942326490713587
1.2473118279569892
1.2082111436950147
1.1798631476050832
1.1622678396871946
1.155425219941349
1.1573802541544478
1.166177908113392
1.1798631476050832
1.1974584555229717
1.2150537634408602
1.2326490713587488
1.2502443792766371
1.2649071358748778
1.2766373411534702
1.2834799608993157
1.2864125122189638
1.2864125122189638
1.281524926686217
1.273704789833822
1.2649071358748778
1.2541544477028348
1.2424242424242424
1.2336265884652982
1.224828934506354
1.2160312805474096
1.2052785923753666
1.1935483870967742
1.1827956989247312
1.1720430107526882
1.1612903225806452
1.1505376344086022
1.1397849462365592
1.1290322580645162
1.1173020527859236
1.1085043988269794
1.1006842619745845
1.0909090909090908
1.0811339198435972
1.0713587487781036
1.0625610948191593
1.053763440860215
1.0449657869012707
1.0371456500488758
1.029325513196481
1.021505376344086
1.0146627565982405
1.007820136852395
1.002932551319648
1.0
0.997067448680352
0.9951124144672532
0.9960899315738024
0.9980449657869012
0.9990224828934506
1.0
1.0019550342130987
1.0058651026392962
1.0087976539589445
1.0097751710654936
1.010752688172043
1.010752688172043
1.0068426197458455
1.0039100684261977
1.0117302052785924
1.0420332355816226
1.1085043988269794
1.2228739002932552
1.3900293255131966
1.603128054740958
1.8455522971652003
2.0977517106549364
2.3362658846529816
2.520039100684262
2.654936461388074
2.7673509286412514
2.84652981427175
2.89247311827957
2.9071358748778104
2.897360703812317
2.8699902248289346
2.8299120234604107
2.7781036168132944
2.717497556207233
2.6510263929618767
2.5855327468230693
2.5210166177908118
2.452590420332356
2.3822091886608017
2.3098729227761488
2.2375366568914954
2.166177908113392
2.0957966764418376
2.0234604105571847
1.951124144672532
1.8778103616813293
1.8035190615835777
1.7282502443792769
1.66177908113392
1.6001955034213098
1.5317693059628543
1.4613880742913
1.393939393939394
1.3304007820136852
1.2717497556207231
1.2209188660801564
1.1798631476050832
1.1485826001955035
1.1270772238514175
1.115347018572825
1.110459433040078
1.1133919843597262
1.1231671554252198
1.1378299120234605
1.1564027370478984
1.1779081133919844
1.198435972629521
1.2160312805474096
1.23069403714565
1.2424242424242424
1.2502443792766371
1.2531769305962854
1.252199413489736
1.2502443792766371
1.2473118279569892
1.241446725317693
1.2326490713587488
1.2209188660801564
1.2082111436950147
1.1974584555229717
1.1867057673509287
1.1759530791788857
1.1652003910068427
1.1544477028347997
1.142717497556207
1.133919843597263
1.1251221896383188
1.1133919843597262
1.0987292277614855
1.086021505376344
1.0762463343108504
1.0684261974584557
1.0606060606060606
1.0527859237536656
1.04594330400782
1.0391006842619743
1.032258064516129
1.024437927663734
1.0205278592375366
1.0175953079178883
1.0127077223851415
1.0058651026392962
0.9990224828934506
0.9921798631476052
0.9853372434017597
0.9794721407624634
0.975562072336266
0.9736070381231672
0.9736070381231672
0.9765395894428152
0.981427174975562
0.9853372434017597
0.9872922776148584
0.9853372434017597
0.9794721407624634
0.9726295210166178
0.9706744868035192
0.9824046920821116
1.024437927663734
1.1085043988269794
1.2453567937438903
1.4320625610948192
1.6217008797653958
1.8191593352883677
2.0498533724340176
2.280547409579668
2.4858260019550342
2.650048875855328
2.7673509286412514
2.838709677419355
2.8729227761485827
2.875855327468231
2.8563049853372435
2.8211143695014664
2.773216031280548
2.719452590420332
2.662756598240469
2.60019550342131
2.533724340175953
2.464320625610948
2.3929618768328447
2.320625610948192
2.2482893450635384
2.175953079178885
2.102639296187683
2.029325513196481
1.9560117302052784
1.8905180840664717
1.828934506353861
1.7624633431085044
1.6920821114369502
1.6187683284457477
1.543499511241447
1.4701857282502444
1.3998044965786902
1.3333333333333333
1.2727272727272727
1.219941348973607
1.173998044965787
1.1368523949169111
1.1114369501466277
1.096774193548387
1.088954056695992
1.0909090909090908
1.1006842619745845
1.1163245356793745
1.1368523949169111
1.1583577712609971
1.1788856304985338
1.1974584555229717
1.2121212121212122
1.2228739002932552
1.23069403714565
1.2355816226783969
1.2375366568914956
1.2355816226783969
1.23069403714565
1.2238514173998043
1.2150537634408602
1.2043010752688172
1.1935483870967742
1.1827956989247312
1.1720430107526882
1.1612903225806452
1.1505376344086022
1.142717497556207
1.1358748778103618
1.126099706744868
1.1143695014662756
1.1016617790811338
1.0879765395894427
1.0762463343108504
1.0654936461388074
1.0547409579667644
1.0449657869012707
1.0361681329423265
1.0283479960899315
1.0234604105571847
1.018572825024438
1.010752688172043
1.0019550342130987
0.9931573802541545
0.9843597262952102
0.9775171065493646
0.9716520039100685
0.9667644183773216
0.9638318670576737
0.9628543499511242
0.9648093841642228
0.9667644183773216
0.9687194525904204
0.9716520039100685
0.9745845552297164
0.978494623655914
0.9833822091886608
0.9872922776148584
0.9902248289345064
0.989247311827957
0.9843597262952102
0.9765395894428152
0.9716520039100685
0.9775171065493646
0.9990224828934506
1.0478983382209188
1.142717497556207
1.2903225806451613
1.4887585532746823
1.7253176930596286
1.978494623655914
2.2267839687194524
2.447702834799609
2.624633431085044
2.7546432062561097
2.8377321603128056
2.8807429130009776
2.8914956011730206
2.877810361681329
2.849462365591398
2.8103616813294234
2.760508308895406
2.7038123167155423
2.641251221896383
2.5747800586510263
2.505376344086021
2.434017595307918
2.363636363636364
2.2932551319648096
2.2277614858260018
2.166177908113392
2.1006842619745845
2.0332355816226784
1.963831867057673
1.8934506353861196
1.8211143695014664
1.7468230694037146
1.6705767350928642
1.5933528836754642
1.517106549364614
1.452590420332356
1.396871945259042
1.3450635386119256
1.300097751710655
1.2541544477028348
1.2130987292277615
1.181818181818182
1.160312805474096
1.1495601173020529
1.1495601173020529
1.1583577712609971
1.1730205278592376
1.1935483870967742
1.2150537634408602
1.2346041055718475
1.2531769305962854
1.2717497556207231
1.2873900293255132
1.2991202346041055
1.3069403714565004
1.3088954056695992
1.3069403714565004
1.3020527859237536
1.2942326490713587
1.2834799608993157
1.270772238514174
1.2570869990224829
1.24633431085044
1.2365591397849462
1.2267839687194526
1.2150537634408602
1.203323558162268
1.1906158357771262
1.1759530791788857
1.1612903225806452
1.1466275659824048
1.133919843597263
1.1241446725317692
1.115347018572825
1.110459433040078
1.1065493646138806
1.0987292277614855
1.088954056695992
1.078201368523949
1.067448680351906
1.0557184750733135
1.0420332355816226
1.0303030303030305
1.0205278592375366
1.0127077223851415
1.0087976539589445
1.007820136852395
1.0097751710654936
1.0127077223851415
1.013685239491691
1.0146627565982405
1.0146627565982405
1.0146627565982405
1.0146627565982405
1.0146627565982405
1.0146627565982405
1.0146627565982405
1.0127077223851415
1.0087976539589445
1.0068426197458455
1.0048875855327468
1.0039100684261977
1.0146627565982405
1.0498533724340176
1.1241446725317692
1.2502443792766371
1.4301075268817205
1.6549364613880744
1.906158357771261
2.161290322580645
2.398826979472141
2.578690127077224
2.7096774193548385
2.81622678396872
2.8885630498533725
2.9257086999022484
2.9345063538611926
2.921798631476051
2.89247311827957
2.850439882697948
2.798631476050831
2.739980449657869
2.675464320625611
2.606060606060606
2.5405669599217986
2.4760508308895406
2.4086021505376345
2.3391984359726297
2.2688172043010755
2.19941348973607
2.129032258064516
2.058651026392962
1.9872922776148585
1.913978494623656
1.8377321603128052
1.761485826001955
1.694037145650049
1.629521016617791
1.5591397849462365
1.4868035190615836
1.4173998044965788
1.3528836754643203
1.2961876832844574
1.2482893450635386
1.2101661779081134
1.181818181818182
1.1622678396871946
1.1515151515151516
1.1485826001955035
1.152492668621701
1.1612903225806452
1.1759530791788857
1.1945259042033236
1.2150537634408602
1.2326490713587488
1.249266862170088
1.262952101661779
1.2717497556207231
1.2776148582600195
1.2795698924731185
1.2776148582600195
1.2746823069403714
1.270772238514174
1.262952101661779
1.2512218963831867
1.2394916911045943
1.227761485826002
1.217008797653959
1.206256109481916
1.1935483870967742
1.1798631476050832
1.1671554252199414
1.1534701857282503
1.1397849462365592
1.1300097751710656
1.1221896383186705
1.1133919843597262
1.1036168132942326
1.093841642228739
1.083088954056696
1.0733137829912025
1.064516129032258
1.0547409579667644
1.0439882697947214
1.0332355816226784
1.0234604105571847
1.018572825024438
1.0146627565982405
1.0097751710654936
1.0058651026392962
1.0019550342130987
0.9980449657869012
0.9951124144672532
0.9912023460410556
