ppg
1.3763440860215057
1.393939393939394
1.444770283479961
1.5278592375366569
1.6226783968719452
1.7331378299120237
1.8758553274682308
2.0391006842619745
2.210166177908113
2.377321603128055
2.532746823069404
2.668621700879765
2.779081133919844
2.860215053763441
2.911045943304008
2.930596285434995
2.921798631476051
2.8905180840664717
2.8406647116324537
2.7673509286412514
2.675464320625611
2.567937438905181
2.447702834799609
2.317693059628544
2.1808406647116323
2.043010752688172
1.9071358748778104
1.7771260997067448
1.6549364613880744
1.5562072336265884
1.4750733137829912
1.396871945259042
1.3284457478005864
1.273704789833822
1.2346041055718475
1.2130987292277615
1.2082111436950147
1.2189638318670577
1.2443792766373412
1.2825024437927663
1.3304007820136852
1.3851417399804498
1.4379276637341154
1.487781036168133
1.541544477028348
1.5923753665689149
1.6373411534701858
1.6744868035190617
1.7008797653958945
1.715542521994135
1.718475073313783
1.7086999022482894
1.689149560117302
1.6598240469208212
1.6285434995112416
1.595307917888563
1.5542521994134897
1.5083088954056696
1.457478005865103
1.404692082111437
1.3519061583577712
1.3010752688172045
1.2570869990224829
1.224828934506354
1.2111436950146628
1.224828934506354
1.2688172043010753
1.3284457478005864
1.4066471163245358
1.5161290322580645
1.6480938416422288
1.793743890518084
1.945259042033236
2.093841642228739
2.232649071358749
2.3528836754643208
2.450635386119257
2.52297165200391
2.567937438905181
2.58455522971652
2.576735092864125
2.549364613880743
2.501466275659824
2.4330400782013686
2.346041055718475
2.242424242424242
2.129032258064516
2.0087976539589443
1.884652981427175
1.7605083088954057
1.6392961876832846
1.5268817204301075
1.435972629521017
1.3587487781036167
1.2834799608993157
1.217008797653959
1.1612903225806452
1.1202346041055715
1.093841642228739
1.0821114369501466
1.086021505376344
1.1055718475073313
1.13880742913001
1.1837732160312806
1.2326490713587488
1.284457478005865
1.3440860215053765
1.4066471163245358
1.469208211143695
1.5278592375366569
1.581622678396872
1.6265884652981428
1.6608015640273706
1.686217008797654
1.7038123167155426
1.7145650048875856
1.7194525904203324
1.718475073313783
1.7126099706744868
1.7018572825024438
1.686217008797654
1.6666666666666667
1.643206256109482
1.6187683284457477
1.5992179863147604
1.5894428152492668
1.5972629521016617
1.629521016617791
1.689149560117302
1.761485826001955
1.8504398826979471
1.9736070381231672
2.121212121212121
2.283479960899316
2.4516129032258065
2.613880742913001
2.760508308895406
2.884652981427175
2.981427174975562
3.047898338220919
3.083088954056696
3.0869990224828934
3.064516129032258
3.018572825024438
2.9501466275659824
2.86217008797654
2.755620723362659
2.633431085043988
2.5004887585532747
2.3597262952101663
2.21505376344086
2.070381231671554
1.9305962854349952
1.7986314760508308
1.6901270772238517
1.6001955034213098
1.5141739980449658
1.439882697947214
1.3822091886608017
1.343108504398827
1.3235581622678396
1.3235581622678396
1.3421309872922775
1.3782991202346042
1.4301075268817205
1.4916911045943304
1.5513196480938416
1.6099706744868034
1.6764418377321604
1.7448680351906158
1.8093841642228736
1.869012707722385
1.920821114369501
1.963831867057673
1.997067448680352
2.0195503421309877
2.0332355816226784
2.0361681329423265
2.0303030303030303
2.018572825024438
2.0009775171065494
1.9775171065493649
1.948191593352884
1.913978494623656
1.8778103616813293
1.8406647116324533
1.8084066471163245
1.7878787878787878
1.7878787878787878
1.8172043010752688
1.881720430107527
1.959921798631476
2.058651026392962
2.19941348973607
2.367546432062561
2.5513196480938416
2.736070381231672
2.9100684261974585
3.064516129032258
3.189638318670577
3.2825024437927666
3.3411534701857284
3.363636363636364
3.35386119257087
3.318670576735093
3.26197458455523
3.1837732160312804
3.0879765395894427
2.978494623655914
2.8563049853372435
2.7253176930596283
2.5865102639296187
2.443792766373412
2.302052785923754
2.164222873900293
2.035190615835777
1.9286412512218964
1.8377321603128052
1.7497556207233629
1.6735092864125125
1.6099706744868034
1.563049853372434
1.5356793743890518
1.525904203323558
1.5327468230694037
1.5532746823069403
1.585532746823069
1.6256109481915937
1.6705767350928642
1.7126099706744868
1.7497556207233629
1.7878787878787878
1.822091886608016
1.8484848484848484
1.8641251221896384
1.8670576735092863
1.8563049853372435
1.8318670576735088
1.796676441837732
1.7526881720430108
1.699902248289345
1.6148582600195502
1.5161290322580645
1.439882697947214
1.3724340175953078
1.3118279569892473
1.2580645161290325
1.2121212121212122
1.1759530791788857
1.1534701857282503
1.1515151515151516
1.1749755620723363
1.227761485826002
1.3098729227761483
1.3998044965786902
1.5024437927663734
1.635386119257087
1.7839687194525904
1.9374389051808407
2.0840664711632453
2.21505376344086
2.324535679374389
2.4086021505376345
2.4652981427174976
2.496578690127077
2.5024437927663734
2.487781036168133
2.4565004887585533
2.407624633431085
2.343108504398827
2.264907135874878
2.174975562072336
2.0762463343108504
1.9716520039100685
1.8631476050830889
1.7526881720430108
1.6451612903225807
1.541544477028348
1.444770283479961
1.3655913978494625
1.300097751710655
1.238514173998045
1.1857282502443791
1.144672531769306
1.118279569892473
1.1055718475073313
1.10752688172043
1.121212121212121
1.1466275659824048
1.181818181818182
1.2238514173998043
1.2649071358748778
1.3049853372434017
1.348973607038123
1.392961876832845
1.4330400782013686
1.4682306940371457
1.495601173020528
1.5151515151515151
1.5268817204301075
1.5298142717497556
1.525904203323558
1.5151515151515151
1.498533724340176
1.4809384164222874
1.4623655913978495
1.4379276637341154
1.4105571847507332
1.3812316715542523
1.3519061583577712
1.3225806451612905
1.2961876832844574
1.2776148582600195
1.2717497556207231
1.2834799608993157
1.3186705767350928
1.3655913978494625
1.4301075268817205
1.5239491691104594
1.6422287390029326
1.775171065493646
1.913978494623656
2.050830889540567
2.177908113391984
2.2873900293255134
2.3743890518084068
2.436950146627566
2.474095796676442
2.4838709677419355
2.4731182795698925
2.443792766373412
2.3958944281524928
2.3313782991202348
2.251221896383187
2.158357771260997
2.0557184750733137
1.945259042033236
1.83088954056696
1.7135874877810362
1.598240469208211
1.487781036168133
1.3958944281524928
1.316715542521994
1.2355816226783969
1.160312805474096
1.0957966764418376
1.0439882697947214
1.0048875855327468
0.9765395894428152
0.9608993157380256
0.9589442815249268
0.967741935483871
0.9863147605083088
1.0097751710654936
1.0391006842619743
1.0762463343108504
1.1173020527859236
1.160312805474096
1.203323558162268
1.2424242424242424
1.2766373411534702
1.3040078201368523
1.324535679374389
1.3372434017595307
1.343108504398827
1.343108504398827
1.3401759530791788
1.335288367546432
1.324535679374389
1.3088954056695992
1.2903225806451613
1.2688172043010753
1.2434017595307918
1.217008797653959
1.1915933528836755
1.1691104594330402
1.152492668621701
1.1466275659824048
1.152492668621701
1.1749755620723363
1.2179863147605083
1.2825024437927663
1.3685239491691104
1.4731182795698925
1.590420332355816
1.715542521994135
1.8435972629521016
1.9667644183773216
2.0791788856304985
2.175953079178885
2.2531769305962857
2.304007820136853
2.332355816226784
2.345063538611926
2.3382209188660803
2.3098729227761488
2.26197458455523
2.196480938416422
2.115347018572825
2.022482893450636
1.921798631476051
1.81524926686217
1.7067448680351909
1.611925708699902
1.5268817204301075
1.435972629521017
1.3479960899315735
1.2688172043010753
1.2013685239491692
1.147605083088954
1.1085043988269794
1.083088954056696
1.072336265884653
1.0762463343108504
1.0928641251221896
1.1202346041055715
1.1515151515151516
1.187683284457478
1.23069403714565
1.2766373411534702
1.3225806451612905
1.3655913978494625
1.4027370478983383
1.4330400782013686
1.455522971652004
1.4701857282502444
1.47702834799609
1.4760508308895406
1.469208211143695
1.458455522971652
1.4418377321603129
1.4203323558162269
1.393939393939394
1.3636363636363635
1.3304007820136852
1.2971652003910068
1.2649071358748778
1.2365591397849462
1.2179863147605083
1.2160312805474096
1.2365591397849462
1.273704789833822
1.3313782991202343
1.4213098729227762
1.5376344086021505
1.675464320625611
1.8269794721407624
1.9824046920821117
2.133919843597263
2.271749755620724
2.3870967741935485
2.47702834799609
2.539589442815249
2.572825024437928
2.581622678396872
2.573802541544477
2.547409579667644
2.505376344086021
2.4486803519061584
2.3792766373411536
2.300097751710655
2.212121212121212
2.117302052785924
2.018572825024438
1.9188660801564028
1.8211143695014664
1.737047898338221
1.66177908113392
1.585532746823069
1.5131964809384164
1.4486803519061584
1.4486803519061584
1.4486803519061584
1.4486803519061584
1.4486803519061584
1.4486803519061584
1.4486803519061584
1.4682306940371457
1.5024437927663734
1.5591397849462365
1.651026392961877
1.7771260997067448
1.932551319648094
2.1065493646138806
2.290322580645161
2.472140762463343
2.643206256109482
2.793743890518084
2.916911045943304
3.007820136852395
3.064516129032258
3.0869990224828934
3.0821114369501466
3.0557184750733137
3.007820136852395
2.940371456500489
2.8563049853372435
2.757575757575758
2.6480938416422286
2.5288367546432062
2.401759530791789
2.270772238514174
2.139784946236559
2.027370478983382
1.9266862170087975
1.8211143695014664
1.7204301075268815
1.6304985337243405
1.5542521994134897
1.4946236559139785
1.4506353861192571
1.4242424242424243
1.4134897360703813
1.4193548387096775
1.4389051808406648
1.4711632453567938
1.5063538611925709
1.543499511241447
1.587487781036168
1.6334310850439884
1.6774193548387095
1.7165200391006843
1.7487781036168133
1.7712609970674489
1.7820136852394917
1.782991202346041
1.7741935483870968
1.7546432062561097
1.7302052785923754
1.7028347996089932
1.6656891495601174
1.6207233626588464
1.5708699902248289
1.5161290322580645
1.4594330400782014
1.401759530791789
1.3450635386119256
1.29227761485826
1.249266862170088
1.2238514173998043
1.2179863147605083
1.2365591397849462
1.2864125122189638
1.3714565004887584
1.490713587487781
1.6383186705767352
1.8084066471163245
1.989247311827957
2.1681329423264906
2.335288367546432
2.482893450635386
2.6050830889540566
2.6959921798631474
2.7497556207233624
2.773216031280548
2.776148582600196
2.7546432062561097
2.7096774193548385
2.644183773216031
2.5591397849462365
2.458455522971652
2.346041055718475
2.2238514173998043
2.0948191593352883
1.9618768328445748
1.844574780058651
1.7380254154447703
1.624633431085044
1.5131964809384164
1.4115347018572826
1.321603128054741
1.2453567937438903
1.18475073313783
1.141739980449658
1.1173020527859236
1.110459433040078
1.121212121212121
1.1466275659824048
1.1798631476050832
1.2189638318670577
1.267839687194526
1.3206256109481915
1.3743890518084063
1.426197458455523
1.4721407624633431
1.512218963831867
1.543499511241447
1.5650048875855327
1.5757575757575757
1.576735092864125
1.5718475073313782
1.560117302052786
1.5376344086021505
1.5083088954056696
1.4721407624633431
1.4291300097751711
1.3822091886608017
1.3313782991202343
1.278592375366569
1.2258064516129032
1.1749755620723363
1.130987292277615
1.0987292277614855
1.0850439882697946
1.0918866080156402
1.1221896383186705
1.1827956989247312
1.2756598240469208
1.3988269794721409
1.5464320625610948
1.710654936461388
1.881720430107527
2.047898338220919
2.19941348973607
2.3284457478005867
2.420332355816227
2.4809384164222874
2.52297165200391
2.5386119257087
2.527859237536657
2.49266862170088
2.4349951124144678
2.357771260997068
2.2658846529814274
2.163245356793744
2.0518084066471163
1.932551319648094
1.8064516129032255
1.6950146627565983
1.5923753665689149
1.478005865102639
1.3616813294232648
1.2502443792766371
1.147605083088954
1.0586510263929618
0.9833822091886608
0.9247311827956988
0.8836754643206256
0.8592375366568915
0.8533724340175953
0.8611925708699902
0.8826979472140762
0.9159335288367546
0.959921798631476
1.0127077223851415
1.0733137829912025
1.13880742913001
1.203323558162268
1.2639296187683284
1.3176930596285434
1.3636363636363635
1.401759530791789
1.4301075268817205
1.4496578690127078
1.4594330400782014
1.4594330400782014
1.4496578690127078
1.43108504398827
1.404692082111437
1.3734115347018572
1.3391984359726294
1.3020527859237536
1.2619745845552297
1.2209188660801564
1.1788856304985338
1.1436950146627567
1.115347018572825
1.088954056695992
1.0694037145650048
1.064516129032258
1.0821114369501466
1.1251221896383188
1.1974584555229717
1.300097751710655
1.4291300097751711
1.5777126099706744
1.7390029325513197
1.905180840664712
2.046920821114369
2.1681329423264906
2.289345063538612
2.393939393939394
2.4760508308895406
2.5317693059628543
2.558162267839687
2.555229716520039
2.525904203323558
2.4731182795698925
2.40078201368524
2.3098729227761488
2.217986314760508
2.1221896383186705
2.005865102639296
1.87683284457478
1.7419354838709675
1.606060606060606
1.4750733137829912
1.3558162267839686
1.249266862170088
1.1593352883675463
1.0879765395894427
1.0391006842619743
1.0117302052785924
1.0048875855327468
1.0166177908113392
1.0449657869012707
1.0918866080156402
1.1564027370478984
1.2365591397849462
1.3284457478005864
1.426197458455523
1.525904203323558
1.619745845552297
1.7028347996089932
1.772238514173998
1.822091886608016
1.8543499511241448
1.8729227761485825
1.878787878787879
1.8729227761485825
1.8563049853372435
1.8318670576735088
1.801564027370479
1.7673509286412512
1.7282502443792769
1.6842619745845553
1.635386119257087
1.5786901270772238
1.5483870967741935
1.533724340175953
1.499511241446725
1.4613880742913
1.4330400782013686
1.4242424242424243
1.4428152492668622
1.4936461388074291
1.576735092864125
1.6881720430107527
1.8211143695014664
1.9657869012707725
2.0928641251221896
2.2052785923753664
2.318670576735093
2.4164222873900294
2.489736070381232
2.535679374389052
2.5532746823069403
2.544477028347996
2.512218963831867
2.4594330400782014
1.5366568914956011
1.7272727272727273
1.9872922776148585
2.2140762463343107
2.423264907135875
2.616813294232649
2.788856304985337
2.935483870967742
3.050830889540567
3.131964809384164
3.1788856304985336
3.1915933528836757
3.176930596285435
3.1388074291300097
3.0791788856304985
2.99902248289345
2.903225806451613
2.793743890518084
2.675464320625611
2.5513196480938416
2.420332355816227
2.2883675464320627
2.158357771260997
2.0332355816226784
1.9286412512218964
1.839687194525904
1.750733137829912
1.667644183773216
1.5972629521016617
1.541544477028348
1.501466275659824
1.478005865102639
1.4721407624633431
1.482893450635386
1.5073313782991202
1.544477028347996
1.5913978494623655
1.6392961876832846
1.689149560117302
1.7438905180840665
1.7986314760508308
1.8494623655913975
1.8944281524926687
1.9305962854349952
1.9579667644183771
1.9745845552297163
1.9804496578690127
1.975562072336266
1.959921798631476
1.9403714565004888
1.9159335288367547
1.881720430107527
1.8406647116324533
1.793743890518084
1.7429130009775171
1.6881720430107527
1.632453567937439
1.5777126099706744
1.5288367546432062
1.4926686217008798
1.4760508308895406
1.4858260019550342
1.5161290322580645
1.5708699902248289
1.6598240469208212
1.7790811339198436
1.9227761485826005
2.080156402737048
2.241446725317693
2.3958944281524928
2.533724340175953
2.649071358748778
2.736070381231672
2.793743890518084
2.8211143695014664
2.820136852394917
2.7966764418377323
2.7517106549364616
2.686217008797654
2.603128054740958
2.505376344086021
2.3958944281524928
2.2766373411534704
2.1515151515151514
2.0234604105571847
1.8963831867057677
1.7732160312805474
1.6715542521994136
1.5835777126099706
1.4926686217008798
1.4076246334310851
1.335288367546432
1.2776148582600195
1.2355816226783969
1.2101661779081134
1.2023460410557183
1.2111436950146628
1.2346041055718475
1.273704789833822
1.3186705767350928
1.3685239491691104
1.4281524926686218
1.4926686217008798
1.5581622678396871
1.6217008797653958
1.6774193548387095
1.7243401759530792
1.7605083088954057
1.7839687194525904
1.793743890518084
1.7927663734115349
1.7810361681329423
1.7644183773216031
1.7448680351906158
1.715542521994135
1.6803519061583578
1.643206256109482
1.6041055718475072
1.5620723362658846
1.5180840664711632
1.4750733137829912
1.4349951124144673
1.4007820136852396
1.3782991202346042
1.3724340175953078
1.388074291300098
1.4301075268817205
1.5034213098729228
1.6080156402737047
1.7409579667644184
1.895405669599218
2.0625610948191597
2.232649071358749
2.3949169110459434
2.5386119257087
2.6578690127077222
2.745845552297165
2.7976539589442817
2.8181818181818183
2.81622678396872
2.789833822091887
2.739980449657869
2.667644183773216
2.5777126099706744
2.4731182795698925
2.355816226783969
2.228739002932551
2.096774193548387
1.962854349951124
1.8465298142717497
1.7429130009775171
1.6314760508308896
1.52297165200391
1.4222873900293256
1.3343108504398826
1.2619745845552297
1.2052785923753666
1.166177908113392
1.144672531769306
1.1397849462365592
1.1495601173020529
1.1710654936461389
1.2023460410557183
1.2443792766373412
1.2942326490713587
1.348973607038123
1.4076246334310851
1.4672531769305963
1.5239491691104594
1.5747800586510263
1.6187683284457477
1.653958944281525
1.6803519061583578
1.696969696969697
1.704789833822092
1.704789833822092
1.6950146627565983
1.675464320625611
1.6490713587487782
1.616813294232649
1.5796676441837731
1.5395894428152492
1.498533724340176
1.455522971652004
1.4115347018572826
1.3695014662756595
1.3391984359726294
1.3186705767350928
1.3040078201368523
1.3049853372434017
1.3284457478005864
1.380254154447703
1.4623655913978495
1.573802541544477
1.7086999022482894
1.8621700879765395
2.0254154447702835
2.1867057673509285
2.337243401759531
2.455522971652004
2.5464320625610948
2.625610948191593
2.681329423264907
2.7096774193548385
2.710654936461388
2.684261974584555
2.633431085043988
2.5620723362658846
2.472140762463343
2.366568914956012
2.2502443792766376
2.1417399804496577
2.037145650048876
1.9178885630498532
1.793743890518084
1.6695992179863148
1.5513196480938416
1.4428152492668622
1.3479960899315735
1.2688172043010753
1.2072336265884651
1.164222873900293
1.1407624633431086
1.1368523949169111
1.1495601173020529
1.1759530791788857
1.2160312805474096
1.270772238514174
1.335288367546432
1.4066471163245358
1.4838709677419355
1.5620723362658846
1.6373411534701858
1.70772238514174
1.76930596285435
1.8191593352883677
1.855327468230694
1.8807429130009776
1.8973607038123168
1.905180840664712
1.902248289345064
1.8905180840664717
1.869012707722385
1.839687194525904
1.804496578690127
1.7653958944281525
1.7223851417399805
1.675464320625611
1.6265884652981428
1.585532746823069
1.552297165200391
1.525904203323558
1.5161290322580645
1.530791788856305
1.5757575757575757
1.6549364613880744
1.7653958944281525
1.8602150537634408
1.9521016617790807
2.0821114369501466
2.2267839687194524
2.3499511241446727
2.452590420332356
2.5513196480938416
2.631476050830889
2.686217008797654
2.713587487781036
2.7116324535679373
2.6823069403714563
2.63049853372434
2.558162267839687
2.4682306940371457
2.366568914956012
2.257086999022483
2.155425219941349
2.0576735092864125
1.948191593352884
1.833822091886608
1.721407624633431
1.6158357771260996
1.520039100684262
1.4349951124144673
1.3626588465298142
1.3049853372434017
1.2639296187683284
1.2404692082111437
1.2346041055718475
1.2434017595307918
1.2658846529814272
1.3010752688172045
1.3479960899315735
1.4037145650048877
1.466275659824047
1.5317693059628543
1.595307917888563
1.6559139784946235
1.7096774193548387
1.7556207233626588
1.7917888563049853
1.8162267839687196
1.83088954056696
1.8387096774193548
1.8387096774193548
1.8299120234604105
1.8142717497556209
1.7917888563049853
1.7644183773216031
1.732160312805474
1.6959921798631477
1.6559139784946235
1.6138807429130009
1.576735092864125
1.542521994134897
1.5063538611925709
1.47702834799609
1.4633431085043989
1.4750733137829912
1.521016617790811
1.603128054740958
1.7223851417399805
1.8748778103616808
2.050830889540567
2.2375366568914954
2.423264907135875
2.5747800586510263
2.697947214076246
2.8132942326490715
2.906158357771261
2.9696969696969697
3.0019550342130987
3.0009775171065494
2.9716520039100685
2.917888563049853
2.844574780058651
2.7565982404692084
2.6559139784946235
2.5591397849462365
2.462365591397849
2.3528836754643208
2.2346041055718477
2.113391984359726
1.9951124144672527
1.881720430107527
1.7761485826001957
1.6803519061583578
1.5972629521016617
1.5288367546432062
1.4750733137829912
1.435972629521017
1.414467253176931
1.4086021505376345
1.41544477028348
1.4379276637341154
1.4750733137829912
1.52297165200391
1.5796676441837731
1.6412512218963833
1.704789833822092
1.7663734115347018
1.823069403714565
1.873900293255132
1.9120234604105573
1.93841642228739
1.959921798631476
1.9736070381231672
1.975562072336266
1.9657869012707725
1.946236559139785
1.9178885630498532
1.8807429130009776
1.836754643206256
1.7888563049853372
1.7390029325513197
1.6871945259042034
1.6422287390029326
1.6001955034213098
1.552297165200391
1.504398826979472
1.4633431085043989
1.4379276637341154
1.435972629521017
1.4633431085043989
1.5249266862170088
1.6226783968719452
1.7526881720430108
1.90811339198436
2.053763440860215
2.1925708699902247
2.346041055718475
2.493646138807429
2.622678396871945
2.7262952101661777
2.7996089931573804
2.841642228739003
2.854349951124145
2.8396871945259043
2.801564027370479
2.742913000977517
2.677419354838709
2.6041055718475072
2.5141739980449658
2.4115347018572826
2.2991202346041058
2.1818181818181817
2.0625610948191597
1.9442815249266865
1.83088954056696
1.7253176930596286
1.629521016617791
1.5464320625610948
1.47702834799609
1.4271749755620724
1.393939393939394
1.3695014662756595
1.3577712609970674
1.3607038123167154
1.3773216031280548
1.4086021505376345
1.4506353861192571
1.501466275659824
1.5581622678396871
1.616813294232649
1.6735092864125125
1.721407624633431
1.7624633431085044
1.801564027370479
1.8347996089931573
1.8602150537634408
1.87683284457478
1.881720430107527
1.8748778103616808
1.8592375366568916
1.8347996089931573
1.804496578690127
1.7683284457478006
1.7282502443792769
1.6920821114369502
1.6559139784946235
1.611925708699902
1.563049853372434
1.5112414467253177
1.458455522971652
1.4086021505376345
1.3685239491691104
1.3450635386119256
1.3450635386119256
1.375366568914956
1.439882697947214
1.520039100684262
1.616813294232649
1.7448680351906158
1.8914956011730208
2.0449657869012707
2.1945259042033234
2.3284457478005867
2.4408602150537635
2.525904203323558
2.582600195503421
2.608993157380254
2.6070381231671558
2.5806451612903225
2.5405669599217986
2.487781036168133
2.4164222873900294
2.3304007820136854
2.232649071358749
2.1251221896383186
2.0117302052785924
1.8963831867057677
1.7810361681329423
1.6666666666666667
1.5571847507331378
1.455522971652004
1.3743890518084063
1.3098729227761483
1.24633431085044
1.1915933528836755
1.1495601173020529
1.1202346041055715
1.1055718475073313
1.1065493646138806
1.1231671554252198
1.1534701857282503
1.1964809384164223
1.2473118279569892
1.3049853372434017
1.359726295210166
1.4115347018572826
1.466275659824047
1.5190615835777126
1.5679374389051808
1.6080156402737047
1.6392961876832846
1.6627565982404693
1.6774193548387095
1.6823069403714566
1.678396871945259
1.6666666666666667
1.6529814271749756
1.6373411534701858
