ppg
1.8211143695014664
1.7898338220918866
1.7605083088954057
1.7360703812316716
1.7165200391006843
1.699902248289345
1.686217008797654
1.6735092864125125
1.66177908113392
1.651026392961877
1.6412512218963833
1.6314760508308896
1.6207233626588464
1.6099706744868034
1.6001955034213098
1.5884652981427174
1.5757575757575757
1.5620723362658846
1.547409579667644
1.533724340175953
1.520039100684262
1.5073313782991202
1.4946236559139785
1.4819159335288368
1.4682306940371457
1.457478005865103
1.4486803519061584
1.4379276637341154
1.4271749755620724
1.41544477028348
1.4027370478983383
1.391006842619746
1.3782991202346042
1.367546432062561
1.356793743890518
1.346041055718475
1.3362658846529814
1.327468230694037
1.321603128054741
1.316715542521994
1.310850439882698
1.3040078201368523
1.2981427174975562
1.29227761485826
1.2873900293255132
1.2825024437927663
1.2776148582600195
1.2717497556207231
1.2668621700879763
1.262952101661779
1.2619745845552297
1.262952101661779
1.2639296187683284
1.2658846529814272
1.2668621700879763
1.2658846529814272
1.2639296187683284
1.2590420332355816
1.252199413489736
1.2473118279569892
1.249266862170088
1.262952101661779
1.2961876832844574
1.343108504398827
1.409579667644184
1.5102639296187683
1.640273704789834
1.7917888563049853
1.9560117302052784
2.1221896383186705
2.2825024437927666
2.429130009775171
2.557184750733138
2.665689149560117
2.7546432062561097
2.814271749755621
2.8533724340175954
2.886608015640274
2.9120234604105573
2.9266862170087977
2.9315738025415445
2.9286412512218964
2.917888563049853
2.9012707722385143
2.8797653958944283
2.8533724340175954
2.8211143695014664
2.7839687194525906
2.744868035190616
2.701857282502444
2.652003910068426
2.5962854349951123
2.533724340175953
2.4652981427174976
2.3919843597262958
2.312805474095797
2.23069403714565
2.147605083088954
2.0635386119257086
1.9824046920821117
1.913978494623656
1.8406647116324533
1.775171065493646
1.7311827956989247
1.6881720430107527
1.6500488758553276
1.6177908113391983
1.5913978494623655
1.5698924731182795
1.552297165200391
1.5376344086021505
1.5249266862170088
1.512218963831867
1.5024437927663734
1.4936461388074291
1.4819159335288368
1.469208211143695
1.455522971652004
1.4408602150537635
1.426197458455523
1.4105571847507332
1.3949169110459434
1.3792766373411536
1.3636363636363635
1.3470185728250244
1.3333333333333333
1.321603128054741
1.3069403714565004
1.29227761485826
1.2766373411534702
1.2609970674486803
1.2434017595307918
1.2267839687194526
1.2111436950146628
1.195503421309873
1.1808406647116323
1.1671554252199414
1.1534701857282503
1.1456500488758554
1.1397849462365592
1.110459433040078
1.0694037145650048
1.043010752688172
1.024437927663734
1.010752688172043
1.0
0.989247311827957
0.9794721407624634
0.9696969696969696
0.959921798631476
0.9550342130987292
0.9521016617790812
0.9481915933528836
0.9433040078201368
0.93841642228739
0.9345063538611924
0.9325513196480938
0.9315738025415444
0.9305962854349952
0.9296187683284456
0.927663734115347
0.9247311827956988
0.9208211143695014
0.9208211143695014
0.9237536656891496
0.9305962854349952
0.9501466275659824
0.9921798631476052
1.06158357771261
1.163245356793744
1.2942326490713587
1.4486803519061584
1.6177908113391983
1.7927663734115349
1.963831867057673
2.104594330400782
2.219941348973607
2.332355816226784
2.432062561094819
2.5131964809384164
2.575757575757576
2.6207233626588464
2.650048875855328
2.664711632453568
2.667644183773216
2.659824046920821
2.6422287390029324
2.619745845552297
2.592375366568915
2.560117302052786
2.5239491691104594
2.4819159335288368
2.4349951124144678
2.3822091886608017
2.324535679374389
2.260019550342131
2.190615835777126
2.117302052785924
2.040078201368524
1.9589442815249267
1.8866080156402736
1.8201368523949168
1.7487781036168133
1.6793743890518085
1.6148582600195502
1.5581622678396871
1.5102639296187683
1.4721407624633431
1.444770283479961
1.426197458455523
1.4164222873900294
1.414467253176931
1.418377321603128
1.4271749755620724
1.4389051808406648
1.452590420332356
1.4682306940371457
1.4838709677419355
1.498533724340176
1.5112414467253177
1.521994134897361
1.530791788856305
1.5376344086021505
1.542521994134897
1.544477028347996
1.5454545454545454
1.544477028347996
1.541544477028348
1.5376344086021505
1.5317693059628543
1.5249266862170088
1.520039100684262
1.5141739980449658
1.5083088954056696
1.5024437927663734
1.495601173020528
1.4887585532746823
1.4838709677419355
1.478983382209189
1.4731182795698925
1.4652981427174976
1.455522971652004
1.4428152492668622
1.4301075268817205
1.4164222873900294
1.4027370478983383
1.3900293255131966
1.3782991202346042
1.367546432062561
1.3587487781036167
1.3528836754643203
1.348973607038123
1.343108504398827
1.3362658846529814
1.3294232649071358
1.3235581622678396
1.3186705767350928
1.3147605083088951
1.3128054740957966
1.313782991202346
1.313782991202346
1.313782991202346
1.3157380254154447
1.316715542521994
1.316715542521994
1.3157380254154447
1.3128054740957966
1.3069403714565004
1.3010752688172045
1.2961876832844574
1.2981427174975562
1.3147605083088951
1.3548387096774193
1.423264907135875
1.521994134897361
1.629521016617791
1.7497556207233629
1.902248289345064
2.0733137829912023
2.249266862170088
2.419354838709677
2.575757575757576
2.713587487781036
2.8299120234604107
2.9257086999022484
3.0009775171065494
3.056695992179863
3.088954056695992
3.103616813294233
3.112414467253177
3.114369501466276
3.10752688172043
3.09188660801564
3.0684261974584555
3.038123167155425
3.0019550342130987
2.959921798631476
2.913000977517106
2.860215053763441
2.801564027370479
2.742913000977517
2.6823069403714563
2.6129032258064515
2.5347018572825024
2.449657869012708
2.360703812316716
2.2688172043010755
2.175953079178885
2.085043988269794
1.997067448680352
1.9159335288367547
1.8406647116324533
1.7790811339198436
1.7302052785923754
1.6842619745845553
1.6441837732160314
1.6099706744868034
1.581622678396872
1.5591397849462365
1.5405669599217986
1.5249266862170088
1.5112414467253177
1.4965786901270772
1.4819159335288368
1.466275659824047
1.4535679374389052
1.4418377321603129
1.4291300097751711
1.41544477028348
1.401759530791789
1.3870967741935485
1.3734115347018572
1.359726295210166
1.346041055718475
1.3313782991202343
1.3176930596285434
1.303030303030303
1.2932551319648091
1.2854349951124144
1.2766373411534702
1.2668621700879763
1.2570869990224829
1.2473118279569892
1.2365591397849462
1.2267839687194526
1.2179863147605083
1.2101661779081134
1.2023460410557183
1.195503421309873
1.187683284457478
1.1827956989247312
1.1788856304985338
1.1720430107526882
1.1652003910068427
1.1583577712609971
1.1515151515151516
1.1466275659824048
1.1436950146627567
1.1407624633431086
1.1397849462365592
1.13880742913001
1.13880742913001
1.1397849462365592
1.142717497556207
1.1436950146627567
1.144672531769306
1.144672531769306
1.144672531769306
1.1436950146627567
1.141739980449658
1.1378299120234605
1.1319648093841643
1.1251221896383188
1.121212121212121
1.1251221896383188
1.1397849462365592
1.1691104594330402
1.2238514173998043
1.3079178885630498
1.423264907135875
1.5669599217986314
1.732160312805474
1.9071358748778104
2.081133919843597
2.2453567937438903
2.393939393939394
2.52297165200391
2.6177908113391983
2.687194525904203
2.7497556207233624
2.798631476050831
2.833822091886608
2.855327468230694
2.865102639296188
2.865102639296188
2.857282502443793
2.817204301075269
2.758553274682307
2.7126099706744866
2.6715542521994133
2.632453567937439
2.591397849462365
2.5454545454545454
2.4946236559139785
2.439882697947214
2.3792766373411536
2.313782991202346
2.242424242424242
2.166177908113392
2.0869990224828934
2.005865102639296
1.924731182795699
1.8543499511241448
1.7927663734115349
1.7282502443792769
1.6666666666666667
1.611925708699902
1.5650048875855327
1.525904203323558
1.4946236559139785
1.469208211143695
1.4486803519061584
1.4320625610948192
1.418377321603128
1.409579667644184
1.4027370478983383
1.3949169110459434
1.3861192570869991
1.3763440860215057
1.3665689149560116
1.3558162267839686
1.3450635386119256
1.332355816226784
1.3186705767350928
1.3040078201368523
1.289345063538612
1.2746823069403714
1.2639296187683284
1.2551319648093842
1.2443792766373412
1.2316715542521994
1.219941348973607
1.2082111436950147
1.1974584555229717
1.187683284457478
1.176930596285435
1.1652003910068427
1.1544477028347997
1.1436950146627567
1.1368523949169111
1.130987292277615
1.1231671554252198
1.1133919843597262
1.1036168132942326
1.093841642228739
1.0850439882697946
1.0762463343108504
1.0684261974584557
1.0606060606060606
1.0527859237536656
1.0469208211143697
1.0420332355816226
1.040078201368524
1.0410557184750733
1.0391006842619743
1.035190615835777
1.0303030303030305
1.0254154447702837
1.0205278592375366
1.0156402737047898
1.0117302052785924
1.0097751710654936
1.0087976539589445
1.0087976539589445
1.0117302052785924
1.0166177908113392
1.0195503421309873
1.0205278592375366
1.0205278592375366
1.018572825024438
1.0166177908113392
1.0175953079178883
1.0263929618768328
1.0498533724340176
1.0928641251221896
1.1974584555229717
1.3128054740957966
1.391006842619746
1.4936461388074291
1.632453567937439
1.7888563049853372
1.951124144672532
2.10752688172043
2.2502443792766376
2.375366568914956
2.479960899315738
2.5640273704789838
2.634408602150537
2.6852394916911044
2.7096774193548385
1.3978494623655917
1.3861192570869991
1.3743890518084063
1.3616813294232648
1.348973607038123
1.3372434017595307
1.3264907135874875
1.316715542521994
1.305962854349951
1.2981427174975562
1.29227761485826
1.284457478005865
1.2746823069403714
1.2649071358748778
1.2570869990224829
1.249266862170088
1.2424242424242424
1.2346041055718475
1.2267839687194526
1.2189638318670577
1.2111436950146628
1.2072336265884651
1.2043010752688172
1.2013685239491692
1.198435972629521
1.195503421309873
1.1925708699902249
1.1906158357771262
1.1896383186705768
1.1896383186705768
1.1915933528836755
1.1925708699902249
1.1935483870967742
1.1964809384164223
1.1994134897360704
1.1994134897360704
1.1964809384164223
1.1915933528836755
1.1886608015640274
1.1915933528836755
1.2082111436950147
1.2453567937438903
1.310850439882698
1.4076246334310851
1.5356793743890518
1.6911045943304008
1.8387096774193548
1.9833822091886608
2.145650048875855
2.30791788856305
2.458455522971652
2.592375366568915
2.705767350928641
2.798631476050831
2.870967741935484
2.9257086999022484
2.962854349951124
2.98435972629521
2.991202346041056
2.986314760508309
2.9775171065493646
2.963831867057673
2.9442815249266863
2.918866080156403
2.886608015640274
2.849462365591398
2.8054740957966766
2.755620723362659
2.7008797653958942
2.6402737047898337
2.573802541544477
2.5083088954056696
2.4408602150537635
2.363636363636364
2.2795698924731185
2.1915933528836757
2.101661779081134
2.0127077223851417
1.927663734115347
1.847507331378299
1.7741935483870968
1.7086999022482894
1.6520039100684265
1.6080156402737047
1.5747800586510263
1.544477028347996
1.5190615835777126
1.4975562072336266
1.4809384164222874
1.4672531769305963
1.455522971652004
1.4437927663734116
1.4320625610948192
1.4213098729227762
1.409579667644184
1.3978494623655917
1.3890518084066472
1.3812316715542523
1.3685239491691104
1.3519061583577712
1.3343108504398826
1.3157380254154447
1.2971652003910068
1.278592375366569
1.2609970674486803
1.2443792766373412
1.227761485826002
1.2111436950146628
1.1994134897360704
1.1896383186705768
1.1779081133919844
1.1652003910068427
1.1515151515151516
1.1378299120234605
1.1241446725317692
1.1114369501466277
1.099706744868035
1.088954056695992
1.078201368523949
1.067448680351906
1.056695992179863
1.050830889540567
1.0469208211143697
1.0420332355816226
1.0371456500488758
1.032258064516129
1.0273704789833822
1.0234604105571847
1.0195503421309873
1.0156402737047898
1.0117302052785924
1.0068426197458455
1.0039100684261977
1.0039100684261977
1.0068426197458455
1.007820136852395
1.0068426197458455
1.0048875855327468
1.002932551319648
1.0
0.997067448680352
0.9941348973607038
0.9912023460410556
0.9863147605083088
0.9804496578690128
0.975562072336266
0.9765395894428152
0.9843597262952102
1.002932551319648
1.0410557184750733
1.10752688172043
1.206256109481916
1.3362658846529814
1.4916911045943304
1.6637341153470186
1.842619745845552
2.016617790811339
2.1788856304985336
2.3069403714565007
2.407624633431085
2.5024437927663734
2.581622678396872
2.644183773216031
2.689149560117302
2.717497556207233
2.7311827956989245
2.730205278592375
2.717497556207233
2.695014662756598
2.6637341153470184
2.6265884652981426
2.587487781036168
2.5464320625610948
2.4995112414467253
2.44672531769306
2.367546432062561
2.2737047898338223
2.1945259042033234
2.121212121212121
2.047898338220919
1.9726295210166176
1.8973607038123168
1.823069403714565
1.7595307917888563
1.704789833822092
1.651026392961877
1.6011730205278591
1.5581622678396871
1.5249266862170088
1.501466275659824
1.487781036168133
1.4819159335288368
1.482893450635386
1.490713587487781
1.5034213098729228
1.520039100684262
1.5366568914956011
1.5532746823069403
1.5708699902248289
1.587487781036168
1.6021505376344083
1.6138807429130009
1.6226783968719452
1.6275659824046922
1.6304985337243405
1.6304985337243405
1.6275659824046922
1.6226783968719452
1.6187683284457477
1.6129032258064515
1.6050830889540566
1.595307917888563
1.58455522971652
1.5728250244379276
1.560117302052786
1.5464320625610948
1.5327468230694037
1.5180840664711632
1.5034213098729228
1.4887585532746823
1.474095796676442
1.4633431085043989
1.4545454545454546
1.4437927663734116
1.434017595307918
1.4242424242424243
1.4134897360703813
1.404692082111437
1.396871945259042
1.3900293255131966
1.383186705767351
1.3763440860215057
1.370478983382209
1.3665689149560116
1.364613880742913
1.3626588465298142
1.359726295210166
1.356793743890518
1.35386119257087
1.3509286412512218
1.3470185728250244
1.3440860215053765
1.3411534701857282
1.33822091886608
1.335288367546432
1.332355816226784
1.3313782991202343
1.3313782991202343
1.3294232649071358
1.3255131964809383
1.3206256109481915
1.3157380254154447
1.3128054740957966
1.3176930596285434
1.3372434017595307
1.3792766373411536
1.4496578690127078
1.5493646138807429
1.6549364613880744
1.7702834799608993
1.9159335288367547
2.074291300097752
2.2355816226783967
2.389051808406647
2.5288367546432062
2.6510263929618767
2.7536656891495603
2.8367546432062563
2.9012707722385143
2.949169110459433
2.9765395894428157
2.989247311827957
2.9980449657869013
2.99902248289345
2.9931573802541545
2.981427174975562
2.963831867057673
2.940371456500489
2.9120234604105573
2.878787878787879
2.8406647116324537
2.7966764418377323
2.7468230694037143
2.6959921798631474
2.644183773216031
2.58455522971652
2.5180840664711632
2.444770283479961
2.366568914956012
2.2844574780058653
2.19941348973607
2.113391984359726
2.0303030303030303
1.9521016617790807
1.8807429130009776
1.823069403714565
1.775171065493646
1.729227761485826
1.689149560117302
1.6559139784946235
1.6285434995112416
1.606060606060606
1.5884652981427174
1.5728250244379276
1.5591397849462365
1.5454545454545454
1.5327468230694037
1.521016617790811
1.512218963831867
1.504398826979472
1.4936461388074291
1.4809384164222874
1.4672531769305963
1.4545454545454546
1.4418377321603129
1.4291300097751711
1.4164222873900294
1.404692082111437
1.393939393939394
1.3841642228739004
1.3763440860215057
1.370478983382209
1.3616813294232648
1.3519061583577712
1.3421309872922775
1.332355816226784
1.3225806451612905
1.3128054740957966
1.303030303030303
1.2932551319648091
1.284457478005865
1.2756598240469208
1.267839687194526
1.262952101661779
1.260019550342131
1.2561094819159335
1.2502443792766371
1.2443792766373412
1.238514173998045
1.2326490713587488
1.2258064516129032
1.219941348973607
1.2130987292277615
1.2072336265884651
1.203323558162268
1.2023460410557183
1.2023460410557183
1.2013685239491692
1.2003910068426198
1.1994134897360704
1.198435972629521
1.198435972629521
1.198435972629521
1.198435972629521
1.1964809384164223
1.1935483870967742
1.1896383186705768
1.1867057673509287
1.187683284457478
1.198435972629521
1.2228739002932552
1.267839687194526
1.3391984359726294
1.4408602150537635
1.5698924731182795
1.718475073313783
1.878787878787879
2.040078201368524
2.1945259042033234
2.335288367546432
2.443792766373412
2.527859237536657
2.6041055718475072
2.667644183773216
2.716520039100684
2.748778103616813
2.7653958944281527
2.7702834799608995
2.7653958944281527
2.752688172043011
2.7331378299120237
2.7067448680351904
2.675464320625611
2.641251221896383
2.6041055718475072
2.563049853372434
2.5180840664711632
2.4672531769305963
2.410557184750733
2.3489736070381237
2.2825024437927666
2.212121212121212
2.1358748778103616
2.056695992179863
1.9745845552297163
1.9012707722385145
1.8328445747800584
1.758553274682307
1.6852394916911049
1.6158357771260996
1.552297165200391
1.4965786901270772
1.4496578690127078
1.4115347018572826
1.3812316715542523
1.3577712609970674
1.3401759530791788
1.327468230694037
1.3206256109481915
1.3176930596285434
1.3147605083088951
1.3118279569892473
1.3088954056695992
1.3069403714565004
1.3040078201368523
1.3010752688172045
1.2961876832844574
1.2903225806451613
1.2834799608993157
1.2746823069403714
1.2688172043010753
1.262952101661779
1.2551319648093842
1.2453567937438903
1.2346041055718475
1.2228739002932552
1.2101661779081134
1.1974584555229717
1.18475073313783
1.1710654936461389
1.1573802541544478
1.1094819159335287
1.0449657869012707
1.0097751710654936
0.9882697947214076
0.9696969696969696
0.9521016617790812
0.9364613880742912
0.9217986314760508
0.9081133919843596
0.8944281524926686
0.8807429130009775
0.8690127077223851
0.8602150537634409
0.852394916911046
0.8494623655913979
0.8484848484848485
0.844574780058651
0.8396871945259042
0.8347996089931574
0.83088954056696
0.8279569892473119
0.8250244379276638
0.8220918866080157
0.820136852394917
0.8191593352883676
0.8191593352883676
0.8211143695014663
0.8269794721407625
0.8357771260997068
0.8435972629521017
0.8504398826979472
0.855327468230694
0.8582600195503421
0.8602150537634409
0.8611925708699902
0.8651026392961877
0.8768328445747801
0.9022482893450636
0.9481915933528836
1.007820136852395
1.088954056695992
1.2072336265884651
1.3577712609970674
1.5327468230694037
1.7223851417399805
1.9149560117302051
2.1006842619745845
2.271749755620724
2.4222873900293256
2.550342130987292
2.654936461388074
2.736070381231672
2.787878787878788
2.8181818181818183
2.8406647116324537
2.8514173998044967
2.850439882697948
2.838709677419355
2.819159335288368
2.791788856304985
2.7565982404692084
2.7155425219941347
2.6695992179863146
2.618768328445748
2.5669599217986314
2.512218963831867
2.450635386119257
2.383186705767351
2.310850439882698
2.233626588465298
2.15347018572825
2.070381231671554
1.9872922776148585
1.906158357771261
1.8299120234604105
1.7605083088954057
1.7057673509286413
1.66177908113392
1.6217008797653958
1.5894428152492668
1.5650048875855327
1.547409579667644
1.5366568914956011
1.5317693059628543
1.5298142717497556
1.530791788856305
1.533724340175953
1.5376344086021505
1.541544477028348
1.544477028347996
1.5464320625610948
1.547409579667644
1.5464320625610948
1.543499511241447
1.5386119257087
1.5317693059628543
1.52297165200391
1.5131964809384164
1.5024437927663734
1.4926686217008798
1.482893450635386
1.4750733137829912
1.466275659824047
1.455522971652004
1.4428152492668622
1.4301075268817205
1.4164222873900294
1.4007820136852396
1.3841642228739004
1.3665689149560116
1.348973607038123
1.332355816226784
1.316715542521994
1.3020527859237536
1.2913000977517106
1.2825024437927663
1.2717497556207231
1.2609970674486803
1.2502443792766371
1.2394916911045943
1.2297165200391007
1.2209188660801564
1.2121212121212122
1.2052785923753666
1.1994134897360704
1.1935483870967742
1.1906158357771262
1.1896383186705768
1.1867057673509287
1.1837732160312806
1.1827956989247312
1.181818181818182
1.181818181818182
1.1808406647116323
1.1788856304985338
1.1749755620723363
1.1710654936461389
1.1671554252199414
1.166177908113392
1.1720430107526882
1.187683284457478
1.2218963831867058
1.281524926686217
1.3724340175953078
1.4936461388074291
1.640273704789834
1.8054740957966764
1.9794721407624636
2.15347018572825
2.317693059628544
2.4652981427174976
2.5777126099706744
2.6637341153470184
2.7438905180840663
2.811339198435973
2.865102639296188
2.9042033235581624
2.930596285434995
2.945259042033236
2.9501466275659824
2.9472140762463344
2.936461388074292
2.918866080156403
2.895405669599218
2.866080156402737
2.832844574780059
2.7947214076246336
2.7517106549364616
2.7038123167155423
2.6510263929618767
2.592375366568915
2.527859237536657
2.4574780058651027
2.3812316715542523
2.300097751710655
2.2140762463343107
2.1358748778103616
2.060606060606061
1.978494623655914
1.8944281524926687
1.812316715542522
1.7350928641251222
1.6656891495601174
1.603128054740958
1.5503421309872922
1.5063538611925709
1.4711632453567938
1.4418377321603129
1.418377321603128
1.401759530791789
1.3890518084066472
1.3773216031280548
1.3655913978494625
1.3528836754643203
1.3391984359726294
1.3255131964809383
1.3118279569892473
1.2971652003910068
1.2805474095796676
1.2619745845552297
1.2424242424242424
1.2267839687194526
1.2121212121212122
1.1935483870967742
1.173998044965787
1.155425219941349
1.1368523949169111
1.1192570869990224
1.1006842619745845
1.083088954056696
1.0654936461388074
1.0488758553274682
1.032258064516129
1.0166177908113392
1.0058651026392962
0.997067448680352
0.9863147605083088
0.9736070381231672
0.9608993157380256
0.9472140762463344
0.9335288367546432
0.9217986314760508
0.9100684261974584
0.8993157380254154
0.8895405669599218
0.8797653958944281
0.8748778103616813
0.8719452590420332
0.8660801564027371
0.8582600195503421
0.8514173998044966
0.844574780058651
0.8377321603128055
0.83088954056696
0.8250244379276638
0.820136852394917
0.8162267839687195
0.8132942326490714
0.8103616813294232
0.8103616813294232
0.8103616813294232
0.8074291300097751
0.8015640273704789
0.793743890518084
0.7878787878787878
0.7869012707722385
0.7976539589442815
0.8269794721407625
0.8826979472140762
0.9687194525904204
1.086021505376344
1.2072336265884651
1.3372434017595307
1.4946236559139785
1.6637341153470186
1.8318670576735088
2.016617790811339
2.1945259042033234
2.329423264907136
2.432062561094819
2.509286412512219
2.565982404692082
2.6041055718475072
2.627565982404692
2.635386119257087
2.632453567937439
2.624633431085044
2.611925708699902
2.5943304007820136
2.570869990224829
2.5425219941348973
2.5112414467253177
2.4760508308895406
2.4379276637341154
2.3949169110459434
2.347018572825025
2.2991202346041058
2.249266862170088
2.1915933528836757
2.1280547409579667
2.059628543499511
1.9902248289345064
1.920821114369501
1.8543499511241448
1.7927663734115349
1.737047898338221
1.689149560117302
1.6500488758553276
1.6217008797653958
1.6021505376344083
1.587487781036168
1.5786901270772238
1.576735092864125
1.5796676441837731
1.587487781036168
1.598240469208211
1.6099706744868034
1.6217008797653958
1.6334310850439884
1.6441837732160314
1.6529814271749756
1.6588465298142718
1.6627565982404693
1.6637341153470186
1.6627565982404693
1.6598240469208212
1.6549364613880744
1.6490713587487782
1.6412512218963833
1.6334310850439884
1.624633431085044
1.6138807429130009
1.6021505376344083
1.5923753665689149
1.5826001955034212
1.5708699902248289
1.5571847507331378
1.543499511241447
1.5298142717497556
