ppg
1.6314760508308896
1.616813294232649
1.598240469208211
1.5796676441837731
1.5669599217986314
1.565982404692082
1.5865102639296187
1.6373411534701858
1.7233626588465298
1.8240469208211143
1.9423264907135875
2.0957966764418376
2.2668621700879767
2.4379276637341154
2.592375366568915
2.718475073313783
2.811339198435973
2.8699902248289346
2.8963831867057674
2.8963831867057674
2.874877810361681
2.8406647116324537
2.795698924731183
2.739980449657869
2.677419354838709
2.610948191593353
2.5425219941348973
2.474095796676442
2.4056695992179864
2.337243401759531
2.267839687194526
2.196480938416422
2.12316715542522
2.0449657869012707
1.975562072336266
1.9090909090909087
1.8318670576735088
1.7487781036168133
1.664711632453568
1.581622678396872
1.499511241446725
1.4252199413489737
1.3607038123167154
1.3079178885630498
1.2688172043010753
1.2443792766373412
1.2336265884652982
1.2316715542521994
1.2346041055718475
1.2394916911045943
1.2434017595307918
1.2473118279569892
1.2502443792766371
1.2512218963831867
1.249266862170088
1.2453567937438903
1.238514173998045
1.2326490713587488
1.227761485826002
1.2258064516129032
1.224828934506354
1.2209188660801564
1.2150537634408602
1.209188660801564
1.2013685239491692
1.1915933528836755
1.181818181818182
1.1700879765395895
1.1573802541544478
1.142717497556207
1.1270772238514175
1.115347018572825
1.1055718475073313
1.0948191593352885
1.0899315738025417
1.1006842619745845
1.13880742913001
1.2111436950146628
1.3206256109481915
1.4643206256109482
1.632453567937439
1.8142717497556209
1.9951124144672527
2.158357771260997
2.2825024437927666
2.3743890518084068
2.449657869012708
2.5004887585532747
2.5268817204301075
2.530791788856305
2.515151515151515
2.4858260019550342
2.4457478005865103
2.3978494623655915
2.345063538611926
2.289345063538612
2.2375366568914954
2.188660801564027
2.134897360703812
2.078201368523949
2.018572825024438
1.9560117302052784
1.8905180840664717
1.822091886608016
1.75366568914956
1.6823069403714566
1.6080156402737047
1.533724340175953
1.4613880742913
1.4027370478983383
1.3558162267839686
1.3098729227761483
1.2727272727272727
1.2473118279569892
1.2346041055718475
1.2326490713587488
1.2404692082111437
1.2551319648093842
1.2756598240469208
1.2961876832844574
1.3147605083088951
1.3313782991202343
1.3470185728250244
1.359726295210166
1.3695014662756595
1.3782991202346042
1.3861192570869991
1.391006842619746
1.392961876832845
1.393939393939394
1.3949169110459434
1.392961876832845
1.388074291300098
1.3822091886608017
1.3782991202346042
1.375366568914956
1.3685239491691104
1.3577712609970674
1.346041055718475
1.335288367546432
1.324535679374389
1.3128054740957966
1.3020527859237536
1.2991202346041055
1.3128054740957966
1.3519061583577712
1.409579667644184
1.4916911045943304
1.6138807429130009
1.7673509286412512
1.9403714565004888
2.118279569892473
2.2854349951124147
2.4301075268817205
2.5454545454545454
2.6265884652981426
2.67644183773216
2.6989247311827955
2.697947214076246
2.6823069403714563
2.653958944281525
2.6158357771261
2.570869990224829
2.5210166177908118
2.4672531769305963
2.410557184750733
2.35386119257087
2.2961876832844577
2.2355816226783967
2.1710654936461387
2.103616813294233
2.0439882697947214
1.9872922776148585
1.920821114369501
1.8494623655913975
1.7741935483870968
1.696969696969697
1.6217008797653958
1.5503421309872922
1.4858260019550342
1.4320625610948192
1.391006842619746
1.3655913978494625
1.3548387096774193
1.3558162267839686
1.3665689149560116
1.3861192570869991
1.409579667644184
1.434017595307918
1.4604105571847508
1.4838709677419355
1.5034213098729228
1.521016617790811
1.5356793743890518
1.5464320625610948
1.5562072336265884
1.5650048875855327
1.5728250244379276
1.5806451612903225
1.5884652981427174
1.5962854349951123
1.6041055718475072
1.6099706744868034
1.6129032258064515
1.6148582600195502
1.6158357771260996
1.6148582600195502
1.611925708699902
1.607038123167155
1.6001955034213098
1.5865102639296187
1.5708699902248289
1.5620723362658846
1.5698924731182795
1.603128054740958
1.672531769305963
1.7810361681329423
1.9296187683284456
2.1094819159335287
2.3059628543499517
2.5024437927663734
2.662756598240469
2.789833822091887
2.90811339198436
3.0019550342130987
3.065493646138808
3.0987292277614857
3.104594330400782
3.089931573802541
3.059628543499511
3.0195503421309877
2.972629521016618
2.918866080156403
2.865102639296188
2.8103616813294234
2.7497556207233624
2.686217008797654
2.6207233626588464
2.552297165200391
2.4809384164222874
2.4056695992179864
2.3304007820136854
2.254154447702835
2.174975562072336
2.093841642228739
2.0097751710654936
1.9364613880742916
1.870967741935484
1.8035190615835777
1.7429130009775171
1.6930596285434996
1.6578690127077225
1.6373411534701858
1.629521016617791
1.632453567937439
1.6422287390029326
1.656891495601173
1.672531769305963
1.6852394916911049
1.6950146627565983
1.7028347996089932
1.7086999022482894
1.7126099706744868
1.7135874877810362
1.7126099706744868
1.7096774193548387
1.7067448680351909
1.7028347996089932
1.6989247311827955
1.6950146627565983
1.6911045943304008
1.6881720430107527
1.6842619745845553
1.6764418377321604
1.664711632453568
1.6500488758553276
1.635386119257087
1.6177908113391983
1.5972629521016617
1.5747800586510263
1.552297165200391
1.5347018572825024
1.5327468230694037
1.5483870967741935
1.5884652981427174
1.6695992179863148
1.793743890518084
1.95405669599218
2.1378299120234603
2.3274682306940373
2.50733137829912
2.6637341153470184
2.787878787878788
2.874877810361681
2.9266862170087977
2.946236559139785
2.941348973607038
2.916911045943304
2.87683284457478
2.825024437927664
2.763440860215054
2.695014662756598
2.6236559139784945
2.548387096774193
2.4711632453567938
2.3929618768328447
2.314760508308896
2.2346041055718477
2.163245356793744
2.0948191593352883
2.018572825024438
1.9345063538611929
1.8465298142717497
1.7565982404692082
1.664711632453568
1.5747800586510263
1.4897360703812317
1.412512218963832
1.3450635386119256
1.289345063538612
1.2453567937438903
1.2189638318670577
1.206256109481916
1.2023460410557183
1.206256109481916
1.217008797653959
1.2316715542521994
1.2482893450635386
1.2639296187683284
1.273704789833822
1.2776148582600195
1.2776148582600195
1.2756598240469208
1.2746823069403714
1.273704789833822
1.2717497556207231
1.2688172043010753
1.2649071358748778
1.2609970674486803
1.2580645161290325
1.252199413489736
1.2434017595307918
1.2336265884652982
1.2228739002932552
1.209188660801564
1.1925708699902249
1.1798631476050832
1.1671554252199414
1.1495601173020529
1.1300097751710656
1.1143695014662756
1.110459433040078
1.1270772238514175
1.1749755620723363
1.262952101661779
1.3919843597262953
1.5571847507331378
1.747800586510264
1.9237536656891496
2.086021505376344
2.257086999022483
2.4134897360703813
2.5405669599217986
2.633431085043988
2.6911045943304006
2.718475073313783
2.719452590420332
2.699902248289345
2.6637341153470184
2.6158357771261
2.560117302052786
2.504398826979472
2.449657869012708
2.388074291300098
2.32355816226784
2.257086999022483
2.187683284457478
2.1163245356793743
2.043010752688172
1.9687194525904204
1.89247311827957
1.81524926686217
1.7360703812316716
1.6666666666666667
1.6011730205278591
1.5278592375366569
1.4535679374389052
1.3851417399804498
1.3264907135874875
1.281524926686217
1.2531769305962854
1.2424242424242424
1.2453567937438903
1.2590420332355816
1.2805474095796676
1.3069403714565004
1.3333333333333333
1.3587487781036167
1.3822091886608017
1.4037145650048877
1.4222873900293256
1.436950146627566
1.4486803519061584
1.457478005865103
1.4623655913978495
1.4623655913978495
1.4604105571847508
1.456500488758553
1.4545454545454546
1.452590420332356
1.447702834799609
1.439882697947214
1.4301075268817205
1.4193548387096775
1.4076246334310851
1.393939393939394
1.3773216031280548
1.3577712609970674
1.3362658846529814
1.3176930596285434
1.3088954056695992
1.3157380254154447
1.3186705767350928
1.3411534701857282
1.4213098729227762
1.5493646138807429
1.715542521994135
1.906158357771261
2.102639296187683
2.286412512218964
2.44672531769306
2.575757575757576
2.668621700879765
2.721407624633431
2.744868035190616
2.748778103616813
2.7341153470185726
2.704789833822092
2.662756598240469
2.610948191593353
2.552297165200391
2.489736070381232
2.423264907135875
2.35386119257087
2.2844574780058653
2.220918866080156
2.160312805474096
2.093841642228739
2.0234604105571847
1.949169110459433
1.8729227761485825
1.7947214076246334
1.7145650048875856
1.6344086021505375
1.5562072336265884
1.482893450635386
1.4164222873900294
1.3607038123167154
1.3235581622678396
1.3010752688172045
1.2883675464320623
1.2854349951124144
1.2932551319648091
1.3098729227761483
1.3343108504398826
1.3636363636363635
1.393939393939394
1.4213098729227762
1.4457478005865103
1.466275659824047
1.482893450635386
1.4975562072336266
1.5112414467253177
1.521994134897361
1.5298142717497556
1.5356793743890518
1.5395894428152492
1.5405669599217986
1.5395894428152492
1.5356793743890518
1.5317693059628543
1.5278592375366569
1.521994134897361
1.517106549364614
1.5131964809384164
1.5053763440860215
1.4916911045943304
1.474095796676442
1.455522971652004
1.4437927663734116
1.447702834799609
1.478983382209189
1.5464320625610948
1.6559139784946235
1.8064516129032255
1.9579667644183771
2.113391984359726
2.2932551319648096
2.4731182795698925
2.634408602150537
2.7653958944281527
2.8611925708699903
2.9227761485826003
2.952101661779081
2.9550342130987293
2.935483870967742
2.8993157380254155
2.8514173998044967
2.7996089931573804
2.744868035190616
2.6832844574780057
2.6177908113391983
2.5513196480938416
2.4838709677419355
2.4164222873900294
2.3489736070381237
2.278592375366569
2.2082111436950145
2.134897360703812
2.056695992179863
1.9843597262952104
1.913978494623656
1.836754643206256
1.7575757575757576
1.6793743890518085
1.6050830889540566
1.5386119257087
1.4819159335288368
1.4389051808406648
1.409579667644184
1.393939393939394
1.3900293255131966
1.3958944281524928
1.4056695992179864
1.4173998044965788
1.4301075268817205
1.4408602150537635
1.4506353861192571
1.4594330400782014
1.4652981427174976
1.4682306940371457
1.4682306940371457
1.4643206256109482
1.458455522971652
1.4506353861192571
1.4428152492668622
1.435972629521017
1.4271749755620724
1.4173998044965788
1.4076246334310851
1.396871945259042
1.3841642228739004
1.3695014662756595
1.3509286412512218
1.3284457478005864
1.303030303030303
1.2756598240469208
1.2512218963831867
1.2346041055718475
1.2316715542521994
1.2482893450635386
1.295210166177908
1.3792766373411536
1.501466275659824
1.6578690127077225
1.836754643206256
2.021505376344086
2.1974584555229715
2.3499511241446727
2.469208211143695
2.5464320625610948
2.587487781036168
2.6050830889540566
2.60019550342131
2.5747800586510263
2.532746823069404
2.47702834799609
2.412512218963832
2.3421309872922778
2.2688172043010755
2.193548387096774
2.1163245356793743
2.038123167155425
1.9696969696969695
1.9071358748778104
1.8387096774193548
1.7663734115347018
1.6920821114369502
1.616813294232649
1.5386119257087
1.456500488758553
1.3724340175953078
1.289345063538612
1.2101661779081134
1.13880742913001
1.086021505376344
1.0478983382209188
1.013685239491691
0.9872922776148584
0.9716520039100685
0.9687194525904204
0.975562072336266
0.989247311827957
1.0058651026392962
1.0224828934506354
1.0371456500488758
1.0478983382209188
1.0547409579667644
1.0596285434995112
1.0635386119257086
1.0625610948191593
1.0586510263929618
1.053763440860215
1.0478983382209188
1.043010752688172
1.0391006842619743
1.0332355816226784
1.0263929618768328
1.018572825024438
1.010752688172043
1.0048875855327468
0.9990224828934506
0.9882697947214076
0.9745845552297164
0.9579667644183774
0.9403714565004888
0.9217986314760508
0.9081133919843596
0.9071358748778104
0.927663734115347
0.9794721407624634
1.0684261974584557
1.1964809384164223
1.3333333333333333
1.482893450635386
1.6627565982404693
1.8494623655913975
2.026392961876833
2.1808406647116323
2.304985337243402
2.393939393939394
2.4486803519061584
2.4731182795698925
2.472140762463343
2.4516129032258065
2.420332355816227
2.3812316715542523
2.3313782991202348
2.2737047898338223
2.212121212121212
2.147605083088954
2.0821114369501466
2.01564027370479
1.949169110459433
1.881720430107527
1.8132942326490715
1.7438905180840665
1.6813294232649072
1.6207233626588464
1.5493646138807429
1.4721407624633431
1.3919843597262953
1.3118279569892473
1.2375366568914956
1.1720430107526882
1.1192570869990224
1.083088954056696
1.0625610948191593
1.0547409579667644
1.0596285434995112
1.0733137829912025
1.0928641251221896
1.1173020527859236
1.1436950146627567
1.1691104594330402
1.1925708699902249
1.2140762463343109
1.2326490713587488
1.2697947214076246
1.3147605083088951
1.3401759530791788
1.35386119257087
1.3616813294232648
1.3695014662756595
1.375366568914956
1.3782991202346042
1.3792766373411536
1.3792766373411536
1.3763440860215057
1.3714565004887584
1.3636363636363635
1.3519061583577712
1.33822091886608
1.321603128054741
1.3040078201368523
1.29227761485826
1.2834799608993157
1.2776148582600195
1.2873900293255132
1.3235581622678396
1.3919843597262953
1.4975562072336266
1.6392961876832846
1.8084066471163245
1.9902248289345064
2.1710654936461387
2.3362658846529816
2.463343108504399
2.557184750733138
2.633431085043988
2.6832844574780057
2.7067448680351904
2.70772238514174
2.6901270772238512
2.658846529814272
2.616813294232649
2.567937438905181
2.5141739980449658
2.4574780058651027
2.3978494623655915
2.3440860215053765
2.291300097751711
2.233626588465298
2.1730205278592374
2.110459433040078
2.0449657869012707
1.9775171065493649
1.9071358748778104
1.833822091886608
1.758553274682307
1.6842619745845553
1.611925708699902
1.552297165200391
1.5024437927663734
1.452590420332356
1.4115347018572826
1.3822091886608017
1.3665689149560116
1.3636363636363635
1.3734115347018572
1.392961876832845
1.418377321603128
1.447702834799609
1.478005865102639
1.5053763440860215
1.5278592375366569
1.5464320625610948
1.563049853372434
1.5777126099706744
1.5894428152492668
1.6001955034213098
1.608993157380254
1.6158357771260996
1.6207233626588464
1.624633431085044
1.6275659824046922
1.6285434995112416
1.6275659824046922
1.6226783968719452
1.6158357771260996
1.608993157380254
1.6021505376344083
1.5933528836754642
1.5796676441837731
1.563049853372434
1.5493646138807429
1.544477028347996
1.560117302052786
1.606060606060606
1.6871945259042034
1.782991202346041
1.8973607038123168
2.050830889540567
2.225806451612903
2.4027370478983383
2.5669599217986314
2.7067448680351904
2.81622678396872
2.8914956011730206
2.9345063538611926
2.9501466275659824
2.9423264907135875
2.916911045943304
2.8807429130009776
2.835777126099707
2.7839687194525906
2.729227761485826
2.673509286412512
2.6177908113391983
2.5610948191593352
2.5024437927663734
2.442815249266862
2.380254154447703
2.313782991202346
2.244379276637341
2.179863147605083
2.115347018572825
2.043010752688172
1.9657869012707725
1.884652981427175
1.8035190615835777
1.726295210166178
1.6549364613880744
1.5943304007820136
1.5464320625610948
1.5141739980449658
1.4965786901270772
1.490713587487781
1.4916911045943304
1.4975562072336266
1.5083088954056696
1.520039100684262
1.5298142717497556
1.5376344086021505
1.542521994134897
1.543499511241447
1.5405669599217986
1.533724340175953
1.5239491691104594
1.5131964809384164
1.504398826979472
1.495601173020528
1.4858260019550342
1.4760508308895406
1.4652981427174976
1.4545454545454546
1.4418377321603129
1.4281524926686218
1.414467253176931
1.3988269794721409
1.3812316715542523
1.359726295210166
1.3391984359726294
1.3206256109481915
1.2991202346041055
1.2825024437927663
1.2805474095796676
1.3040078201368523
1.3616813294232648
1.455522971652004
1.58455522971652
1.7419354838709675
1.9120234604105573
2.080156402737048
2.233626588465298
2.3489736070381237
2.432062561094819
2.4975562072336266
2.5386119257087
2.5542521994134897
2.547409579667644
2.52297165200391
2.484848484848485
2.4359726295210167
2.3792766373411536
2.318670576735093
2.254154447702835
2.1955034213098727
2.139784946236559
2.0791788856304985
2.01564027370479
1.951124144672532
1.884652981427175
1.818181818181818
1.750733137829912
1.6823069403714566
1.6099706744868034
1.5347018572825024
1.457478005865103
1.3812316715542523
1.3186705767350928
1.2658846529814272
1.2150537634408602
1.1700879765395895
1.1348973607038124
1.1124144672531768
1.1026392961876832
1.104594330400782
1.1163245356793745
1.1329423264907137
1.1505376344086022
1.1691104594330402
1.1867057673509287
1.203323558162268
1.2160312805474096
1.224828934506354
1.2316715542521994
1.2365591397849462
1.2394916911045943
1.2424242424242424
1.2434017595307918
1.2424242424242424
1.2404692082111437
1.2355816226783969
1.2316715542521994
1.227761485826002
1.219941348973607
1.2101661779081134
1.2003910068426198
1.1886608015640274
1.1730205278592376
1.155425219941349
1.1368523949169111
1.1202346041055715
1.1114369501466277
1.1173020527859236
1.1485826001955035
1.198435972629521
1.273704789833822
1.3900293255131966
1.541544477028348
1.7145650048875856
1.8963831867057677
2.072336265884653
2.23069403714565
2.361681329423265
2.4613880742913
2.5268817204301075
2.563049853372434
2.572825024437928
2.5620723362658846
2.535679374389052
2.4975562072336266
2.449657869012708
2.3958944281524928
2.3391984359726297
2.281524926686217
2.2218963831867056
2.160312805474096
2.0987292277614857
2.0361681329423265
1.9716520039100685
1.9120234604105573
1.8533724340175952
1.7732160312805474
1.6813294232649072
1.5943304007820136
1.5083088954056696
1.4252199413489737
1.346041055718475
1.2727272727272727
1.209188660801564
1.1583577712609971
1.121212121212121
1.1006842619745845
1.093841642228739
1.0948191593352885
1.1055718475073313
1.1251221896383188
1.147605083088954
1.1720430107526882
1.1935483870967742
1.2121212121212122
1.2287390029325511
1.2434017595307918
1.2541544477028348
1.262952101661779
1.2727272727272727
1.2805474095796676
1.284457478005865
1.2864125122189638
1.2873900293255132
1.2873900293255132
1.2864125122189638
1.2834799608993157
1.2776148582600195
1.270772238514174
1.2619745845552297
1.2502443792766371
1.2404692082111437
1.2297165200391007
1.2150537634408602
1.2003910068426198
1.1915933528836755
1.195503421309873
1.2218963831867058
1.2795698924731185
1.375366568914956
1.5073313782991202
1.6705767350928642
1.8543499511241448
2.04594330400782
2.2082111436950145
2.343108504398827
2.4711632453567938
2.575757575757576
2.6510263929618767
2.696969696969697
2.7155425219941347
2.7116324535679373
2.6881720430107525
2.6510263929618767
2.6041055718475072
2.5513196480938416
2.498533724340176
2.4457478005865103
2.3870967741935485
2.324535679374389
2.260019550342131
2.1945259042033234
2.1270772238514173
2.0576735092864125
1.9872922776148585
1.9149560117302051
1.8406647116324533
1.7644183773216031
1.686217008797654
1.6177908113391983
1.5571847507331378
1.4936461388074291
1.434017595307918
1.383186705767351
1.346041055718475
1.3255131964809383
1.3186705767350928
1.3225806451612905
1.3372434017595307
1.3616813294232648
1.3900293255131966
1.4164222873900294
1.4418377321603129
1.4682306940371457
1.4926686217008798
1.5151515151515151
1.5327468230694037
1.547409579667644
1.5591397849462365
1.5679374389051808
1.5747800586510263
1.5796676441837731
1.58455522971652
1.5884652981427174
1.5923753665689149
1.5943304007820136
1.5933528836754642
1.590420332355816
1.5835777126099706
1.573802541544477
1.5610948191593352
1.5454545454545454
1.5268817204301075
1.5102639296187683
1.500488758553275
1.5083088954056696
1.5317693059628543
1.5786901270772238
1.6666666666666667
1.796676441837732
1.962854349951124
2.1524926686217007
2.3499511241446727
2.5386119257087
2.7038123167155423
2.834799608993157
2.930596285434995
2.992179863147605
3.021505376344086
3.022482893450636
3.003910068426197
2.972629521016618
2.929618768328446
2.875855327468231
2.81622678396872
2.7536656891495603
2.686217008797654
2.616813294232649
2.5454545454545454
2.4731182795698925
2.39980449657869
2.332355816226784
2.267839687194526
2.196480938416422
2.120234604105572
2.040078201368524
1.9560117302052784
1.869012707722385
1.7820136852394917
1.6989247311827955
1.619745845552297
1.5483870967741935
1.4887585532746823
1.4428152492668622
1.412512218963832
1.393939393939394
1.3841642228739004
1.3822091886608017
1.3861192570869991
1.392961876832845
1.3988269794721409
1.4037145650048877
1.4076246334310851
1.4086021505376345
1.404692082111437
1.396871945259042
1.3890518084066472
1.3792766373411536
1.3655913978494625
1.348973607038123
1.332355816226784
1.3186705767350928
1.305962854349951
1.2932551319648091
1.278592375366569
1.2639296187683284
1.249266862170088
1.2316715542521994
1.217008797653959
1.2023460410557183
1.181818181818182
1.155425219941349
1.1270772238514175
1.1026392961876832
1.0909090909090908
1.1006842619745845
1.144672531769306
1.227761485826002
1.3519061583577712
1.5102639296187683
1.6920821114369502
1.857282502443793
2.004887585532747
2.1544477028347995
2.2873900293255134
2.391006842619746
2.4613880742913
2.4995112414467253
2.5083088954056696
2.4946236559139785
2.464320625610948
2.421309872922776
2.3685239491691106
2.315738025415445
2.260997067448681
2.19941348973607
2.132942326490713
2.064516129032258
1.997067448680352
1.9286412512218964
1.8592375366568916
1.7888563049853372
1.7165200391006843
1.6422287390029326
1.5650048875855327
1.482893450635386
1.4105571847507332
1.343108504398827
1.2697947214076246
1.1964809384164223
1.1300097751710656
1.0742913000977516
1.032258064516129
1.0058651026392962
0.9921798631476052
0.9902248289345064
0.9990224828934506
1.0156402737047898
1.0371456500488758
1.0606060606060606
1.083088954056696
1.1036168132942326
1.1221896383186705
1.1358748778103618
1.1456500488758554
1.152492668621701
1.1583577712609971
1.1622678396871946
1.1652003910068427
1.166177908113392
1.1652003910068427
1.164222873900293
1.1622678396871946
1.155425219941349
1.1456500488758554
1.1348973607038124
1.1241446725317692
1.1114369501466277
1.0957966764418376
1.078201368523949
1.0586510263929618
1.0391006842619743
1.0263929618768328
1.0263929618768328
1.0439882697947214
1.0869990224828934
1.166177908113392
1.2854349951124144
1.4418377321603129
1.6256109481915937
1.822091886608016
2.018572825024438
2.190615835777126
2.329423264907136
2.4389051808406648
2.517106549364614
2.5610948191593352
2.576735092864125
2.5747800586510263
2.557184750733138
2.525904203323558
2.482893450635386
2.43108504398827
2.3743890518084068
2.314760508308896
2.2521994134897363
2.188660801564027
2.124144672531769
2.064516129032258
2.006842619745845
1.9413489736070384
1.870967741935484
1.7956989247311828
1.7174975562072337
1.6363636363636365
1.5532746823069403
1.4701857282502444
1.3900293255131966
1.3147605083088951
1.2473118279569892
1.1915933528836755
1.1544477028347997
1.133919843597263
1.1241446725317692
1.126099706744868
1.1397849462365592
1.1612903225806452
1.187683284457478
1.2150537634408602
1.2424242424242424
1.2668621700879763
1.289345063538612
1.3098729227761483
1.327468230694037
1.3411534701857282
1.35386119257087
1.3636363636363635
1.370478983382209
1.3763440860215057
1.3812316715542523
1.3851417399804498
1.388074291300098
1.388074291300098
1.3870967741935485
1.3822091886608017
1.3734115347018572
1.364613880742913
1.35386119257087
1.3372434017595307
1.316715542521994
1.2942326490713587
1.2756598240469208
