ppg
3.0097751710654936
2.9550342130987293
2.886608015640274
2.8084066471163247
2.7233626588465296
2.633431085043988
2.5405669599217986
2.447702834799609
2.3548387096774195
2.2639296187683287
2.175953079178885
2.1006842619745845
2.032258064516129
1.9579667644183771
1.881720430107527
1.8054740957966764
1.7302052785923754
1.6559139784946235
1.5835777126099706
1.5161290322580645
1.455522971652004
1.404692082111437
1.3665689149560116
1.3440860215053765
1.335288367546432
1.3401759530791788
1.3577712609970674
1.3861192570869991
1.423264907135875
1.4643206256109482
1.5053763440860215
1.542521994134897
1.5747800586510263
1.598240469208211
1.611925708699902
1.6177908113391983
1.6187683284457477
1.6158357771260996
1.606060606060606
1.5913978494623655
1.5728250244379276
1.5513196480938416
1.5268817204301075
1.501466275659824
1.4750733137829912
1.4467253176930597
1.418377321603128
1.3900293255131966
1.3616813294232648
1.33822091886608
1.316715542521994
1.29227761485826
1.2658846529814272
1.238514173998045
1.2121212121212122
1.1857282502443791
1.1583577712609971
1.1300097751710656
1.1006842619745845
1.0684261974584557
1.0361681329423265
1.0127077223851415
1.0019550342130987
1.0068426197458455
1.0449657869012707
1.1290322580645162
1.2639296187683284
1.4467253176930597
1.6656891495601174
1.903225806451613
2.1378299120234603
2.350928641251222
2.529814271749756
2.6559139784946235
2.7370478983382207
2.792766373411535
2.8181818181818183
2.81622678396872
2.789833822091887
2.742913000977517
2.679374389051808
2.6050830889540566
2.52297165200391
2.4359726295210167
2.347018572825025
2.257086999022483
2.177908113391984
2.104594330400782
2.026392961876833
1.9472140762463344
1.869012707722385
1.7917888563049853
1.7165200391006843
1.6422287390029326
1.56891495601173
1.4975562072336266
1.4291300097751711
1.3636363636363635
1.3128054740957966
1.2727272727272727
1.2375366568914956
1.2140762463343109
1.2043010752688172
1.2101661779081134
1.2316715542521994
1.2649071358748778
1.3069403714565004
1.3528836754643203
1.3988269794721409
1.4408602150537635
1.47702834799609
1.504398826979472
1.5249266862170088
1.5405669599217986
1.5503421309872922
1.5532746823069403
1.5503421309872922
1.542521994134897
1.5298142717497556
1.512218963831867
1.4926686217008798
1.4701857282502444
1.4467253176930597
1.426197458455523
1.4066471163245358
1.383186705767351
1.3577712609970674
1.3313782991202343
1.3040078201368523
1.2756598240469208
1.2482893450635386
1.2218963831867058
1.1964809384164223
1.1730205278592376
1.1505376344086022
1.1270772238514175
1.10752688172043
1.0879765395894427
1.0625610948191593
1.0361681329423265
1.018572825024438
1.0205278592375366
1.0557184750733135
1.1358748778103618
1.2668621700879763
1.4437927663734116
1.6559139784946235
1.8856304985337244
2.085043988269794
2.257086999022483
2.4252199413489737
2.5669599217986314
2.673509286412512
2.7419354838709675
2.774193548387097
2.776148582600196
2.752688172043011
2.7096774193548385
2.6510263929618767
2.5806451612903225
2.5034213098729228
2.429130009775171
2.356793743890518
2.27761485826002
2.1955034213098727
2.112414467253177
2.0303030303030303
1.9501466275659824
1.871945259042033
1.7947214076246334
1.7194525904203324
1.64613880742913
1.573802541544477
1.512218963831867
1.457478005865103
1.3988269794721409
1.343108504398827
1.2932551319648091
1.2541544477028348
1.2287390029325511
1.2179863147605083
1.2238514173998043
1.2453567937438903
1.2776148582600195
1.3176930596285434
1.3626588465298142
1.4037145650048877
1.4408602150537635
1.478005865102639
1.5102639296187683
1.5376344086021505
1.5571847507331378
1.5698924731182795
1.576735092864125
1.5777126099706744
1.5728250244379276
1.563049853372434
1.5493646138807429
1.5366568914956011
1.521994134897361
1.5034213098729228
1.482893450635386
1.4604105571847508
1.4379276637341154
1.414467253176931
1.3919843597262953
1.3695014662756595
1.3470185728250244
1.324535679374389
1.303030303030303
1.2825024437927663
1.267839687194526
1.2541544477028348
1.2355816226783969
1.2150537634408602
1.1906158357771262
1.164222873900293
1.1407624633431086
1.1270772238514175
1.133919843597263
1.1749755620723363
1.260019550342131
1.393939393939394
1.5405669599217986
1.7038123167155426
1.9071358748778104
2.12316715542522
2.3284457478005867
2.50733137829912
2.6480938416422286
2.748778103616813
2.8103616813294234
2.8367546432062563
2.834799608993157
2.8084066471163247
2.763440860215054
2.710654936461388
2.6510263929618767
2.5806451612903225
2.504398826979472
2.4242424242424243
2.343108504398827
2.2629521016617797
2.1837732160312804
2.10752688172043
2.035190615835777
1.9657869012707725
1.8973607038123168
1.8387096774193548
1.7849462365591398
1.7272727272727273
1.6686217008797657
1.6099706744868034
1.5542521994134897
1.5024437927663734
1.457478005865103
1.423264907135875
1.401759530791789
1.392961876832845
1.3988269794721409
1.4173998044965788
1.4408602150537635
1.4701857282502444
1.5063538611925709
1.544477028347996
1.5796676441837731
1.611925708699902
1.6383186705767352
1.656891495601173
1.667644183773216
1.6695992179863148
1.6656891495601174
1.656891495601173
1.6451612903225807
1.6304985337243405
1.6109481915933528
1.5884652981427174
1.564027370478983
1.5376344086021505
1.509286412512219
1.478005865102639
1.4467253176930597
1.41544477028348
1.3851417399804498
1.3548387096774193
1.3255131964809383
1.3020527859237536
1.2825024437927663
1.2590420332355816
1.2346041055718475
1.2101661779081134
1.1857282502443791
1.1593352883675463
1.1300097751710656
1.099706744868035
1.0713587487781036
1.053763440860215
1.0596285434995112
1.0879765395894427
1.1485826001955035
1.2561094819159335
1.409579667644184
1.5992179863147604
1.8084066471163245
2.018572825024438
2.2111436950146626
2.372434017595308
2.4946236559139785
2.5777126099706744
2.622678396871945
2.636363636363636
2.625610948191593
2.5943304007820136
2.547409579667644
2.487781036168133
2.419354838709677
2.345063538611926
2.2668621700879767
2.1867057673509285
2.1065493646138806
2.0283479960899315
1.9521016617790807
1.878787878787879
1.8172043010752688
1.761485826001955
1.7008797653958945
1.6383186705767352
1.576735092864125
1.5151515151515151
1.4545454545454546
1.3949169110459434
1.33822091886608
1.2854349951124144
1.2404692082111437
1.206256109481916
1.1867057673509287
1.1788856304985338
1.181818181818182
1.1964809384164223
1.2228739002932552
1.2570869990224829
1.295210166177908
1.3343108504398826
1.3714565004887584
1.4037145650048877
1.4281524926686218
1.4457478005865103
1.457478005865103
1.4643206256109482
1.4652981427174976
1.4613880742913
1.452590420332356
1.439882697947214
1.4252199413489737
1.4076246334310851
1.3890518084066472
1.3695014662756595
1.348973607038123
1.327468230694037
1.3069403714565004
1.2903225806451613
1.2746823069403714
1.2551319648093842
1.2346041055718475
1.2130987292277615
1.1925708699902249
1.1710654936461389
1.1505376344086022
1.1300097751710656
1.1085043988269794
1.0850439882697946
1.0596285434995112
1.0332355816226784
1.0127077223851415
1.0
0.9960899315738024
1.0166177908113392
1.0742913000977516
1.176930596285435
1.3255131964809383
1.5102639296187683
1.7174975562072337
1.927663734115347
2.12316715542522
2.291300097751711
2.4115347018572826
2.4916911045943304
2.550342130987292
2.581622678396872
2.613880742913001
2.636363636363636
2.619745845552297
2.576735092864125
2.517106549364614
2.44672531769306
2.3704789833822093
2.291300097751711
2.212121212121212
2.1417399804496577
2.078201368523949
2.0117302052785924
1.9442815249266865
1.8778103616813293
1.812316715542522
1.7487781036168133
1.6852394916911049
1.6226783968719452
1.5610948191593352
1.500488758553275
1.4418377321603129
1.393939393939394
1.3548387096774193
1.3176930596285434
1.289345063538612
1.2746823069403714
1.2756598240469208
1.2903225806451613
1.3176930596285434
1.35386119257087
1.3949169110459434
1.4379276637341154
1.47702834799609
1.5112414467253177
1.5366568914956011
1.555229716520039
1.56891495601173
1.576735092864125
1.5786901270772238
1.5747800586510263
1.565982404692082
1.5532746823069403
1.5376344086021505
1.5180840664711632
1.4975562072336266
1.4760508308895406
1.456500488758553
1.4389051808406648
1.418377321603128
1.396871945259042
1.3743890518084063
1.3519061583577712
1.3284457478005864
1.3040078201368523
1.2805474095796676
1.2580645161290325
1.2375366568914956
1.2179863147605083
1.1974584555229717
1.1808406647116323
1.1652003910068427
1.142717497556207
1.1192570869990224
1.1016617790811338
1.099706744868035
1.1270772238514175
1.1974584555229717
1.3176930596285434
1.4868035190615836
1.6950146627565983
1.9266862170087975
2.131964809384164
2.312805474095797
2.4946236559139785
2.6529814271749754
2.777126099706745
2.863147605083089
2.911045943304008
2.9266862170087977
2.9149560117302054
2.881720430107527
2.831867057673509
2.76930596285435
2.6989247311827955
2.63049853372434
2.563049853372434
2.4887585532746823
2.412512218963832
2.3362658846529816
2.260997067448681
2.187683284457478
2.1163245356793743
2.04594330400782
1.9775171065493649
1.9100684261974583
1.8435972629521016
1.7869012707722385
1.7350928641251222
1.6793743890518085
1.6236559139784943
1.5728250244379276
1.5298142717497556
1.498533724340176
1.4819159335288368
1.4809384164222874
1.495601173020528
1.5239491691104594
1.563049853372434
1.6080156402737047
1.6490713587487782
1.686217008797654
1.7233626588465298
1.7556207233626588
1.7820136852394917
1.801564027370479
1.8132942326490715
1.8172043010752688
1.8142717497556209
1.8064516129032255
1.7947214076246334
1.780058651026393
1.7653958944281525
1.7497556207233629
1.7302052785923754
1.7086999022482894
1.686217008797654
1.6627565982404693
1.6383186705767352
1.6138807429130009
1.5884652981427174
1.563049853372434
1.5386119257087
1.5151515151515151
1.4936461388074291
1.47702834799609
1.4613880742913
1.4428152492668622
1.4203323558162269
1.3949169110459434
1.3655913978494625
1.33822091886608
1.3196480938416422
1.3225806451612905
1.3607038123167154
1.4457478005865103
1.5826001955034212
1.7341153470185728
1.905180840664712
2.1192570869990224
2.347996089931574
2.5669599217986314
2.758553274682307
2.9120234604105573
3.022482893450636
3.088954056695992
3.1163245356793743
3.110459433040078
3.078201368523949
3.0303030303030303
2.970674486803519
2.897360703812317
2.814271749755621
2.7253176930596283
2.633431085043988
2.5405669599217986
2.4486803519061584
2.358748778103617
2.270772238514174
2.185728250244379
2.103616813294233
2.0234604105571847
1.95405669599218
1.8914956011730208
1.823069403714565
1.7526881720430108
1.6823069403714566
1.6138807429130009
1.5493646138807429
1.4926686217008798
1.447702834799609
1.4173998044965788
1.401759530791789
1.401759530791789
1.4115347018572826
1.43108504398827
1.4613880742913
1.4975562072336266
1.5366568914956011
1.5747800586510263
1.608993157380254
1.6373411534701858
1.656891495601173
1.6686217008797657
1.672531769305963
1.6695992179863148
1.66177908113392
1.6520039100684265
1.6392961876832846
1.6226783968719452
1.6041055718475072
1.5826001955034212
1.5591397849462365
1.5347018572825024
1.509286412512219
1.4819159335288368
1.4535679374389052
1.4242424242424243
1.3949169110459434
1.370478983382209
1.348973607038123
1.324535679374389
1.2981427174975562
1.270772238514174
1.2443792766373412
1.217008797653959
1.1886608015640274
1.1583577712609971
1.126099706744868
1.0948191593352885
1.072336265884653
1.0703812316715542
1.0918866080156402
1.1456500488758554
1.2502443792766371
1.4066471163245358
1.6080156402737047
1.839687194525904
2.083088954056696
2.315738025415445
2.5219941348973607
2.689149560117302
2.8132942326490715
2.8944281524926687
2.9335288367546437
2.940371456500489
2.9237536656891496
2.886608015640274
2.833822091886608
2.7673509286412514
2.6901270772238512
2.606060606060606
2.517106549364614
2.426197458455523
2.335288367546432
2.2453567937438903
2.156402737047898
2.0791788856304985
2.0087976539589443
1.9345063538611929
1.857282502443793
1.780058651026393
1.7038123167155426
1.6275659824046922
1.5542521994134897
1.4838709677419355
1.4193548387096775
1.348973607038123
1.2825024437927663
1.2443792766373412
1.2258064516129032
1.2209188660801564
1.23069403714565
1.2551319648093842
1.2903225806451613
1.332355816226784
1.3773216031280548
1.4213098729227762
1.4604105571847508
1.4926686217008798
1.517106549364614
1.533724340175953
1.544477028347996
1.5493646138807429
1.5493646138807429
1.543499511241447
1.533724340175953
1.520039100684262
1.5024437927663734
1.4819159335288368
1.4594330400782014
1.4349951124144673
1.409579667644184
1.3841642228739004
1.3626588465298142
1.3440860215053765
1.321603128054741
1.2961876832844574
1.2697947214076246
1.2424242424242424
1.2160312805474096
1.1906158357771262
1.1652003910068427
1.1397849462365592
1.1133919843597262
1.0850439882697946
1.0547409579667644
1.0312805474095796
1.0156402737047898
1.010752688172043
1.032258064516129
1.093841642228739
1.203323558162268
1.3626588465298142
1.564027370478983
1.7927663734115349
2.0283479960899315
2.251221896383187
2.4457478005865103
2.5865102639296187
2.6832844574780057
2.7565982404692084
2.7996089931573804
2.812316715542522
2.7976539589442817
2.7595307917888565
2.704789833822092
2.636363636363636
2.5591397849462365
2.4760508308895406
2.389051808406647
2.3010752688172045
2.222873900293255
2.150537634408602
2.0733137829912023
1.9951124144672527
1.916911045943304
1.8406647116324533
1.7663734115347018
1.6930596285434996
1.6207233626588464
1.5503421309872922
1.482893450635386
1.4193548387096775
1.367546432062561
1.3264907135874875
1.2883675464320623
1.260019550342131
1.2453567937438903
1.24633431085044
1.2639296187683284
1.295210166177908
1.3372434017595307
1.3851417399804498
1.435972629521017
1.4848484848484849
1.5288367546432062
1.564027370478983
1.590420332355816
1.6129032258064515
1.6285434995112416
1.6373411534701858
1.6392961876832846
1.635386119257087
1.6275659824046922
1.6148582600195502
1.6001955034213098
1.5826001955034212
1.5620723362658846
1.544477028347996
1.5268817204301075
1.5063538611925709
1.482893450635386
1.458455522971652
1.4320625610948192
1.4056695992179864
1.380254154447703
1.3558162267839686
1.332355816226784
1.3098729227761483
1.2883675464320623
1.2717497556207231
1.2551319648093842
1.2316715542521994
1.203323558162268
1.1759530791788857
1.1573802541544478
1.160312805474096
1.1974584555229717
1.281524926686217
1.4173998044965788
1.6001955034213098
1.8191593352883677
2.0557184750733137
2.260997067448681
2.4359726295210167
2.6080156402737047
2.7536656891495603
2.863147605083089
2.9345063538611926
2.9696969696969697
2.972629521016618
2.9501466275659824
2.90811339198436
2.849462365591398
2.7781036168132944
2.705767350928641
2.632453567937439
2.5513196480938416
2.466275659824047
2.380254154447703
2.2952101661779083
2.212121212121212
2.131964809384164
2.0527859237536656
1.975562072336266
1.9012707722385145
1.827956989247312
1.7546432062561097
1.6911045943304008
1.6334310850439884
1.5718475073313782
1.5112414467253177
1.457478005865103
1.414467253176931
1.383186705767351
1.3665689149560116
1.3655913978494625
1.3792766373411536
1.404692082111437
1.4389051808406648
1.4721407624633431
1.5053763440860215
1.5386119257087
1.56891495601173
1.5933528836754642
1.6109481915933528
1.6217008797653958
1.624633431085044
1.619745845552297
1.608993157380254
1.5923753665689149
1.5718475073313782
1.5483870967741935
1.5278592375366569
1.5073313782991202
1.482893450635386
1.456500488758553
1.4281524926686218
1.3988269794721409
1.3685239491691104
1.33822091886608
1.3079178885630498
1.2766373411534702
1.24633431085044
1.217008797653959
1.1945259042033236
1.1749755620723363
1.1515151515151516
1.126099706744868
1.0977517106549364
1.0654936461388074
1.0303030303030305
0.9990224828934506
0.9804496578690128
0.9863147605083088
1.029325513196481
1.1202346041055715
1.2609970674486803
1.4164222873900294
1.585532746823069
1.7898338220918866
2.002932551319648
2.201368523949169
2.3704789833822093
2.5004887585532747
2.589442815249267
2.6392961876832843
2.653958944281525
2.6392961876832843
2.601173020527859
2.552297165200391
2.4946236559139785
2.4252199413489737
2.347018572825025
2.264907135874878
2.1808406647116323
2.0977517106549364
2.0146627565982405
1.9335288367546437
1.8543499511241448
1.7781036168132942
1.7038123167155426
1.6304985337243405
1.5679374389051808
1.512218963831867
1.4506353861192571
1.388074291300098
1.3255131964809383
1.2658846529814272
1.2111436950146628
1.1652003910068427
1.130987292277615
1.110459433040078
1.1055718475073313
1.115347018572825
1.133919843597263
1.1612903225806452
1.1974584555229717
1.238514173998045
1.2805474095796676
1.3206256109481915
1.3548387096774193
1.3822091886608017
1.4027370478983383
1.4164222873900294
1.423264907135875
1.4242424242424243
1.4193548387096775
1.412512218963832
1.4037145650048877
1.3900293255131966
1.3724340175953078
1.3607038123167154
1.3519061583577712
1.3343108504398826
1.313782991202346
1.2903225806451613
1.2668621700879763
1.2434017595307918
1.219941348973607
1.2013685239491692
1.1857282502443791
1.1671554252199414
1.147605083088954
1.1270772238514175
1.1055718475073313
1.083088954056696
1.0586510263929618
1.0312805474095796
1.002932551319648
0.9804496578690128
0.9745845552297164
0.9951124144672532
1.040078201368524
1.1163245356793745
1.2424242424242424
1.4134897360703813
1.6158357771260996
1.8328445747800584
2.0449657869012707
2.2346041055718477
2.391006842619746
2.5083088954056696
2.5855327468230693
2.625610948191593
2.633431085043988
2.6177908113391983
2.5835777126099706
2.5347018572825024
2.474095796676442
2.404692082111437
2.3304007820136854
2.2521994134897363
2.1730205278592374
2.093841642228739
2.016617790811339
1.9423264907135875
1.8699902248289344
1.8084066471163245
1.750733137829912
1.689149560117302
1.6265884652981428
1.563049853372434
1.498533724340176
1.435972629521017
1.3763440860215057
1.3206256109481915
1.270772238514174
1.2316715542521994
1.203323558162268
1.1896383186705768
1.1886608015640274
1.1994134897360704
1.2218963831867058
1.2551319648093842
1.2961876832844574
1.3391984359726294
1.3822091886608017
1.4213098729227762
1.4545454545454546
1.479960899315738
1.498533724340176
1.5102639296187683
1.5161290322580645
1.517106549364614
1.512218963831867
1.504398826979472
1.4926686217008798
1.478005865102639
1.4613880742913
1.4418377321603129
1.4213098729227762
1.3998044965786902
1.3782991202346042
1.356793743890518
1.3391984359726294
1.3235581622678396
1.3049853372434017
1.284457478005865
1.2649071358748778
1.2443792766373412
1.224828934506354
1.2052785923753666
1.1857282502443791
1.1652003910068427
1.142717497556207
1.118279569892473
1.1006842619745845
1.0909090909090908
1.0918866080156402
1.1173020527859236
1.1798631476050832
1.2873900293255132
1.4408602150537635
1.632453567937439
1.847507331378299
2.067448680351906
2.2737047898338223
2.452590420332356
2.5962854349951123
2.6911045943304006
2.7468230694037143
2.780058651026393
2.787878787878788
2.7722385141739982
2.73802541544477
2.689149560117302
2.63049853372434
2.563049853372434
2.489736070381232
2.4144672531769307
2.3382209188660803
2.269794721407625
2.206256109481916
2.139784946236559
2.072336265884653
2.004887585532747
1.9393939393939397
1.873900293255132
1.8103616813294232
1.7468230694037146
1.6842619745845553
1.6236559139784943
1.565982404692082
1.512218963831867
1.4701857282502444
1.439882697947214
1.414467253176931
1.3998044965786902
1.3988269794721409
1.4115347018572826
1.436950146627566
1.4721407624633431
1.5141739980449658
1.5581622678396871
1.6011730205278591
1.6392961876832846
1.667644183773216
1.6881720430107527
1.7038123167155426
1.7135874877810362
1.7165200391006843
1.7126099706744868
1.704789833822092
1.694037145650049
1.6803519061583578
1.6656891495601174
1.6480938416422288
1.629521016617791
1.608993157380254
1.5894428152492668
1.5708699902248289
1.5503421309872922
1.5278592375366569
1.504398826979472
1.4809384164222874
1.456500488758553
1.4330400782013686
1.4105571847507332
1.3890518084066472
1.367546432062561
1.3450635386119256
1.3264907135874875
1.3069403714565004
1.281524926686217
1.2551319648093842
1.2375366568914956
1.2394916911045943
1.2746823069403714
1.35386119257087
1.478983382209189
1.64613880742913
1.8435972629521016
2.053763440860215
2.2580645161290325
2.421309872922776
2.5464320625610948
2.653958944281525
2.7331378299120237
2.779081133919844
2.792766373411535
2.780058651026393
2.745845552297165
2.695014662756598
2.631476050830889
2.5591397849462365
2.4809384164222874
2.406647116324536
2.3362658846529816
2.260019550342131
2.182795698924731
2.1055718475073317
2.0303030303030303
1.956989247311828
1.8866080156402736
1.8172043010752688
1.750733137829912
1.6852394916911049
1.6207233626588464
1.5571847507331378
1.5034213098729228
1.456500488758553
1.4056695992179864
1.3587487781036167
1.3196480938416422
1.29227761485826
1.2795698924731185
1.2805474095796676
1.295210166177908
1.3206256109481915
1.35386119257087
1.3900293255131966
1.423264907135875
1.452590420332356
1.4809384164222874
1.504398826979472
1.521994134897361
1.533724340175953
1.5395894428152492
1.5386119257087
1.5327468230694037
1.521016617790811
1.5063538611925709
1.4887585532746823
1.469208211143695
1.4516129032258065
1.4349951124144673
1.4134897360703813
1.3900293255131966
1.3655913978494625
1.3401759530791788
1.3147605083088951
1.289345063538612
1.2649071358748778
1.241446725317693
1.2189638318670577
1.1974584555229717
1.1808406647116323
1.166177908113392
1.147605083088954
1.126099706744868
1.099706744868035
1.0703812316715542
1.0439882697947214
1.0283479960899315
1.035190615835777
1.078201368523949
1.1652003910068427
1.3206256109481915
1.533724340175953
1.7341153470185728
1.9266862170087975
2.1388074291300097
2.3440860215053765
2.5219941348973607
2.662756598240469
2.7624633431085046
2.8211143695014664
2.843597262952102
2.835777126099707
2.8025415444770285
2.750733137829912
2.6911045943304006
2.625610948191593
2.549364613880743
2.4652981427174976
2.378299120234604
2.291300097751711
2.206256109481916
2.124144672531769
2.0449657869012707
1.9687194525904204
1.8944281524926687
1.823069403714565
1.7526881720430108
1.6920821114369502
1.6373411534701858
1.576735092864125
1.5151515151515151
1.4545454545454546
1.3998044965786902
1.3519061583577712
1.3157380254154447
1.2932551319648091
1.2873900293255132
1.2971652003910068
1.321603128054741
1.3528836754643203
1.3890518084066472
1.4320625610948192
1.47702834799609
1.521016617790811
1.560117302052786
1.5913978494623655
1.6148582600195502
1.629521016617791
1.6363636363636365
1.6363636363636365
1.6314760508308896
1.624633431085044
1.6158357771260996
1.6011730205278591
1.5835777126099706
1.564027370478983
1.542521994134897
1.520039100684262
1.495601173020528
1.4701857282502444
1.4437927663734116
1.4173998044965788
1.3919843597262953
1.3665689149560116
1.3470185728250244
1.3304007820136852
1.310850439882698
1.289345063538612
1.2668621700879763
1.2434017595307918
1.2160312805474096
1.1857282502443791
1.155425219941349
1.1319648093841643
1.1251221896383188
1.147605083088954
1.195503421309873
1.278592375366569
1.4164222873900294
1.6011730205278591
1.8211143695014664
2.056695992179863
2.2873900293255134
2.495601173020528
2.668621700879765
2.7996089931573804
2.8885630498533725
2.93841642228739
2.95405669599218
2.943304007820137
2.913000977517106
2.865102639296188
2.8025415444770285
