ppg
1.0821114369501466
1.0772238514173995
1.072336265884653
1.067448680351906
1.0635386119257086
1.0596285434995112
1.0576735092864125
1.0586510263929618
1.0606060606060606
1.06158357771261
1.0606060606060606
1.0596285434995112
1.0586510263929618
1.0576735092864125
1.056695992179863
1.056695992179863
1.0596285434995112
1.0684261974584557
1.0899315738025417
1.1300097751710656
1.181818181818182
1.2512218963831867
1.3528836754643203
1.482893450635386
1.6344086021505375
1.8005865102639296
1.9716520039100685
2.136852394916911
2.290322580645161
2.4252199413489737
2.541544477028348
2.636363636363636
2.702834799608993
2.7497556207233624
2.791788856304985
2.827956989247312
2.857282502443793
2.8807429130009776
2.8993157380254155
2.913000977517106
2.919843597262952
2.919843597262952
2.9120234604105573
2.895405669599218
2.8690127077223853
2.834799608993157
2.793743890518084
2.7419354838709675
2.6823069403714563
2.6148582600195502
2.5434995112414467
2.4701857282502444
2.398826979472141
2.332355816226784
2.272727272727273
2.220918866080156
2.176930596285435
2.1417399804496577
2.113391984359726
2.088954056695992
2.0664711632453567
2.0449657869012707
2.021505376344086
1.9960899315738023
1.9657869012707725
1.9305962854349952
1.889540566959922
1.8416422287390029
1.7869012707722385
1.726295210166178
1.6705767350928642
1.6158357771260996
1.5532746823069403
1.487781036168133
1.4242424242424243
1.364613880742913
1.310850439882698
1.2649071358748778
1.2258064516129032
1.1945259042033236
1.1720430107526882
1.1564027370478984
1.1495601173020529
1.1485826001955035
1.1495601173020529
1.1515151515151516
1.141739980449658
1.1251221896383188
1.115347018572825
1.1065493646138806
1.0957966764418376
1.0821114369501466
1.0654936461388074
1.0449657869012707
1.0224828934506354
1.0048875855327468
0.989247311827957
0.9687194525904204
0.946236559139785
0.9247311827956988
0.9042033235581622
0.884652981427175
0.8670576735092864
0.852394916911046
0.8406647116324536
0.8328445747800587
0.8289345063538612
0.83088954056696
0.8387096774193549
0.8465298142717498
0.8563049853372434
0.8670576735092864
0.8787878787878788
0.8895405669599218
0.8983382209188661
0.9051808406647116
0.9110459433040078
0.9149560117302052
0.9178885630498532
0.9208211143695014
0.9266862170087976
0.9345063538611924
0.9403714565004888
0.9452590420332356
0.9491691104594332
0.9560117302052786
0.9706744868035192
0.997067448680352
1.0410557184750733
1.1085043988269794
1.2043010752688172
1.3294232649071358
1.458455522971652
1.5972629521016617
1.7673509286412512
1.95405669599218
2.1436950146627565
2.326490713587488
2.493646138807429
2.6422287390029324
2.7702834799608995
2.8797653958944283
2.9716520039100685
3.048875855327468
3.115347018572825
3.161290322580645
3.1925708699902247
3.225806451612903
3.254154447702835
3.2737047898338223
3.281524926686217
3.2737047898338223
3.2482893450635384
3.203323558162268
3.1378299120234603
3.0518084066471163
2.945259042033236
2.8367546432062563
2.7223851417399803
2.589442815249267
2.4457478005865103
2.2981427174975564
2.1515151515151514
2.007820136852395
1.869012707722385
1.7380254154447703
1.6148582600195502
1.500488758553275
1.3958944281524928
1.3020527859237536
1.227761485826002
1.166177908113392
1.1026392961876832
1.0410557184750733
0.9833822091886608
0.9305962854349952
0.8856304985337243
0.8494623655913979
0.8240469208211144
0.8113391984359726
0.8132942326490714
0.8260019550342131
0.8475073313782991
0.8748778103616813
0.9051808406647116
0.935483870967742
0.9618768328445748
0.9804496578690128
0.9882697947214076
0.9824046920821116
0.9618768328445748
0.9257086999022482
0.8758553274682307
0.8142717497556208
0.7438905180840665
0.6823069403714564
0.6256109481915934
0.5591397849462365
0.4926686217008797
0.4310850439882698
0.3782991202346041
0.3372434017595307
0.3108504398826979
0.3000977517106549
0.3059628543499511
0.3294232649071358
0.3685239491691104
0.4173998044965787
0.4750733137829912
0.544477028347996
0.6217008797653959
0.7028347996089932
0.7849462365591398
0.8651026392961877
0.9413489736070382
1.010752688172043
1.0713587487781036
1.1241446725317692
1.1691104594330402
1.206256109481916
1.2365591397849462
1.262952101661779
1.284457478005865
1.303030303030303
1.3186705767350928
1.3313782991202343
1.3411534701857282
1.348973607038123
1.3548387096774193
1.359726295210166
1.3626588465298142
1.364613880742913
1.3665689149560116
1.3695014662756595
1.3743890518084063
1.3851417399804498
1.4066471163245358
1.4437927663734116
1.5034213098729228
1.5913978494623655
1.7086999022482894
1.855327468230694
2.0254154447702835
2.210166177908113
2.372434017595308
2.520039100684262
2.677419354838709
2.827956989247312
2.961876832844575
3.075268817204301
3.16911045943304
3.244379276637341
3.303030303030303
3.347996089931574
3.383186705767351
3.409579667644184
3.426197458455523
3.429130009775171
3.421309872922776
3.412512218963832
3.3978494623655915
3.375366568914956
3.3440860215053765
3.302052785923754
3.249266862170088
3.185728250244379
3.1114369501466275
3.029325513196481
2.9423264907135875
2.859237536656892
2.779081133919844
2.6959921798631474
2.6158357771261
2.5405669599217986
2.472140762463343
2.412512218963832
2.358748778103617
2.3088954056695994
2.2629521016617797
2.218963831867057
2.176930596285435
2.1358748778103616
2.096774193548387
2.059628543499511
2.0195503421309877
1.9775171065493649
1.9345063538611929
1.889540566959922
1.8435972629521016
1.7976539589442817
1.75366568914956
1.7126099706744868
1.6735092864125125
1.6363636363636365
1.6050830889540566
1.5777126099706744
1.5483870967741935
1.5190615835777126
1.4887585532746823
1.4594330400782014
1.4320625610948192
1.404692082111437
1.3782991202346042
1.3528836754643203
1.3304007820136852
1.3088954056695992
1.2883675464320623
1.273704789833822
1.2619745845552297
1.2482893450635386
1.2346041055718475
1.2209188660801564
1.2072336265884651
1.1935483870967742
1.1798631476050832
1.1671554252199414
1.155425219941349
1.144672531769306
1.1329423264907137
1.1251221896383188
1.1202346041055715
1.1124144672531768
1.104594330400782
1.096774193548387
1.088954056695992
1.0821114369501466
1.075268817204301
1.0684261974584557
1.0625610948191593
1.056695992179863
1.0527859237536656
1.0488758553274682
1.0478983382209188
1.0498533724340176
1.0488758553274682
1.0478983382209188
1.04594330400782
1.0439882697947214
1.043010752688172
1.0410557184750733
1.0391006842619743
1.0371456500488758
1.1456500488758554
1.310850439882698
1.3958944281524928
1.4437927663734116
1.4760508308895406
1.5073313782991202
1.547409579667644
1.6011730205278591
1.672531769305963
1.7605083088954057
1.8621700879765395
1.9736070381231672
2.0879765395894427
2.20039100684262
2.304007820136853
2.3851417399804498
2.449657869012708
2.5112414467253177
2.5650048875855327
2.6099706744868034
2.64613880742913
2.674486803519061
2.696969696969697
2.7145650048875853
2.7262952101661777
2.7341153470185726
2.7370478983382207
2.7331378299120237
2.7233626588465296
2.710654936461388
2.6930596285435
2.6695992179863146
2.6402737047898337
2.6041055718475072
2.5620723362658846
2.5141739980449658
2.463343108504399
2.410557184750733
2.356793743890518
2.3059628543499517
2.2629521016617797
2.225806451612903
2.189638318670577
2.156402737047898
2.126099706744868
2.0987292277614857
2.072336265884653
2.046920821114369
2.021505376344086
1.997067448680352
1.9726295210166176
1.9472140762463344
1.924731182795699
1.9042033235581624
1.881720430107527
1.857282502443793
1.8328445747800584
1.8093841642228736
1.7869012707722385
1.7653958944281525
1.7458455522971652
1.7272727272727273
1.7096774193548387
1.694037145650049
1.6793743890518085
1.667644183773216
1.6578690127077225
1.64613880742913
1.6344086021505375
1.6236559139784943
1.6138807429130009
1.6041055718475072
1.5962854349951123
1.5894428152492668
1.5835777126099706
1.576735092864125
1.5708699902248289
1.5669599217986314
1.563049853372434
1.5571847507331378
1.5493646138807429
1.5395894428152492
1.5288367546432062
1.517106549364614
1.5053763440860215
1.4946236559139785
1.482893450635386
1.4721407624633431
1.4613880742913
1.4506353861192571
1.4437927663734116
1.4389051808406648
1.4330400782013686
1.4281524926686218
1.4242424242424243
1.423264907135875
1.4242424242424243
1.426197458455523
1.43108504398827
1.4379276637341154
1.4457478005865103
1.4545454545454546
1.4643206256109482
1.4750733137829912
1.4848484848484849
1.4936461388074291
1.501466275659824
1.5073313782991202
1.512218963831867
1.5151515151515151
1.5161290322580645
1.5180840664711632
1.521994134897361
1.5317693059628543
1.547409579667644
1.5718475073313782
1.611925708699902
1.6695992179863148
1.7448680351906158
1.8347996089931573
1.9345063538611929
2.0391006842619745
2.142717497556207
2.2404692082111435
2.329423264907136
2.406647116324536
2.4711632453567938
2.517106549364614
2.550342130987292
2.582600195503421
2.6099706744868034
2.633431085043988
2.6529814271749754
2.668621700879765
2.679374389051808
2.6852394916911044
2.6852394916911044
2.679374389051808
2.667644183773216
2.650048875855328
2.6265884652981426
2.5962854349951123
2.5610948191593352
2.5190615835777126
2.4731182795698925
2.423264907135875
2.3734115347018574
2.32355816226784
2.2766373411534704
2.232649071358749
2.193548387096774
2.158357771260997
2.1300097751710654
2.1065493646138806
2.083088954056696
2.060606060606061
2.038123167155425
2.0146627565982405
1.991202346041056
1.967741935483871
1.943304007820137
1.9188660801564028
1.8944281524926687
1.870967741935484
1.8504398826979471
1.8328445747800584
1.8142717497556209
1.7947214076246334
1.7761485826001957
1.7575757575757576
1.739980449657869
1.7223851417399805
1.7057673509286413
1.6911045943304008
1.6774193548387095
1.6656891495601174
1.6549364613880744
1.6480938416422288
1.6422287390029326
1.635386119257087
1.6275659824046922
1.619745845552297
1.611925708699902
1.6041055718475072
1.5962854349951123
1.5884652981427174
1.5806451612903225
1.5728250244379276
1.5650048875855327
1.5591397849462365
1.5542521994134897
1.547409579667644
1.5395894428152492
1.530791788856305
1.521994134897361
1.5141739980449658
1.5063538611925709
1.499511241446725
1.4936461388074291
1.487781036168133
1.482893450635386
1.478983382209189
1.47702834799609
1.4760508308895406
1.4750733137829912
1.4731182795698925
1.4721407624633431
1.4711632453567938
1.4711632453567938
1.4721407624633431
1.474095796676442
1.4760508308895406
1.478005865102639
1.479960899315738
1.4838709677419355
1.487781036168133
1.4897360703812317
1.490713587487781
1.4916911045943304
1.4936461388074291
1.499511241446725
1.512218963831867
1.5356793743890518
1.573802541544477
1.6285434995112416
1.7018572825024438
1.7917888563049853
1.8807429130009776
1.970674486803519
2.0762463343108504
2.185728250244379
2.291300097751711
2.388074291300098
2.4711632453567938
2.541544477028348
2.5992179863147604
2.6451612903225805
2.681329423264907
2.7096774193548385
2.727272727272727
2.73802541544477
2.748778103616813
2.758553274682307
2.7653958944281527
2.768328445747801
2.7673509286412514
2.760508308895406
2.747800586510264
2.729227761485826
2.7038123167155423
2.6715542521994133
2.632453567937439
2.591397849462365
2.549364613880743
2.5004887585532747
2.4486803519061584
2.398826979472141
2.346041055718475
2.286412512218964
2.2267839687194524
2.1710654936461387
2.121212121212121
2.0762463343108504
2.035190615835777
2.0
1.9687194525904204
1.9364613880742916
1.903225806451613
1.8699902248289344
1.8347996089931573
1.7986314760508308
1.761485826001955
1.7233626588465298
1.6852394916911049
1.6471163245356797
1.6099706744868034
1.573802541544477
1.544477028347996
1.5180840664711632
1.4887585532746823
1.4604105571847508
1.4320625610948192
1.4056695992179864
1.3812316715542523
1.3587487781036167
1.3372434017595307
1.3176930596285434
1.300097751710655
1.284457478005865
1.273704789833822
1.2649071358748778
1.2531769305962854
1.241446725317693
1.2297165200391007
1.2179863147605083
1.206256109481916
1.1945259042033236
1.181818181818182
1.1700879765395895
1.1593352883675463
1.1495601173020529
1.1397849462365592
1.133919843597263
1.130987292277615
1.1270772238514175
1.1221896383186705
1.1163245356793745
1.1094819159335287
1.1016617790811338
1.093841642228739
1.0869990224828934
1.0801564027370478
1.0733137829912025
1.067448680351906
1.0654936461388074
1.0654936461388074
1.0635386119257086
1.06158357771261
1.0596285434995112
1.0576735092864125
1.0557184750733135
1.0547409579667644
1.053763440860215
1.053763440860215
1.053763440860215
1.053763440860215
1.053763440860215
1.0576735092864125
1.064516129032258
1.0772238514173995
1.1016617790811338
1.142717497556207
1.2052785923753666
1.2942326490713587
1.409579667644184
1.5493646138807429
1.70772238514174
1.8758553274682308
2.0439882697947214
2.1847507331378297
2.304007820136853
2.423264907135875
2.530791788856305
2.622678396871945
2.697947214076246
2.757575757575758
2.8044965786901277
2.841642228739003
2.8699902248289346
2.8914956011730206
2.906158357771261
2.9100684261974585
2.906158357771261
2.9012707722385143
2.8914956011730206
2.874877810361681
2.8484848484848486
2.8132942326490715
2.7673509286412514
2.7116324535679373
2.6480938416422286
2.5777126099706744
2.5024437927663734
2.426197458455523
2.356793743890518
2.2932551319648096
2.228739002932551
2.1681329423264906
2.112414467253177
2.0625610948191597
2.0195503421309877
1.9804496578690127
1.945259042033236
1.9130009775171064
1.881720430107527
1.8504398826979471
1.823069403714565
1.7976539589442817
1.7683284457478006
1.7360703812316716
1.7028347996089932
1.667644183773216
1.632453567937439
1.595307917888563
1.5591397849462365
1.5239491691104594
1.490713587487781
1.458455522971652
1.4291300097751711
1.4066471163245358
1.388074291300098
1.367546432062561
1.3470185728250244
1.3255131964809383
1.3040078201368523
1.2834799608993157
1.2649071358748778
1.2473118279569892
1.2316715542521994
1.217008797653959
1.2043010752688172
1.195503421309873
1.1896383186705768
1.1808406647116323
1.1710654936461389
1.1612903225806452
1.1515151515151516
1.142717497556207
1.133919843597263
1.1251221896383188
1.1173020527859236
1.1094819159335287
1.1026392961876832
1.0957966764418376
1.0928641251221896
1.0909090909090908
1.0869990224828934
1.083088954056696
1.078201368523949
1.0733137829912025
1.0694037145650048
1.0654936461388074
1.06158357771261
1.0576735092864125
1.053763440860215
1.050830889540567
1.0518084066471165
1.053763440860215
1.053763440860215
1.053763440860215
1.053763440860215
1.053763440860215
1.053763440860215
1.0527859237536656
1.050830889540567
1.0488758553274682
1.0478983382209188
1.0498533724340176
1.0576735092864125
1.0733137829912025
1.1006842619745845
1.1485826001955035
1.2209188660801564
1.321603128054741
1.4496578690127078
1.6011730205278591
1.7683284457478006
1.9423264907135875
2.112414467253177
2.271749755620724
2.4134897360703813
2.5210166177908118
2.6021505376344085
2.677419354838709
2.7419354838709675
2.7947214076246336
2.8367546432062563
2.8699902248289346
2.8944281524926687
2.9120234604105573
2.9237536656891496
2.9286412512218964
2.9257086999022484
2.9149560117302054
2.8963831867057674
2.8699902248289346
2.835777126099707
2.791788856304985
2.7390029325513194
2.678396871945259
2.6099706744868034
2.5376344086021505
2.462365591397849
2.388074291300098
2.315738025415445
2.247311827956989
2.189638318670577
2.1407624633431084
2.093841642228739
2.0518084066471163
2.013685239491691
1.9775171065493649
1.9442815249266865
1.9120234604105573
1.8797653958944285
1.847507331378299
1.81524926686217
1.7820136852394917
1.747800586510264
1.7165200391006843
1.6881720430107527
1.656891495601173
1.6236559139784943
1.590420332355816
1.5562072336265884
1.5239491691104594
1.4926686217008798
1.4633431085043989
1.434017595307918
1.4066471163245358
1.3822091886608017
1.3626588465298142
1.346041055718475
1.3284457478005864
1.310850439882698
1.2932551319648091
1.2756598240469208
1.2590420332355816
1.2434017595307918
1.2297165200391007
1.2160312805474096
1.203323558162268
1.1827956989247312
1.1583577712609971
1.1436950146627567
1.1348973607038124
1.1251221896383188
1.115347018572825
1.1065493646138806
1.0977517106549364
1.0899315738025417
1.083088954056696
1.0762463343108504
1.0694037145650048
1.0635386119257086
1.0576735092864125
1.0557184750733135
1.0557184750733135
1.0527859237536656
1.0488758553274682
1.0439882697947214
1.0381231671554252
1.0332355816226784
1.0283479960899315
1.024437927663734
1.021505376344086
1.0195503421309873
1.0175953079178883
1.0166177908113392
1.0175953079178883
1.0205278592375366
1.0205278592375366
1.0205278592375366
1.0195503421309873
1.0175953079178883
1.0166177908113392
1.0166177908113392
1.0224828934506354
1.0381231671554252
1.0694037145650048
1.1231671554252198
1.187683284457478
1.270772238514174
1.388074291300098
1.533724340175953
1.7008797653958945
1.8807429130009776
2.06158357771261
2.232649071358749
2.389051808406647
2.5249266862170088
2.638318670576735
2.730205278592375
2.792766373411535
2.835777126099707
2.87683284457478
2.9120234604105573
2.940371456500489
2.961876832844575
2.9765395894428157
2.98435972629521
2.986314760508309
2.979472140762464
2.963831867057673
2.9393939393939394
2.9042033235581624
2.86217008797654
2.812316715542522
2.752688172043011
2.684261974584555
2.608993157380254
2.5288367546432062
2.447702834799609
2.36950146627566
2.2961876832844577
2.23069403714565
2.172043010752688
2.1192570869990224
2.0762463343108504
2.040078201368524
2.003910068426197
1.9687194525904204
1.9345063538611929
1.900293255131965
1.866080156402737
1.83088954056696
1.7947214076246334
1.7575757575757576
1.7194525904203324
1.6813294232649072
1.6422287390029326
1.608993157380254
1.5786901270772238
1.5464320625610948
1.5141739980449658
1.4819159335288368
1.4506353861192571
1.4213098729227762
1.392961876832845
1.3665689149560116
1.3421309872922775
1.3176930596285434
1.295210166177908
1.2776148582600195
1.262952101661779
1.2443792766373412
1.2258064516129032
1.206256109481916
1.1886608015640274
1.1720430107526882
1.1564027370478984
1.1407624633431086
1.126099706744868
1.1124144672531768
1.0987292277614855
1.086021505376344
1.0772238514173995
1.0703812316715542
1.06158357771261
1.050830889540567
1.040078201368524
1.029325513196481
1.018572825024438
1.007820136852395
0.9980449657869012
0.989247311827957
0.9794721407624634
0.9706744868035192
0.9657869012707724
0.9628543499511242
0.9560117302052786
0.9472140762463344
0.9374389051808406
0.9266862170087976
0.9149560117302052
0.9032258064516128
0.8905180840664711
0.8768328445747801
0.8641251221896383
0.852394916911046
0.8426197458455523
0.8387096774193549
0.8387096774193549
0.8357771260997068
0.8318670576735093
0.8289345063538612
0.8279569892473119
0.833822091886608
0.8514173998044966
0.8885630498533724
0.9501466275659824
1.0420332355816226
1.1652003910068427
1.2932551319648091
1.43108504398827
1.5992179863147604
1.7839687194525904
1.970674486803519
2.1485826001955037
2.310850439882698
2.4516129032258065
2.570869990224829
2.668621700879765
2.7468230694037143
2.809384164222874
2.859237536656892
2.889540566959922
2.90811339198436
2.9257086999022484
2.9374389051808407
2.943304007820137
2.940371456500489
2.9286412512218964
2.9071358748778104
2.874877810361681
2.832844574780059
2.7810361681329425
2.718475073313783
2.654936461388074
2.590420332355816
2.517106549364614
2.4408602150537635
2.364613880742913
2.29227761485826
2.2248289345063537
2.164222873900293
2.1114369501466275
2.065493646138808
2.026392961876833
1.991202346041056
1.9579667644183771
1.9296187683284456
1.902248289345064
1.871945259042033
1.839687194525904
1.8054740957966764
1.7702834799608993
1.7341153470185728
1.696969696969697
1.6598240469208212
1.6236559139784943
1.587487781036168
1.5532746823069403
1.5249266862170088
1.501466275659824
1.4760508308895406
1.4496578690127078
1.4252199413489737
1.401759530791789
1.380254154447703
1.3607038123167154
1.3421309872922775
1.3255131964809383
1.3088954056695992
1.29227761485826
1.2766373411534702
1.2649071358748778
1.2541544477028348
1.241446725317693
1.2287390029325511
1.2160312805474096
1.2043010752688172
1.1935483870967742
1.1827956989247312
1.1720430107526882
1.1612903225806452
1.1495601173020529
1.13880742913001
1.130987292277615
1.126099706744868
1.1192570869990224
1.1124144672531768
1.1055718475073313
1.0987292277614855
1.0928641251221896
1.0879765395894427
1.083088954056696
1.078201368523949
1.0733137829912025
1.067448680351906
1.0625610948191593
1.0606060606060606
1.0606060606060606
1.0596285434995112
1.0586510263929618
1.0586510263929618
1.0596285434995112
1.0596285434995112
1.0596285434995112
1.0586510263929618
1.056695992179863
1.0547409579667644
1.0518084066471165
1.0527859237536656
1.0557184750733135
1.0596285434995112
1.0694037145650048
1.0928641251221896
1.1710654936461389
1.2903225806451613
1.4076246334310851
1.5366568914956011
1.6823069403714566
1.842619745845552
2.010752688172043
2.176930596285435
2.314760508308896
2.432062561094819
2.548387096774193
2.6529814271749754
2.742913000977517
2.8152492668621703
2.8729227761485827
2.917888563049853
2.952101661779081
2.979472140762464
3.0
3.0146627565982405
3.0195503421309877
3.016617790811339
3.010752688172043
3.0
2.9824046920821115
2.9550342130987293
2.916911045943304
2.8690127077223853
2.812316715542522
2.7468230694037143
2.67644183773216
2.6021505376344085
2.533724340175953
2.4711632453567938
2.406647116324536
2.345063538611926
2.2883675464320627
2.2385141739980448
2.1945259042033234
2.155425219941349
2.1192570869990224
2.086021505376344
2.053763440860215
2.0205278592375366
1.986314760508309
1.9560117302052784
1.9266862170087975
1.8934506353861196
1.8592375366568916
1.8240469208211143
1.7898338220918866
1.7546432062561097
1.7194525904203324
1.6852394916911049
1.6529814271749756
1.6226783968719452
1.5933528836754642
1.5698924731182795
1.5513196480938416
1.5317693059628543
1.5112414467253177
1.4916911045943304
1.4721407624633431
1.4545454545454546
1.436950146627566
1.4203323558162269
1.404692082111437
1.3890518084066472
1.3743890518084063
1.3607038123167154
1.3509286412512218
1.343108504398827
1.3333333333333333
1.3225806451612905
1.3118279569892473
1.3010752688172045
1.289345063538612
1.2776148582600195
1.2658846529814272
1.2551319648093842
1.2453567937438903
1.2355816226783969
1.2297165200391007
1.2258064516129032
1.2189638318670577
1.2111436950146628
1.2013685239491692
1.1906158357771262
1.1788856304985338
1.1652003910068427
1.1515151515151516
1.13880742913001
1.1270772238514175
1.1163245356793745
1.10752688172043
1.1036168132942326
1.1026392961876832
1.1016617790811338
1.1006842619745845
1.1006842619745845
1.1016617790811338
1.1036168132942326
1.10752688172043
1.1133919843597262
1.1192570869990224
1.126099706744868
1.1348973607038124
1.1485826001955035
1.1671554252199414
1.1964809384164223
1.2424242424242424
1.3098729227761483
1.4027370478983383
1.521016617790811
1.66177908113392
1.8191593352883677
1.986314760508309
2.15347018572825
2.3098729227761488
2.450635386119257
2.558162267839687
2.638318670576735
2.710654936461388
2.7702834799608995
2.81622678396872
2.850439882697948
2.873900293255132
2.8905180840664717
2.900293255131965
2.905180840664712
2.905180840664712
2.900293255131965
2.8885630498533725
2.8699902248289346
2.8455522971652005
2.814271749755621
2.774193548387097
2.7253176930596283
2.668621700879765
2.606060606060606
