ppg
2.6129032258064515
2.667644183773216
2.704789833822092
2.724340175953079
2.732160312805474
2.7331378299120237
2.7262952101661777
2.7116324535679373
2.6911045943304006
2.6637341153470184
2.6285434995112413
2.5855327468230693
2.535679374389052
2.4780058651026398
2.4144672531769307
2.345063538611926
2.2825024437927666
2.225806451612903
2.1652003910068425
2.103616813294233
2.04594330400782
1.994134897360704
1.948191593352884
1.9090909090909087
1.87683284457478
1.8504398826979471
1.827956989247312
1.8084066471163245
1.7927663734115349
1.780058651026393
1.7663734115347018
1.7526881720430108
1.7380254154447703
1.7204301075268815
1.7008797653958945
1.6803519061583578
1.6588465298142718
1.635386119257087
1.611925708699902
1.5884652981427174
1.564027370478983
1.544477028347996
1.5268817204301075
1.504398826979472
1.4809384164222874
1.456500488758553
1.4301075268817205
1.4027370478983383
1.375366568914956
1.3479960899315735
1.3235581622678396
1.3020527859237536
1.289345063538612
1.2903225806451613
1.3069403714565004
1.343108504398827
1.4056695992179864
1.4965786901270772
1.6158357771260996
1.7575757575757576
1.9149560117302051
2.0791788856304985
2.243401759530792
2.39980449657869
2.544477028347996
2.6715542521994133
2.768328445747801
2.8426197458455524
2.911045943304008
2.9667644183773216
3.0087976539589443
3.0391006842619745
3.0576735092864125
3.0664711632453567
3.067448680351906
3.059628543499511
3.043010752688172
3.016617790811339
2.9824046920821115
2.9423264907135875
2.89345063538612
2.8367546432062563
2.771260997067449
2.6989247311827955
2.624633431085044
2.550342130987292
2.4789833822091887
2.412512218963832
2.3519061583577714
2.2981427174975564
2.251221896383187
2.21505376344086
2.185728250244379
2.158357771260997
2.133919843597263
2.110459433040078
2.089931573802541
2.071358748778104
2.0518084066471163
2.032258064516129
2.0127077223851417
1.992179863147605
1.9696969696969695
1.9501466275659824
1.9305962854349952
1.9090909090909087
1.884652981427175
1.858260019550342
1.8318670576735088
1.8054740957966764
1.7771260997067448
1.747800586510264
1.7174975562072337
1.686217008797654
1.6559139784946235
1.624633431085044
1.598240469208211
1.5757575757575757
1.552297165200391
1.533724340175953
1.525904203323558
1.5356793743890518
1.5679374389051808
1.6275659824046922
1.7165200391006843
1.833822091886608
1.9745845552297163
2.131964809384164
2.274682306940372
2.407624633431085
2.5542521994134897
2.699902248289345
2.835777126099707
2.9550342130987293
3.0547409579667644
3.133919843597263
3.1925708699902247
3.232649071358749
3.2580645161290325
3.270772238514174
3.271749755620724
3.26197458455523
3.244379276637341
3.220918866080156
3.190615835777126
3.1515151515151514
3.103616813294233
3.046920821114369
2.981427174975562
2.9100684261974585
2.832844574780059
2.750733137829912
2.667644183773216
2.593352883675464
2.5268817204301075
2.458455522971652
2.393939393939394
2.334310850439883
2.2825024437927666
2.2375366568914954
2.198435972629521
2.117302052785924
2.016617790811339
1.9550342130987293
1.9149560117302051
1.8836754643206255
1.8602150537634408
1.839687194525904
1.8191593352883677
1.7996089931573802
1.7781036168132942
1.7556207233626588
1.7311827956989247
1.704789833822092
1.6764418377321604
1.64613880742913
1.6148582600195502
1.5835777126099706
1.5571847507331378
1.5327468230694037
1.504398826979472
1.474095796676442
1.4418377321603129
1.4076246334310851
1.3734115347018572
1.3421309872922775
1.316715542521994
1.3020527859237536
1.303030303030303
1.3264907135874875
1.3763440860215057
1.439882697947214
1.521016617790811
1.6334310850439884
1.772238514173998
1.9286412512218964
2.093841642228739
2.260019550342131
2.419354838709677
2.565982404692082
2.695014662756598
2.8044965786901277
2.89345063538612
2.952101661779081
2.989247311827957
3.018572825024438
3.0361681329423265
3.042033235581622
3.038123167155425
3.024437927663734
3.0009775171065494
2.9696969696969697
2.9286412512218964
2.878787878787879
2.819159335288368
2.757575757575758
2.69208211143695
2.6158357771261
2.533724340175953
2.4486803519061584
2.3626588465298144
2.278592375366569
2.1974584555229715
2.1221896383186705
2.0527859237536656
1.9902248289345064
1.935483870967742
1.8875855327468232
1.8504398826979471
1.8211143695014664
1.7927663734115349
1.7663734115347018
1.7419354838709675
1.718475073313783
1.6950146627565983
1.6715542521994136
1.6480938416422288
1.624633431085044
1.6011730205278591
1.576735092864125
1.555229716520039
1.5356793743890518
1.512218963831867
1.4868035190615836
1.4594330400782014
1.43108504398827
1.401759530791789
1.3724340175953078
1.3421309872922775
1.310850439882698
1.2795698924731185
1.2473118279569892
1.2150537634408602
1.1915933528836755
1.1749755620723363
1.163245356793744
1.163245356793744
1.1827956989247312
1.2297165200391007
1.3079178885630498
1.4164222873900294
1.5532746823069403
1.7126099706744868
1.8866080156402736
2.0684261974584555
2.225806451612903
2.364613880742913
2.5102639296187683
2.6471163245356792
2.768328445747801
2.8690127077223853
2.948191593352884
3.005865102639296
3.0439882697947214
3.065493646138808
3.0733137829912023
3.0684261974584555
3.0527859237536656
3.027370478983382
2.994134897360704
2.951124144672532
2.900293255131965
2.8396871945259043
2.76930596285435
2.6911045943304006
2.6080156402737047
2.5219941348973607
2.4349951124144678
2.3489736070381237
2.2668621700879767
2.1974584555229715
2.136852394916911
2.0772238514174
2.022482893450636
1.9736070381231672
1.9305962854349952
1.8934506353861196
1.86119257086999
1.833822091886608
1.8103616813294232
1.7869012707722385
1.7634408602150538
1.7409579667644184
1.721407624633431
1.7028347996089932
1.6803519061583578
1.6559139784946235
1.629521016617791
1.603128054740958
1.5747800586510263
1.5454545454545454
1.5151515151515151
1.4838709677419355
1.452590420332356
1.4203323558162269
1.393939393939394
1.3695014662756595
1.3411534701857282
1.310850439882698
1.2795698924731185
1.2473118279569892
1.217008797653959
1.1906158357771262
1.1720430107526882
1.166177908113392
1.1808406647116323
1.2209188660801564
1.2903225806451613
1.3734115347018572
1.4750733137829912
1.611925708699902
1.7761485826001957
1.9560117302052784
2.142717497556207
2.3274682306940373
2.4995112414467253
2.653958944281525
2.7859237536656893
2.89345063538612
2.9765395894428157
3.0283479960899315
3.056695992179863
3.075268817204301
3.080156402737048
3.072336265884653
3.0527859237536656
3.022482893450636
2.981427174975562
2.9315738025415445
2.8719452590420333
2.803519061583578
2.727272727272727
2.6422287390029324
2.5610948191593352
2.482893450635386
2.3949169110459434
2.302052785923754
2.210166177908113
2.1221896383186705
2.040078201368524
1.9657869012707725
1.8993157380254155
1.8416422287390029
1.7917888563049853
1.747800586510264
1.7135874877810362
1.686217008797654
1.6598240469208212
1.635386119257087
1.6109481915933528
1.585532746823069
1.5591397849462365
1.533724340175953
1.5073313782991202
1.479960899315738
1.4516129032258065
1.4222873900293256
1.392961876832845
1.3695014662756595
1.348973607038123
1.3235581622678396
1.295210166177908
1.2668621700879763
1.238514173998045
1.2101661779081134
1.181818181818182
1.152492668621701
1.1231671554252198
1.0928641251221896
1.06158357771261
1.0391006842619743
1.0224828934506354
1.0068426197458455
1.0009775171065494
1.0127077223851415
1.0488758553274682
1.115347018572825
1.2150537634408602
1.346041055718475
1.504398826979472
1.6823069403714566
1.8699902248289344
2.059628543499511
2.219941348973607
2.357771260997068
2.496578690127077
2.6236559139784945
2.730205278592375
2.814271749755621
2.873900293255132
2.913978494623656
2.936461388074292
2.943304007820137
2.935483870967742
2.9159335288367547
2.8885630498533725
2.854349951124145
2.791788856304985
2.7116324535679373
2.6373411534701856
2.5610948191593352
2.4809384164222874
2.396871945259042
2.310850439882698
2.2238514173998043
2.139784946236559
2.058651026392962
1.991202346041056
1.9335288367546437
1.8758553274682308
1.823069403714565
1.7771260997067448
1.7390029325513197
1.7067448680351909
1.678396871945259
1.653958944281525
1.632453567937439
1.611925708699902
1.5923753665689149
1.5718475073313782
1.5542521994134897
1.5386119257087
1.5190615835777126
1.4965786901270772
1.4721407624633431
1.4457478005865103
1.418377321603128
1.391006842619746
1.3626588465298142
1.3333333333333333
1.3040078201368523
1.2756598240469208
1.2541544477028348
1.2355816226783969
1.2130987292277615
1.1886608015640274
1.163245356793744
1.1368523949169111
1.110459433040078
1.086021505376344
1.0664711632453567
1.0576735092864125
1.064516129032258
1.0928641251221896
1.1485826001955035
1.2189638318670577
1.3098729227761483
1.436950146627566
1.5923753665689149
1.7683284457478006
1.95405669599218
2.1417399804496577
2.320625610948192
2.484848484848485
2.6285434995112413
2.748778103616813
2.8455522971652005
2.911045943304008
2.952101661779081
2.983382209188661
3.002932551319648
3.0097751710654936
3.003910068426197
2.988269794721408
2.962854349951124
2.929618768328446
2.886608015640274
2.834799608993157
2.774193548387097
2.702834799608993
2.631476050830889
2.5591397849462365
2.4780058651026398
2.3929618768328447
2.30791788856305
2.2248289345063537
2.145650048875855
2.072336265884653
2.005865102639296
1.946236559139785
1.8944281524926687
1.8504398826979471
1.8172043010752688
1.790811339198436
1.7653958944281525
1.7419354838709675
1.718475073313783
1.694037145650049
1.6695992179863148
1.64613880742913
1.6217008797653958
1.595307917888563
1.5679374389051808
1.5395894428152492
1.5102639296187683
1.4848484848484849
1.4623655913978495
1.435972629521017
1.4086021505376345
1.3792766373411536
1.348973607038123
1.3196480938416422
1.289345063538612
1.2580645161290325
1.2267839687194526
1.1964809384164223
1.166177908113392
1.1436950146627567
1.1280547409579669
1.1163245356793745
1.1163245356793745
1.1358748778103618
1.1808406647116323
1.2561094819159335
1.3616813294232648
1.4975562072336266
1.6578690127077225
1.833822091886608
2.0175953079178885
2.198435972629521
2.347996089931574
2.4750733137829912
2.601173020527859
2.713587487781036
2.807429130009776
2.8807429130009776
2.9345063538611926
2.9696969696969697
2.988269794721408
2.991202346041056
2.981427174975562
2.959921798631476
2.929618768328446
2.89345063538612
2.8475073313782997
2.792766373411535
2.730205278592375
2.658846529814272
2.578690127077224
2.493646138807429
2.404692082111437
2.312805474095797
2.220918866080156
2.133919843597263
2.0518084066471163
1.9843597262952104
1.927663734115347
1.871945259042033
1.8201368523949168
1.775171065493646
1.7350928641251222
1.699902248289345
1.6695992179863148
1.6422287390029326
1.6177908113391983
1.5933528836754642
1.56891495601173
1.5483870967741935
1.5298142717497556
1.5083088954056696
1.4848484848484849
1.4604105571847508
1.434017595307918
1.4066471163245358
1.3792766373411536
1.3528836754643203
1.3264907135874875
1.2981427174975562
1.2697947214076246
1.2404692082111437
1.217008797653959
1.195503421309873
1.1700879765395895
1.1407624633431086
1.110459433040078
1.0801564027370478
1.0518084066471165
1.029325513196481
1.018572825024438
1.0254154447702837
1.056695992179863
1.1173020527859236
1.1935483870967742
1.2903225806451613
1.423264907135875
1.58455522971652
1.7644183773216031
1.951124144672532
2.136852394916911
2.312805474095797
2.472140762463343
2.611925708699902
2.727272727272727
2.819159335288368
2.887585532746823
2.9286412512218964
2.949169110459433
2.961876832844575
2.962854349951124
2.95405669599218
2.9335288367546437
2.903225806451613
2.8641251221896384
2.8152492668621703
2.758553274682307
2.69208211143695
2.616813294232649
2.5434995112414467
2.4682306940371457
2.383186705767351
2.294232649071359
2.204301075268817
2.1163245356793743
2.0332355816226784
1.9560117302052784
1.8866080156402736
1.825024437927664
1.772238514173998
1.726295210166178
1.686217008797654
1.6559139784946235
1.6314760508308896
1.606060606060606
1.5806451612903225
1.555229716520039
1.5298142717497556
1.5053763440860215
1.4819159335288368
1.4604105571847508
1.4379276637341154
1.414467253176931
1.3900293255131966
1.3695014662756595
1.3509286412512218
1.3284457478005864
1.3040078201368523
1.278592375366569
1.252199413489736
1.224828934506354
1.1974584555229717
1.1691104594330402
1.1407624633431086
1.1114369501466277
1.0821114369501466
1.0606060606060606
1.0439882697947214
1.0263929618768328
1.0146627565982405
1.0156402737047898
1.0371456500488758
1.086021505376344
1.1671554252199414
1.281524926686217
1.4242424242424243
1.5884652981427174
1.76930596285435
1.956989247311828
2.118279569892473
2.260019550342131
2.406647116324536
2.5434995112414467
2.662756598240469
2.7595307917888565
2.833822091886608
2.8856304985337244
2.917888563049853
2.9335288367546437
2.9335288367546437
2.920821114369501
2.8993157380254155
2.8690127077223853
2.83088954056696
2.7839687194525906
2.7282502443792764
2.6637341153470184
2.590420332355816
2.5112414467253177
2.426197458455523
2.3362658846529816
2.24633431085044
2.157380254154448
2.071358748778104
1.9980449657869013
1.9345063538611929
1.871945259042033
1.8142717497556209
1.7634408602150538
1.7204301075268815
1.683284457478006
1.651026392961877
1.6217008797653958
1.595307917888563
1.5698924731182795
1.5464320625610948
1.5268817204301075
1.5102639296187683
1.4897360703812317
1.466275659824047
1.4418377321603129
1.4173998044965788
1.3919843597262953
1.3655913978494625
1.3372434017595307
1.3088954056695992
1.2805474095796676
1.252199413489736
1.2238514173998043
1.2013685239491692
1.181818181818182
1.1573802541544478
1.1319648093841643
1.1055718475073313
1.078201368523949
1.0498533724340176
1.021505376344086
0.9960899315738024
0.9736070381231672
0.9589442815249268
0.9589442815249268
0.975562072336266
1.0117302052785924
1.0772238514173995
1.1759530791788857
1.3069403714565004
1.466275659824047
1.6451612903225807
1.835777126099707
2.026392961876833
2.209188660801564
2.376344086021505
2.52297165200391
2.64613880742913
2.7331378299120237
2.792766373411535
2.841642228739003
2.873900293255132
2.889540566959922
2.889540566959922
2.877810361681329
2.8563049853372435
2.825024437927664
2.7859237536656893
2.7370478983382207
2.6803519061583576
2.622678396871945
2.560117302052786
2.4858260019550342
2.4027370478983383
2.314760508308896
2.2238514173998043
2.133919843597263
2.046920821114369
1.964809384164223
1.8914956011730208
1.826001955034213
1.76930596285435
1.721407624633431
1.6842619745845553
1.6559139784946235
1.6285434995112416
1.6041055718475072
1.581622678396872
1.560117302052786
1.5376344086021505
1.5151515151515151
1.4926686217008798
1.469208211143695
1.444770283479961
1.418377321603128
1.396871945259042
1.3773216031280548
1.35386119257087
1.327468230694037
1.3010752688172045
1.273704789833822
1.24633431085044
1.219941348973607
1.1935483870967742
1.1652003910068427
1.1368523949169111
1.1085043988269794
1.0801564027370478
1.0586510263929618
1.0410557184750733
1.0205278592375366
1.0019550342130987
0.9902248289345064
0.9912023460410556
1.0117302052785924
1.0586510263929618
1.1368523949169111
1.249266862170088
1.3919843597262953
1.560117302052786
1.7194525904203324
1.8748778103616808
2.050830889540567
2.228739002932551
2.3958944281524928
2.544477028347996
2.670576735092864
2.771260997067449
2.8475073313782997
2.8993157380254155
2.929618768328446
2.941348973607038
2.9374389051808407
2.920821114369501
2.89345063538612
2.8582600195503423
2.8152492668621703
2.764418377321604
2.705767350928641
2.6392961876832843
2.563049853372434
2.479960899315738
2.391006842619746
2.2981427174975564
2.2052785923753664
2.12316715542522
2.0498533724340176
1.9745845552297163
1.902248289345064
1.836754643206256
1.780058651026393
1.732160312805474
1.6920821114369502
1.6598240469208212
1.632453567937439
1.608993157380254
1.5884652981427174
1.56891495601173
1.5542521994134897
1.5395894428152492
1.521994134897361
1.5024437927663734
1.479960899315738
1.456500488758553
1.43108504398827
1.404692082111437
1.3763440860215057
1.3470185728250244
1.3176930596285434
1.289345063538612
1.267839687194526
1.249266862170088
1.2258064516129032
1.2013685239491692
1.1759530791788857
1.1515151515151516
1.1270772238514175
1.1016617790811338
1.0772238514173995
1.0547409579667644
1.0371456500488758
1.0283479960899315
1.0361681329423265
1.0606060606060606
1.1065493646138806
1.1857282502443791
1.2991202346041055
1.4457478005865103
1.619745845552297
1.812316715542522
2.013685239491691
2.2140762463343107
2.4056695992179864
2.579667644183773
2.732160312805474
2.8455522971652005
2.929618768328446
3.004887585532747
3.064516129032258
3.1055718475073317
3.1280547409579667
3.134897360703812
3.129032258064516
3.1114369501466275
3.083088954056696
3.04594330400782
3.0
2.949169110459433
2.89247311827957
2.825024437927664
2.747800586510264
2.6637341153470184
2.573802541544477
2.479960899315738
2.3851417399804498
2.294232649071359
2.2082111436950145
2.129032258064516
2.058651026392962
1.9960899315738023
1.945259042033236
1.905180840664712
1.868035190615836
1.833822091886608
1.8025415444770283
1.7741935483870968
1.747800586510264
1.721407624633431
1.6959921798631477
1.6705767350928642
1.6451612903225807
1.6187683284457477
1.595307917888563
1.573802541544477
1.5483870967741935
1.521016617790811
1.4946236559139785
1.4682306940371457
1.4408602150537635
1.412512218963832
1.3841642228739004
1.3558162267839686
1.3264907135874875
1.2971652003910068
1.267839687194526
1.2443792766373412
1.2228739002932552
1.198435972629521
1.1749755620723363
1.1573802541544478
1.1505376344086022
1.163245356793744
1.2013685239491692
1.2688172043010753
1.3685239491691104
1.498533724340176
1.6529814271749756
1.8005865102639296
1.946236559139785
2.1114369501466275
2.280547409579668
2.441837732160313
2.5865102639296187
2.7116324535679373
2.8132942326490715
2.8914956011730206
2.9472140762463344
2.983382209188661
3.002932551319648
3.006842619745845
2.9960899315738025
2.975562072336266
2.948191593352884
2.913978494623656
2.8729227761485827
2.8240469208211145
2.7653958944281527
2.697947214076246
2.621700879765396
2.539589442815249
2.452590420332356
2.363636363636364
2.283479960899316
2.209188660801564
2.131964809384164
2.056695992179863
1.9853372434017595
1.920821114369501
1.8641251221896384
1.81524926686217
1.7741935483870968
1.7380254154447703
1.7067448680351909
1.6793743890518085
1.653958944281525
1.6334310850439884
1.6158357771260996
1.595307917888563
1.573802541544477
1.5503421309872922
1.525904203323558
1.500488758553275
1.474095796676442
1.447702834799609
1.4213098729227762
1.393939393939394
1.3665689149560116
1.3440860215053765
1.3235581622678396
1.2981427174975562
1.270772238514174
1.241446725317693
1.2101661779081134
1.1779081133919844
1.1466275659824048
1.115347018572825
1.086021505376344
1.06158357771261
1.0478983382209188
1.0518084066471165
1.0713587487781036
1.1124144672531768
1.18475073313783
1.2903225806451613
1.426197458455523
1.587487781036168
1.7663734115347018
1.95405669599218
2.1407624633431084
2.318670576735093
2.479960899315738
2.619745845552297
2.721407624633431
2.795698924731183
2.860215053763441
2.909090909090909
2.941348973607038
2.956989247311828
2.9579667644183774
2.9472140762463344
2.9257086999022484
2.8944281524926687
2.855327468230694
2.807429130009776
2.7517106549364616
2.6930596285435
2.63049853372434
2.557184750733138
2.4750733137829912
2.388074291300098
2.2981427174975564
2.2082111436950145
2.121212121212121
2.0391006842619745
1.962854349951124
1.8934506353861196
1.8328445747800584
1.7859237536656891
1.747800586510264
1.7116324535679377
1.678396871945259
1.6490713587487782
1.6226783968719452
1.5972629521016617
1.573802541544477
1.5503421309872922
1.5278592375366569
1.5063538611925709
1.4838709677419355
1.4604105571847508
1.4408602150537635
1.423264907135875
1.4007820136852396
1.375366568914956
1.3499511241446724
1.3225806451612905
1.2942326490713587
1.2658846529814272
1.2375366568914956
1.209188660801564
1.1808406647116323
1.1515151515151516
1.1280547409579669
1.10752688172043
1.0821114369501466
1.0547409579667644
1.0303030303030305
1.0156402737047898
1.0166177908113392
1.0391006842619743
1.0899315738025417
1.1730205278592376
1.2903225806451613
1.436950146627566
1.6080156402737047
1.7683284457478006
1.9237536656891496
2.0957966764418376
2.2688172043010755
2.4301075268817205
2.5718475073313782
2.6901270772238512
2.7839687194525906
2.8533724340175954
2.8993157380254155
2.9237536656891496
2.9315738025415445
2.9237536656891496
2.9042033235581624
2.87683284457478
2.841642228739003
2.7996089931573804
2.748778103616813
2.6881720430107525
2.618768328445748
2.541544477028348
2.458455522971652
2.3704789833822093
2.2795698924731185
2.198435972629521
2.12316715542522
2.0439882697947214
1.9667644183773216
1.8934506353861196
1.827956989247312
1.7702834799608993
1.7194525904203324
1.6764418377321604
1.6412512218963833
1.6109481915933528
1.58455522971652
1.560117302052786
1.541544477028348
1.5249266862170088
1.5063538611925709
1.4858260019550342
1.4633431085043989
1.439882697947214
1.414467253176931
1.3890518084066472
1.3616813294232648
1.3333333333333333
1.3040078201368523
1.2756598240469208
1.252199413489736
1.23069403714565
1.2052785923753666
1.1779081133919844
1.1485826001955035
1.118279569892473
1.0879765395894427
1.056695992179863
1.0263929618768328
0.9980449657869012
0.9736070381231672
0.9560117302052786
0.9511241446725318
0.9608993157380256
0.9912023460410556
1.0488758553274682
1.13880742913001
1.260019550342131
1.4105571847507332
1.5826001955034212
1.7663734115347018
1.9530791788856303
2.132942326490713
2.2981427174975564
2.442815249266862
2.550342130987292
2.6295210166177907
2.697947214076246
2.7497556207233624
2.782991202346041
2.798631476050831
2.798631476050831
2.78494623655914
2.760508308895406
2.727272727272727
2.6852394916911044
2.634408602150537
2.575757575757576
2.5161290322580645
2.453567937438905
2.3812316715542523
2.3010752688172045
2.2160312805474094
2.129032258064516
2.043010752688172
1.9608993157380252
1.884652981427175
1.822091886608016
1.772238514173998
1.7253176930596286
1.6881720430107527
1.6588465298142718
1.6314760508308896
1.606060606060606
1.58455522971652
1.5650048875855327
1.547409579667644
1.530791788856305
1.5131964809384164
1.4946236559139785
1.474095796676442
1.4516129032258065
1.4281524926686218
1.4076246334310851
1.3900293255131966
1.3665689149560116
1.3401759530791788
1.3128054740957966
1.284457478005865
1.2561094819159335
1.227761485826002
1.2003910068426198
1.1730205278592376
1.1466275659824048
1.121212121212121
1.1016617790811338
1.0850439882697946
1.0654936461388074
1.0478983382209188
1.0381231671554252
1.0439882697947214
1.0713587487781036
1.1251221896383188
1.2101661779081134
1.327468230694037
1.4721407624633431
1.6383186705767352
1.8162267839687196
1.9736070381231672
2.117302052785924
2.267839687194526
2.4115347018572826
2.5386119257087
2.644183773216031
2.727272727272727
2.787878787878788
2.8269794721407626
2.8484848484848486
2.854349951124145
2.8484848484848486
2.831867057673509
2.806451612903226
2.774193548387097
2.735092864125122
2.6901270772238512
2.6373411534701856
2.575757575757576
2.50733137829912
2.4330400782013686
2.3528836754643208
2.269794721407625
2.1867057673509285
