ppg
1.0987292277614855
1.0899315738025417
1.083088954056696
1.0772238514173995
1.0713587487781036
1.0684261974584557
1.067448680351906
1.0654936461388074
1.0635386119257086
1.06158357771261
1.0606060606060606
1.0606060606060606
1.0635386119257086
1.067448680351906
1.0742913000977516
1.0850439882697946
1.104594330400782
1.130987292277615
1.1691104594330402
1.2297165200391007
1.3176930596285434
1.435972629521017
1.5826001955034212
1.7517106549364614
1.935483870967742
2.1221896383186705
2.300097751710655
2.4604105571847508
2.5972629521016617
2.704789833822092
2.776148582600196
2.817204301075269
2.8406647116324537
2.84652981427175
2.8367546432062563
2.8132942326490715
2.7810361681329425
2.740957966764418
2.696969696969697
2.650048875855328
2.603128054740958
2.557184750733138
2.5131964809384164
2.4682306940371457
2.419354838709677
2.3655913978494625
2.3069403714565007
2.244379276637341
2.179863147605083
2.1192570869990224
2.064516129032258
2.0175953079178885
1.9794721407624636
1.949169110459433
1.924731182795699
1.905180840664712
1.889540566959922
1.8748778103616808
1.8631476050830889
1.8543499511241448
1.8455522971652003
1.836754643206256
1.825024437927664
1.8113391984359728
1.7956989247311828
1.7771260997067448
1.758553274682307
1.7429130009775171
1.7272727272727273
1.7096774193548387
1.6901270772238517
1.6695992179863148
1.6480938416422288
1.6256109481915937
1.6021505376344083
1.5786901270772238
1.555229716520039
1.5317693059628543
1.5102639296187683
1.487781036168133
1.4682306940371457
1.4516129032258065
1.4330400782013686
1.4134897360703813
1.3949169110459434
1.3782991202346042
1.364613880742913
1.3528836754643203
1.3421309872922775
1.3304007820136852
1.3196480938416422
1.3098729227761483
1.3020527859237536
1.2971652003910068
1.29227761485826
1.2873900293255132
1.2825024437927663
1.2776148582600195
1.2727272727272727
1.2658846529814272
1.2570869990224829
1.2473118279569892
1.2375366568914956
1.227761485826002
1.2209188660801564
1.2179863147605083
1.2111436950146628
1.2013685239491692
1.2003910068426198
1.206256109481916
1.2179863147605083
1.2375366568914956
1.2697947214076246
1.321603128054741
1.4007820136852396
1.5083088954056696
1.64613880742913
1.7849462365591398
1.9315738025415443
2.1114369501466275
2.3059628543499517
2.4975562072336266
2.6715542521994133
2.820136852394917
2.935483870967742
3.0175953079178885
3.067448680351906
3.088954056695992
3.088954056695992
3.074291300097752
3.046920821114369
3.0127077223851417
2.975562072336266
2.9374389051808407
2.900293255131965
2.86217008797654
2.8211143695014664
2.777126099706745
2.729227761485826
2.673509286412512
2.6099706744868034
2.539589442815249
2.472140762463343
2.407624633431085
2.3382209188660803
2.2688172043010755
2.201368523949169
2.1378299120234603
2.078201368523949
2.022482893450636
1.9716520039100685
1.9257086999022484
1.8836754643206255
1.8455522971652003
1.8113391984359728
1.7849462365591398
1.7624633431085044
1.7390029325513197
1.7145650048875856
1.6901270772238517
1.6656891495601174
1.6392961876832846
1.608993157380254
1.5757575757575757
1.541544477028348
1.5063538611925709
1.474095796676442
1.4496578690127078
1.4291300097751711
1.4076246334310851
1.3851417399804498
1.3616813294232648
1.33822091886608
1.3157380254154447
1.2942326490713587
1.2727272727272727
1.2512218963831867
1.2316715542521994
1.2150537634408602
1.2023460410557183
1.1915933528836755
1.176930596285435
1.1612903225806452
1.144672531769306
1.1270772238514175
1.110459433040078
1.0957966764418376
1.0821114369501466
1.0694037145650048
1.056695992179863
1.0439882697947214
1.0312805474095796
1.0234604105571847
1.0175953079178883
1.007820136852395
0.9980449657869012
0.9872922776148584
0.9775171065493646
0.9687194525904204
0.9608993157380256
0.9550342130987292
0.9491691104594332
0.9433040078201368
0.9393939393939394
0.93841642228739
0.9423264907135877
0.946236559139785
0.956989247311828
0.9824046920821116
1.0273704789833822
1.0977517106549364
1.1994134897360704
1.3343108504398826
1.499511241446725
1.6881720430107527
1.89247311827957
2.0987292277614857
2.271749755620724
2.4173998044965788
2.5591397849462365
2.678396871945259
2.768328445747801
2.8269794721407626
2.8563049853372435
2.86217008797654
2.849462365591398
2.8211143695014664
2.782991202346041
2.73802541544477
2.69208211143695
2.6471163245356792
2.5992179863147604
2.549364613880743
2.4975562072336266
2.443792766373412
2.3851417399804498
2.32355816226784
2.259042033235582
2.1955034213098727
2.131964809384164
2.070381231671554
2.0127077223851417
1.962854349951124
1.919843597262952
1.8797653958944285
1.844574780058651
1.8142717497556209
1.7888563049853372
1.76930596285435
1.7517106549364614
1.7360703812316716
1.7204301075268815
1.7038123167155426
1.686217008797654
1.6715542521994136
1.6578690127077225
1.6422287390029326
1.6236559139784943
1.6021505376344083
1.5777126099706744
1.5503421309872922
1.520039100684262
1.4868035190615836
1.4516129032258065
1.41544477028348
1.380254154447703
1.3470185728250244
1.321603128054741
1.300097751710655
1.2776148582600195
1.2561094819159335
1.2375366568914956
1.2209188660801564
1.2043010752688172
1.187683284457478
1.1700879765395895
1.152492668621701
1.1348973607038124
1.1163245356793745
1.1026392961876832
1.0928641251221896
1.0811339198435972
1.067448680351906
1.0547409579667644
1.0439882697947214
1.035190615835777
1.0254154447702837
1.0127077223851415
1.0
0.9882697947214076
0.9775171065493646
0.9667644183773216
0.9608993157380256
0.9589442815249268
0.9560117302052786
0.95405669599218
0.9550342130987292
0.956989247311828
0.959921798631476
0.9638318670576737
0.9667644183773216
0.9726295210166178
0.9853372434017597
1.0087976539589445
1.0420332355816226
1.0918866080156402
1.1700879765395895
1.2795698924731185
1.4203323558162269
1.5894428152492668
1.7810361681329423
1.9843597262952104
2.187683284457478
2.3792766373411536
2.547409579667644
2.687194525904203
2.795698924731183
2.865102639296188
2.902248289345064
2.920821114369501
2.917888563049853
2.8963831867057674
2.860215053763441
2.8152492668621703
2.763440860215054
2.708699902248289
2.653958944281525
2.60019550342131
2.5464320625610948
2.496578690127077
2.44672531769306
2.391006842619746
2.3284457478005867
2.26197458455523
2.193548387096774
2.126099706744868
2.0635386119257086
2.006842619745845
1.956989247311828
1.9149560117302051
1.881720430107527
1.855327468230694
1.8347996089931573
1.8191593352883677
1.8025415444770283
1.7869012707722385
1.7712609970674489
1.7546432062561097
1.7360703812316716
1.7145650048875856
1.6911045943304008
1.6656891495601174
1.6412512218963833
1.6148582600195502
1.5923753665689149
1.5708699902248289
1.5464320625610948
1.520039100684262
1.4926686217008798
1.4652981427174976
1.4389051808406648
1.4134897360703813
1.3958944281524928
1.383186705767351
1.3665689149560116
1.3479960899315735
1.3294232649071358
1.3128054740957966
1.2981427174975562
1.281524926686217
1.2639296187683284
1.2473118279569892
1.23069403714565
1.2140762463343109
1.1974584555229717
1.181818181818182
1.1681329423264908
1.155425219941349
1.142717497556207
1.133919843597263
1.1270772238514175
1.1173020527859236
1.1055718475073313
1.0948191593352885
1.0850439882697946
1.0762463343108504
1.0694037145650048
1.0625610948191593
1.056695992179863
1.0518084066471165
1.0488758553274682
1.0478983382209188
1.050830889540567
1.0547409579667644
1.056695992179863
1.0586510263929618
1.0625610948191593
1.0713587487781036
1.088954056695992
1.1192570869990224
1.166177908113392
1.238514173998045
1.3372434017595307
1.4633431085043989
1.5923753665689149
1.7282502443792769
1.895405669599218
2.0772238514174
2.257086999022483
2.423264907135875
2.5669599217986314
2.6823069403714563
2.7673509286412514
2.8240469208211145
2.8533724340175954
2.8582600195503423
2.8455522971652005
2.819159335288368
2.7839687194525906
2.7419354838709675
2.6959921798631474
2.6480938416422286
2.5992179863147604
2.548387096774193
2.495601173020528
2.4389051808406648
2.378299120234604
2.312805474095797
2.2453567937438903
2.182795698924731
2.1251221896383186
2.064516129032258
2.004887585532747
1.951124144672532
1.903225806451613
1.8631476050830889
1.8299120234604105
1.804496578690127
1.7859237536656891
1.7732160312805474
1.7663734115347018
1.7634408602150538
1.7595307917888563
1.7546432062561097
1.747800586510264
1.737047898338221
1.7243401759530792
1.7067448680351909
1.6871945259042034
1.664711632453568
1.640273704789834
1.6129032258064515
1.585532746823069
1.5591397849462365
1.5356793743890518
1.512218963831867
1.4858260019550342
1.4594330400782014
1.434017595307918
1.4086021505376345
1.3851417399804498
1.3636363636363635
1.343108504398827
1.3235581622678396
1.303030303030303
1.2825024437927663
1.2688172043010753
1.2580645161290325
1.2443792766373412
1.2287390029325511
1.2130987292277615
1.1974584555229717
1.1808406647116323
1.1652003910068427
1.1515151515151516
1.1378299120234605
1.1251221896383188
1.1143695014662756
1.1065493646138806
1.1026392961876832
1.1006842619745845
1.0957966764418376
1.0899315738025417
1.0840664711632453
1.078201368523949
1.0713587487781036
1.0654936461388074
1.0625610948191593
1.0606060606060606
1.0596285434995112
1.0596285434995112
1.0635386119257086
1.0713587487781036
1.0840664711632453
1.1065493646138806
1.1456500488758554
1.2052785923753666
1.29227761485826
1.4086021505376345
1.555229716520039
1.726295210166178
1.913978494623656
2.10752688172043
2.297165200391007
2.450635386119257
2.573802541544477
2.6881720430107525
2.7810361681329425
2.84652981427175
2.886608015640274
2.902248289345064
2.898338220918866
2.8807429130009776
2.8533724340175954
2.819159335288368
2.782013685239492
2.742913000977517
2.702834799608993
2.659824046920821
2.613880742913001
2.5650048875855327
2.512218963831867
2.455522971652004
2.3958944281524928
2.335288367546432
2.275659824046921
2.218963831867057
2.1652003910068425
2.118279569892473
2.081133919843597
2.050830889540567
2.0234604105571847
2.0
1.981427174975562
1.9657869012707725
1.9501466275659824
1.9335288367546437
1.9149560117302051
1.8963831867057677
1.8758553274682308
1.8543499511241448
1.8347996089931573
1.8162267839687196
1.7956989247311828
1.7741935483870968
1.75366568914956
1.7341153470185728
1.7126099706744868
1.6901270772238517
1.667644183773216
1.6451612903225807
1.6217008797653958
1.598240469208211
1.573802541544477
1.552297165200391
1.5327468230694037
1.509286412512219
1.4858260019550342
1.4623655913978495
1.439882697947214
1.4203323558162269
1.401759530791789
1.3851417399804498
1.3724340175953078
1.3626588465298142
1.35386119257087
1.348973607038123
1.3450635386119256
1.3391984359726294
1.3313782991202343
1.3206256109481915
1.3088954056695992
1.2961876832844574
1.2834799608993157
1.2717497556207231
1.2619745845552297
1.2561094819159335
1.2512218963831867
1.2473118279569892
1.2473118279569892
1.2502443792766371
1.252199413489736
1.2531769305962854
1.2541544477028348
1.2541544477028348
1.2541544477028348
1.2541544477028348
1.2561094819159335
1.2639296187683284
1.281524926686217
1.313782991202346
1.3558162267839686
1.414467253176931
1.5034213098729228
1.6226783968719452
1.76930596285435
1.9364613880742916
2.115347018572825
2.294232649071359
2.463343108504399
2.611925708699902
2.7341153470185726
2.827956989247312
2.8914956011730206
2.9237536656891496
2.9315738025415445
2.9257086999022484
2.909090909090909
2.8836754643206257
2.8533724340175954
2.820136852394917
2.7839687194525906
2.7438905180840663
2.699902248289345
2.652003910068426
2.5992179863147604
2.5464320625610948
2.4916911045943304
2.432062561094819
2.36950146627566
2.300097751710655
2.228739002932551
2.160312805474096
2.096774193548387
2.0391006842619745
1.9872922776148585
1.9413489736070384
1.9012707722385145
1.8699902248289344
1.8435972629521016
1.8172043010752688
1.7917888563049853
1.7683284457478006
1.7458455522971652
1.7243401759530792
1.7038123167155426
1.6813294232649072
1.6578690127077225
1.6344086021505375
1.608993157380254
1.5806451612903225
1.5571847507331378
1.5356793743890518
1.5112414467253177
1.4838709677419355
1.455522971652004
1.4291300097751711
1.401759530791789
1.375366568914956
1.3499511241446724
1.3264907135874875
1.3040078201368523
1.2825024437927663
1.2658846529814272
1.252199413489736
1.2346041055718475
1.2160312805474096
1.1964809384164223
1.176930596285435
1.1593352883675463
1.141739980449658
1.1251221896383188
1.110459433040078
1.0957966764418376
1.0821114369501466
1.0684261974584557
1.0586510263929618
1.0518084066471165
1.0410557184750733
1.029325513196481
1.0175953079178883
1.0058651026392962
0.9931573802541545
0.981427174975562
0.9696969696969696
0.9589442815249268
0.9481915933528836
0.9374389051808406
0.9315738025415444
0.9286412512218964
0.9247311827956988
0.9227761485826002
0.9237536656891496
0.9296187683284456
0.9423264907135877
0.967741935483871
1.010752688172043
1.0772238514173995
1.1681329423264908
1.2873900293255132
1.435972629521017
1.5835777126099706
1.7350928641251222
1.9130009775171064
2.0987292277614857
2.27761485826002
2.4379276637341154
2.570869990224829
2.6725317693059627
2.7419354838709675
2.782991202346041
2.798631476050831
2.793743890518084
2.774193548387097
2.745845552297165
2.710654936461388
2.670576735092864
2.6285434995112413
2.58455522971652
2.5386119257087
2.486803519061584
2.4301075268817205
2.3685239491691106
2.302052785923754
2.23069403714565
2.160312805474096
2.099706744868035
2.0439882697947214
1.9843597262952104
1.9257086999022484
1.871945259042033
1.8240469208211143
1.7849462365591398
1.7556207233626588
1.7331378299120237
1.715542521994135
1.699902248289345
1.686217008797654
1.6744868035190617
1.66177908113392
1.64613880742913
1.6304985337243405
1.6138807429130009
1.5972629521016617
1.5796676441837731
1.560117302052786
1.5395894428152492
1.517106549364614
1.4897360703812317
1.4604105571847508
1.4301075268817205
1.404692082111437
1.3822091886608017
1.3577712609970674
1.335288367546432
1.313782991202346
1.2932551319648091
1.2717497556207231
1.2502443792766371
1.227761485826002
1.2052785923753666
1.18475073313783
1.166177908113392
1.1534701857282503
1.142717497556207
1.1290322580645162
1.115347018572825
1.1016617790811338
1.0879765395894427
1.0742913000977516
1.0606060606060606
1.0488758553274682
1.040078201368524
1.0312805474095796
1.021505376344086
1.0117302052785924
1.0058651026392962
1.002932551319648
0.9990224828934506
0.9951124144672532
0.9912023460410556
0.9882697947214076
0.9843597262952102
0.9824046920821116
0.9804496578690128
0.9775171065493646
0.975562072336266
0.9765395894428152
0.9824046920821116
0.9921798631476052
1.0068426197458455
1.0361681329423265
1.0840664711632453
1.155425219941349
1.2551319648093842
1.383186705767351
1.5376344086021505
1.7145650048875856
1.9042033235581624
2.096774193548387
2.2825024437927666
2.43108504398827
2.547409579667644
2.653958944281525
2.7370478983382207
2.792766373411535
2.8211143695014664
2.825024437927664
2.8103616813294234
2.7810361681329425
2.742913000977517
2.6989247311827955
2.652003910068426
2.6080156402737047
2.5640273704789838
2.5180840664711632
2.4672531769305963
2.4115347018572826
2.350928641251222
2.2844574780058653
2.2140762463343107
2.142717497556207
2.074291300097752
2.0087976539589443
1.9501466275659824
1.8983382209188664
1.858260019550342
1.826001955034213
1.796676441837732
1.772238514173998
1.7546432062561097
1.7429130009775171
1.7350928641251222
1.7311827956989247
1.7272727272727273
1.7223851417399805
1.7145650048875856
1.7018572825024438
1.6881720430107527
1.672531769305963
1.651026392961877
1.6265884652981428
1.6011730205278591
1.5747800586510263
1.5483870967741935
1.5239491691104594
1.498533724340176
1.4721407624633431
1.4467253176930597
1.4203323558162269
1.391006842619746
1.3665689149560116
1.3450635386119256
1.3225806451612905
1.3010752688172045
1.2795698924731185
1.2590420332355816
1.2394916911045943
1.2209188660801564
1.203323558162268
1.1857282502443791
1.1681329423264908
1.1495601173020529
1.1348973607038124
1.1241446725317692
1.1114369501466277
1.0987292277614855
1.0869990224828934
1.075268817204301
1.064516129032258
1.053763440860215
1.043010752688172
1.0332355816226784
1.0254154447702837
1.0175953079178883
1.013685239491691
1.0127077223851415
1.010752688172043
1.0087976539589445
1.007820136852395
1.007820136852395
1.007820136852395
1.007820136852395
1.007820136852395
1.0312805474095796
1.0733137829912025
1.1124144672531768
1.163245356793744
1.2209188660801564
1.2942326490713587
1.3988269794721409
1.5356793743890518
1.699902248289345
1.884652981427175
2.081133919843597
2.27761485826002
2.463343108504399
2.6265884652981426
2.763440860215054
2.868035190615836
2.9335288367546437
2.970674486803519
2.991202346041056
2.994134897360704
2.9804496578690127
2.9550342130987293
2.920821114369501
2.8807429130009776
2.834799608993157
2.7839687194525906
2.7262952101661777
2.6637341153470184
2.5962854349951123
2.5317693059628543
2.466275659824047
2.393939393939394
2.317693059628544
2.2404692082111435
2.166177908113392
2.0977517106549364
2.0361681329423265
1.9833822091886608
1.9403714565004888
1.906158357771261
1.8807429130009776
1.8631476050830889
1.8514173998044965
1.842619745845552
1.8347996089931573
1.8269794721407624
1.8191593352883677
1.812316715542522
1.8054740957966764
1.7976539589442817
1.7869012707722385
1.7712609970674489
1.7517106549364614
1.7272727272727273
1.7038123167155426
1.6803519061583578
1.6520039100684265
1.6207233626588464
1.5894428152492668
1.560117302052786
1.5327468230694037
1.5063538611925709
1.478983382209189
1.452590420332356
1.4291300097751711
1.4066471163245358
1.3890518084066472
1.3743890518084063
1.3577712609970674
1.3401759530791788
1.3235581622678396
1.3069403714565004
1.2903225806451613
1.2727272727272727
1.2531769305962854
1.2326490713587488
1.2130987292277615
1.1945259042033236
1.1788856304985338
1.1681329423264908
1.1612903225806452
1.1544477028347997
1.147605083088954
1.1407624633431086
1.1358748778103618
1.1329423264907137
1.1300097751710656
1.1280547409579669
1.1251221896383188
1.1231671554252198
1.1221896383186705
1.1241446725317692
1.1280547409579669
1.1300097751710656
1.133919843597263
1.1397849462365592
1.1505376344086022
1.1691104594330402
1.2003910068426198
1.2502443792766371
1.3255131964809383
1.4291300097751711
1.564027370478983
1.726295210166178
1.8826979472140764
2.0391006842619745
2.2218963831867056
2.4115347018572826
2.590420332355816
2.747800586510264
2.877810361681329
2.9765395894428157
3.0439882697947214
3.0821114369501466
3.0948191593352883
3.0879765395894427
3.0664711632453567
3.035190615835777
2.9960899315738025
2.9530791788856305
2.906158357771261
2.8563049853372435
2.8054740957966766
2.752688172043011
2.6989247311827955
2.643206256109482
2.58455522971652
2.5239491691104594
2.462365591397849
2.407624633431085
2.356793743890518
2.304985337243402
2.2561094819159337
2.2130987292277613
2.175953079178885
2.145650048875855
2.121212121212121
2.1006842619745845
2.083088954056696
2.067448680351906
2.0527859237536656
2.0391006842619745
2.026392961876833
2.010752688172043
1.992179863147605
1.9736070381231672
1.95405669599218
1.9305962854349952
1.9042033235581624
1.8758553274682308
1.8465298142717497
1.81524926686217
1.782991202346041
1.7517106549364614
1.7243401759530792
1.699902248289345
1.6735092864125125
1.6480938416422288
1.6256109481915937
1.603128054740958
1.581622678396872
1.5610948191593352
1.543499511241447
1.5278592375366569
1.5131964809384164
1.498533724340176
1.4858260019550342
1.4750733137829912
1.4604105571847508
1.444770283479961
1.4281524926686218
1.4134897360703813
1.3988269794721409
1.3841642228739004
1.370478983382209
1.359726295210166
1.3509286412512218
1.343108504398827
1.335288367546432
1.3304007820136852
1.327468230694037
1.3225806451612905
1.3176930596285434
1.3128054740957966
1.3088954056695992
1.303030303030303
1.295210166177908
1.2854349951124144
1.2727272727272727
1.2590420332355816
1.2473118279569892
1.241446725317693
1.2434017595307918
1.2541544477028348
1.278592375366569
1.3235581622678396
1.393939393939394
1.4926686217008798
1.6207233626588464
1.7781036168132942
1.956989247311828
2.147605083088954
2.3391984359726297
2.5180840664711632
2.6578690127077222
2.7653958944281527
2.860215053763441
2.9315738025415445
2.9775171065493646
2.9980449657869013
3.0
2.9872922776148583
2.964809384164223
2.935483870967742
2.902248289345064
2.8670576735092865
2.83088954056696
2.792766373411535
2.752688172043011
2.7096774193548385
2.662756598240469
2.610948191593353
2.5542521994134897
2.493646138807429
2.429130009775171
2.361681329423265
2.294232649071359
2.2277614858260018
2.1700879765395893
2.118279569892473
2.065493646138808
2.01564027370479
1.9696969696969695
1.9286412512218964
1.8934506353861196
1.8631476050830889
1.8377321603128052
1.812316715542522
1.7859237536656891
1.7595307917888563
1.7341153470185728
1.7126099706744868
1.6930596285434996
1.6715542521994136
1.6471163245356797
1.6207233626588464
1.5943304007820136
1.5679374389051808
1.541544477028348
1.5161290322580645
1.4916911045943304
1.4672531769305963
1.4418377321603129
1.4213098729227762
1.4037145650048877
1.3812316715542523
1.3304007820136852
1.2668621700879763
1.224828934506354
1.1935483870967742
1.1681329423264908
1.1456500488758554
1.126099706744868
1.1085043988269794
1.0928641251221896
1.078201368523949
1.067448680351906
1.0596285434995112
1.0488758553274682
1.0361681329423265
1.0234604105571847
1.0097751710654936
0.9960899315738024
0.9833822091886608
0.9716520039100685
0.959921798631476
0.9511241446725318
0.9452590420332356
0.9433040078201368
0.9442815249266864
0.9433040078201368
0.9413489736070382
0.93841642228739
0.935483870967742
0.9305962854349952
0.9257086999022482
0.9217986314760508
0.9188660801564028
0.9188660801564028
0.927663734115347
0.9521016617790812
0.9882697947214076
1.043010752688172
1.1290322580645162
1.2482893450635386
1.3988269794721409
1.576735092864125
1.7712609970674489
1.9696969696969695
2.161290322580645
2.335288367546432
2.4819159335288368
2.5962854349951123
2.670576735092864
2.7126099706744866
2.736070381231672
2.739980449657869
2.727272727272727
2.7008797653958942
2.664711632453568
2.6236559139784945
2.578690127077224
2.5317693059628543
2.482893450635386
2.4330400782013686
2.383186705767351
2.3362658846529816
2.2883675464320627
2.232649071358749
2.1730205278592374
2.110459433040078
2.0498533724340176
1.992179863147605
1.9393939393939397
1.89247311827957
1.8533724340175952
1.8211143695014664
1.7927663734115349
1.7702834799608993
1.750733137829912
1.732160312805474
1.7145650048875856
1.6959921798631477
1.6774193548387095
1.6578690127077225
1.6392961876832846
1.6187683284457477
1.5962854349951123
1.5728250244379276
1.5483870967741935
1.5239491691104594
1.5024437927663734
1.482893450635386
1.4594330400782014
1.434017595307918
1.4086021505376345
1.3822091886608017
1.3558162267839686
1.3313782991202343
1.3088954056695992
1.2864125122189638
1.2649071358748778
1.2424242424242424
1.2238514173998043
1.209188660801564
1.1906158357771262
1.1700879765395895
1.1505376344086022
1.1319648093841643
1.1143695014662756
1.0987292277614855
1.0840664711632453
1.0703812316715542
1.0557184750733135
1.0420332355816226
1.0273704789833822
1.0156402737047898
1.0058651026392962
0.9951124144672532
0.9843597262952102
0.9736070381231672
0.9648093841642228
0.9589442815249268
0.95405669599218
0.9501466275659824
0.946236559139785
