ppg
1.8914956011730208
1.878787878787879
1.865102639296188
1.847507331378299
1.827956989247312
1.8074291300097751
1.7839687194525904
1.7644183773216031
1.7458455522971652
1.7223851417399805
1.696969696969697
1.6695992179863148
1.6412512218963833
1.611925708699902
1.5826001955034212
1.5542521994134897
1.5278592375366569
1.5034213098729228
1.4819159335288368
1.3861192570869991
1.2580645161290325
1.1915933528836755
1.152492668621701
1.1290322580645162
1.1133919843597262
1.1006842619745845
1.0879765395894427
1.0742913000977516
1.0586510263929618
1.0449657869012707
1.043010752688172
1.0654936461388074
1.1114369501466277
1.1915933528836755
1.3294232649071358
1.5239491691104594
1.7673509286412512
2.0410557184750733
2.32355816226784
2.5943304007820136
2.8367546432062563
3.038123167155425
3.1955034213098727
3.3118279569892475
3.391006842619746
3.4330400782013686
3.449657869012708
3.455522971652004
3.4516129032258065
3.4389051808406648
3.418377321603128
3.3949169110459434
3.3714565004887587
3.347018572825025
3.3225806451612905
3.3010752688172045
3.281524926686217
3.259042033235582
3.2346041055718477
3.2111436950146626
3.182795698924731
3.147605083088954
3.103616813294233
3.046920821114369
2.9775171065493646
2.89247311827957
2.793743890518084
2.6832844574780057
2.565982404692082
2.4457478005865103
2.3382209188660803
2.241446725317693
2.142717497556207
2.0498533724340176
1.9687194525904204
1.902248289345064
1.8494623655913975
1.8084066471163245
1.7761485826001957
1.7487781036168133
1.7233626588465298
1.6979472140762464
1.6764418377321604
1.6559139784946235
1.6304985337243405
1.6041055718475072
1.576735092864125
1.5493646138807429
1.521994134897361
1.4946236559139785
1.4652981427174976
1.436950146627566
1.4076246334310851
1.3782991202346042
1.3479960899315735
1.3235581622678396
1.303030303030303
1.2795698924731185
1.2561094819159335
1.2326490713587488
1.209188660801564
1.1867057673509287
1.1652003910068427
1.1436950146627567
1.121212121212121
1.0987292277614855
1.075268817204301
1.0557184750733135
1.0381231671554252
1.0195503421309873
1.0097751710654936
1.024437927663734
1.078201368523949
1.1827956989247312
1.3470185728250244
1.5650048875855327
1.825024437927664
2.1094819159335287
2.3958944281524928
2.665689149560117
2.877810361681329
3.042033235581622
3.189638318670577
3.3088954056695994
3.396871945259042
3.4565004887585533
3.4916911045943304
3.5083088954056696
3.509286412512219
3.498533724340176
3.479960899315738
3.455522971652004
3.4252199413489737
3.3919843597262958
3.3597262952101663
3.3274682306940373
3.2952101661779083
3.26197458455523
3.2277614858260018
3.190615835777126
3.146627565982405
3.093841642228739
3.029325513196481
2.9530791788856305
2.8641251221896384
2.774193548387097
2.679374389051808
2.567937438905181
2.4486803519061584
2.326490713587488
2.207233626588465
2.0977517106549364
2.0
1.9188660801564028
1.8533724340175952
1.801564027370479
1.761485826001955
1.732160312805474
1.7086999022482894
1.686217008797654
1.6637341153470186
1.640273704789834
1.6158357771260996
1.590420332355816
1.5650048875855327
1.5386119257087
1.5102639296187683
1.4809384164222874
1.4506353861192571
1.4252199413489737
1.4007820136852396
1.3714565004887584
1.33822091886608
1.3040078201368523
1.2688172043010753
1.2336265884652982
1.1994134897360704
1.166177908113392
1.1358748778103618
1.10752688172043
1.0821114369501466
1.0596285434995112
1.0439882697947214
1.0332355816226784
1.0205278592375366
1.0058651026392962
0.989247311827957
0.9696969696969696
0.9511241446725318
0.93841642228739
0.9393939393939394
0.9696969696969696
1.0449657869012707
1.176930596285435
1.3343108504398826
1.5268817204301075
1.7849462365591398
2.081133919843597
2.389051808406647
2.6832844574780057
2.945259042033236
3.1622678396871944
3.332355816226784
3.4574780058651027
3.541544477028348
3.591397849462365
3.6148582600195502
3.613880742913001
3.5962854349951123
3.5718475073313782
3.541544477028348
3.506353861192571
3.4701857282502444
3.434017595307918
3.39980449657869
3.3655913978494625
3.333333333333333
3.300097751710655
3.264907135874878
3.2267839687194524
3.1837732160312804
3.133919843597263
3.075268817204301
3.003910068426197
2.919843597262952
2.822091886608016
2.710654936461388
2.587487781036168
2.458455522971652
2.3274682306940373
2.19941348973607
2.081133919843597
1.9843597262952104
1.906158357771261
1.833822091886608
1.7712609970674489
1.7204301075268815
1.6813294232649072
1.6490713587487782
1.619745845552297
1.5933528836754642
1.5669599217986314
1.5386119257087
1.5083088954056696
1.4819159335288368
1.457478005865103
1.4291300097751711
1.4007820136852396
1.3734115347018572
1.3470185728250244
1.321603128054741
1.2961876832844574
1.2717497556207231
1.24633431085044
1.2209188660801564
1.1945259042033236
1.1671554252199414
1.1436950146627567
1.1221896383186705
1.0948191593352885
1.067448680351906
1.040078201368524
1.013685239491691
0.989247311827957
0.9667644183773216
0.9452590420332356
0.9217986314760508
0.895405669599218
0.8680351906158358
0.8484848484848485
0.8377321603128055
0.8377321603128055
0.8660801564027371
0.93841642228739
1.064516129032258
1.2394916911045943
1.4389051808406648
1.6490713587487782
1.865102639296188
2.0733137829912023
2.26197458455523
2.423264907135875
2.539589442815249
2.6207233626588464
2.687194525904203
2.735092864125122
2.764418377321604
2.779081133919844
2.7810361681329425
2.774193548387097
2.7614858260019552
2.7438905180840663
2.724340175953079
2.7038123167155423
2.681329423264907
2.6578690127077222
2.635386119257087
2.6129032258064515
2.589442815249267
2.563049853372434
2.532746823069404
2.4946236559139785
2.4486803519061584
2.3929618768328447
2.3284457478005867
2.254154447702835
2.172043010752688
2.093841642228739
2.018572825024438
1.935483870967742
1.8523949169110456
1.7761485826001957
1.7086999022482894
1.6529814271749756
1.6080156402737047
1.5728250244379276
1.5454545454545454
1.52297165200391
1.5034213098729228
1.487781036168133
1.474095796676442
1.457478005865103
1.4389051808406648
1.4193548387096775
1.3978494623655917
1.3763440860215057
1.3548387096774193
1.3333333333333333
1.310850439882698
1.2883675464320623
1.2658846529814272
1.2443792766373412
1.2267839687194526
1.2130987292277615
1.195503421309873
1.1759530791788857
1.155425219941349
1.1348973607038124
1.1133919843597262
1.0928641251221896
1.0733137829912025
1.053763440860215
1.035190615835777
1.0166177908113392
1.002932551319648
0.9912023460410556
0.9745845552297164
0.9560117302052786
0.9393939393939394
0.9315738025415444
0.9433040078201368
0.9843597262952102
1.0635386119257086
1.1857282502443791
1.3509286412512218
1.5493646138807429
1.7673509286412512
1.9608993157380252
2.131964809384164
2.304985337243402
2.458455522971652
2.582600195503421
2.675464320625611
2.7390029325513194
2.776148582600196
2.792766373411535
2.793743890518084
2.782991202346041
2.7624633431085046
2.736070381231672
2.705767350928641
2.674486803519061
2.6422287390029324
2.610948191593353
2.5806451612903225
2.5513196480938416
2.5219941348973607
2.49266862170088
2.4613880742913
2.426197458455523
2.383186705767351
2.332355816226784
2.2795698924731185
2.220918866080156
2.1495601173020527
2.0664711632453567
1.9765395894428155
1.8826979472140764
1.7878787878787878
1.6979472140762464
1.6158357771260996
1.544477028347996
1.4848484848484849
1.436950146627566
1.4027370478983383
1.3792766373411536
1.3577712609970674
1.33822091886608
1.3196480938416422
1.300097751710655
1.281524926686217
1.262952101661779
1.2443792766373412
1.2267839687194526
1.2101661779081134
1.1935483870967742
1.1808406647116323
1.1710654936461389
1.1573802541544478
1.1407624633431086
1.1221896383186705
1.1016617790811338
1.0791788856304985
1.0547409579667644
1.0303030303030305
1.0039100684261977
0.978494623655914
0.9550342130987292
0.9325513196480938
0.9159335288367546
0.9032258064516128
0.8866080156402737
0.8709677419354839
0.8543499511241447
0.8387096774193549
0.8220918866080157
0.804496578690127
0.7878787878787878
0.7751710654936461
0.7741935483870968
0.793743890518084
0.833822091886608
0.9022482893450636
1.0166177908113392
1.176930596285435
1.3763440860215057
1.5992179863147604
1.8299120234604105
2.0498533724340176
2.2453567937438903
2.406647116324536
2.5317693059628543
2.621700879765396
2.6803519061583576
2.7096774193548385
2.719452590420332
2.718475073313783
2.70772238514174
2.6901270772238512
2.668621700879765
2.6451612903225805
2.621700879765396
2.60019550342131
2.5806451612903225
2.5620723362658846
2.5434995112414467
2.5239491691104594
2.5034213098729228
2.4819159335288368
2.4565004887585533
2.426197458455523
2.389051808406647
2.3421309872922778
2.2854349951124147
2.217986314760508
2.1407624633431084
2.053763440860215
1.959921798631476
1.86119257086999
1.7741935483870968
1.696969696969697
1.6177908113391983
1.543499511241447
1.478005865102639
1.4252199413489737
1.383186705767351
1.3509286412512218
1.3264907135874875
1.305962854349951
1.2873900293255132
1.2688172043010753
1.2541544477028348
1.2394916911045943
1.219941348973607
1.1974584555229717
1.1720430107526882
1.1456500488758554
1.118279569892473
1.0909090909090908
1.0635386119257086
1.0371456500488758
1.0117302052785924
0.9882697947214076
0.967741935483871
0.95405669599218
0.9433040078201368
0.9315738025415444
0.919843597262952
0.9090909090909092
0.8983382209188661
0.8875855327468231
0.8768328445747801
0.8670576735092864
0.8563049853372434
0.8435972629521017
0.8289345063538612
0.8181818181818182
0.8103616813294232
0.8005865102639296
0.7976539589442815
0.8113391984359726
0.852394916911046
0.9286412512218964
1.04594330400782
1.2013685239491692
1.3861192570869991
1.5884652981427174
1.7917888563049853
1.981427174975562
2.1309872922776147
2.247311827956989
2.350928641251222
2.4330400782013686
2.4916911045943304
2.530791788856305
2.5532746823069403
2.5620723362658846
2.560117302052786
2.550342130987292
2.5347018572825024
2.515151515151515
2.5425219941348973
2.592375366568915
2.606060606060606
2.6021505376344085
2.589442815249267
2.572825024437928
2.5532746823069403
2.530791788856305
2.504398826979472
2.4711632453567938
2.43108504398827
2.3812316715542523
2.320625610948192
2.259042033235582
2.193548387096774
2.113391984359726
2.024437927663734
1.932551319648094
1.842619745845552
1.758553274682307
1.683284457478006
1.619745845552297
1.56891495601173
1.5288367546432062
1.4975562072336266
1.47702834799609
1.4623655913978495
1.4486803519061584
1.435972629521017
1.423264907135875
1.4105571847507332
1.3978494623655917
1.3851417399804498
1.3724340175953078
1.3587487781036167
1.3450635386119256
1.3313782991202343
1.3157380254154447
1.3040078201368523
1.2932551319648091
1.2776148582600195
1.2590420332355816
1.2394916911045943
1.2189638318670577
1.1974584555229717
1.1759530791788857
1.1544477028347997
1.1348973607038124
1.1173020527859236
1.099706744868035
1.088954056695992
1.0811339198435972
1.0703812316715542
1.0576735092864125
1.0439882697947214
1.0303030303030305
1.0175953079178883
1.0127077223851415
1.0224828934506354
1.0576735092864125
1.1280547409579669
1.238514173998045
1.388074291300098
1.542521994134897
1.7028347996089932
1.889540566959922
2.080156402737048
2.2561094819159337
2.406647116324536
2.5268817204301075
2.616813294232649
2.678396871945259
2.716520039100684
2.736070381231672
2.740957966764418
2.7331378299120237
2.718475073313783
2.6989247311827955
2.675464320625611
2.650048875855328
2.6236559139784945
2.5972629521016617
2.5718475073313782
2.547409579667644
2.5239491691104594
2.5004887585532747
2.4750733137829912
2.44672531769306
2.4173998044965788
2.3841642228739004
2.3421309872922778
2.290322580645161
2.228739002932551
2.158357771260997
2.080156402737048
1.997067448680352
1.9120234604105573
1.828934506353861
1.750733137829912
1.6803519061583578
1.6275659824046922
1.587487781036168
1.5513196480938416
1.521994134897361
1.499511241446725
1.4819159335288368
1.4672531769305963
1.452590420332356
1.4379276637341154
1.4222873900293256
1.404692082111437
1.3851417399804498
1.370478983382209
1.356793743890518
1.33822091886608
1.3176930596285434
1.2971652003910068
1.2756598240469208
1.2541544477028348
1.2316715542521994
1.2101661779081134
1.1906158357771262
1.1710654936461389
1.152492668621701
1.1348973607038124
1.1221896383186705
1.1133919843597262
1.1006842619745845
1.0869990224828934
1.072336265884653
1.0596285434995112
1.0478983382209188
1.0361681329423265
1.024437927663734
1.0117302052785924
1.0
0.9921798631476052
0.9931573802541545
1.0087976539589445
1.043010752688172
1.1055718475073313
1.203323558162268
1.335288367546432
1.4965786901270772
1.675464320625611
1.858260019550342
2.0332355816226784
2.187683284457478
2.314760508308896
2.4134897360703813
2.4789833822091887
2.5190615835777126
2.547409579667644
2.563049853372434
2.5669599217986314
2.563049853372434
2.5513196480938416
2.5347018572825024
2.515151515151515
2.493646138807429
2.4731182795698925
2.453567937438905
2.4349951124144678
2.4173998044965788
2.39980449657869
2.3822091886608017
2.3626588465298144
2.340175953079179
2.312805474095797
2.278592375366569
2.236559139784946
2.1847507331378297
2.124144672531769
2.0547409579667644
1.9794721407624636
1.911045943304008
1.8484848484848484
1.782991202346041
1.7194525904203324
1.6637341153470186
1.616813294232649
1.5806451612903225
1.5542521994134897
1.5347018572825024
1.520039100684262
1.5073313782991202
1.4946236559139785
1.4838709677419355
1.474095796676442
1.4604105571847508
1.4457478005865103
1.4301075268817205
1.412512218963832
1.3949169110459434
1.3773216031280548
1.359726295210166
1.3421309872922775
1.3235581622678396
1.3040078201368523
1.2854349951124144
1.2727272727272727
1.2619745845552297
1.2473118279569892
1.23069403714565
1.2140762463343109
1.198435972629521
1.1827956989247312
1.1691104594330402
1.1573802541544478
1.1485826001955035
1.1407624633431086
1.1319648093841643
1.126099706744868
1.121212121212121
1.1124144672531768
1.1055718475073313
1.1065493646138806
1.1251221896383188
1.1710654936461389
1.252199413489736
1.370478983382209
1.5239491691104594
1.7028347996089932
1.8944281524926687
2.0840664711632453
2.2385141739980448
2.363636363636364
2.4809384164222874
2.5777126099706744
2.650048875855328
2.699902248289345
2.730205278592375
2.745845552297165
2.748778103616813
2.742913000977517
2.730205278592375
2.7116324535679373
2.689149560117302
2.664711632453568
2.638318670576735
2.6129032258064515
2.589442815249267
2.565982404692082
2.5425219941348973
2.5190615835777126
2.493646138807429
2.464320625610948
2.4301075268817205
2.3900293255131966
2.343108504398827
2.2961876832844577
2.2453567937438903
2.182795698924731
2.1114369501466275
2.035190615835777
1.956989247311828
1.9090909090909087
1.8797653958944285
1.8347996089931573
1.7888563049853372
1.7497556207233629
1.718475073313783
1.696969696969697
1.683284457478006
1.6695992179863148
1.656891495601173
1.643206256109482
1.629521016617791
1.6148582600195502
1.5992179863147604
1.581622678396872
1.563049853372434
1.543499511241447
1.52297165200391
1.501466275659824
1.482893450635386
1.4672531769305963
1.447702834799609
1.426197458455523
1.4027370478983383
1.3792766373411536
1.356793743890518
1.335288367546432
1.3147605083088951
1.295210166177908
1.278592375366569
1.2649071358748778
1.2580645161290325
1.2541544477028348
1.2482893450635386
1.241446725317693
1.2326490713587488
1.2228739002932552
1.2121212121212122
1.2023460410557183
1.198435972629521
1.2082111436950147
1.2424242424242424
1.3118279569892473
1.4242424242424243
1.552297165200391
1.7018572825024438
1.895405669599218
2.1114369501466275
2.329423264907136
2.532746823069404
2.708699902248289
2.8514173998044967
2.9589442815249267
3.035190615835777
3.085043988269794
3.113391984359726
3.1221896383186705
3.118279569892473
3.10850439882698
3.093841642228739
3.074291300097752
3.0527859237536656
3.0303030303030303
3.006842619745845
2.98435972629521
2.963831867057673
2.9442815249266863
2.924731182795699
2.903225806451613
2.878787878787879
2.8514173998044967
2.8181818181818183
2.7781036168132944
2.727272727272727
2.6666666666666665
2.5943304007820136
2.512218963831867
2.421309872922776
2.326490713587488
2.23069403714565
2.1378299120234603
2.06158357771261
1.9990224828934504
1.9403714565004888
1.8905180840664717
1.8514173998044965
1.8211143695014664
1.7986314760508308
1.7820136852394917
1.7673509286412512
1.7546432062561097
1.7409579667644184
1.726295210166178
1.7135874877810362
1.7008797653958945
1.6852394916911049
1.6666666666666667
1.6471163245356797
1.6265884652981428
1.6041055718475072
1.5806451612903225
1.5562072336265884
1.5327468230694037
1.509286412512219
1.4858260019550342
1.4633431085043989
1.447702834799609
1.4349951124144673
1.4193548387096775
1.4027370478983383
1.3861192570869991
1.3714565004887584
1.356793743890518
1.3440860215053765
1.332355816226784
1.321603128054741
1.310850439882698
1.3010752688172045
1.2971652003910068
1.3020527859237536
1.3186705767350928
1.3587487781036167
1.4330400782013686
1.5483870967741935
1.704789833822092
1.8963831867057677
2.110459433040078
2.3313782991202348
2.541544477028348
2.729227761485826
2.8856304985337244
2.9960899315738025
3.072336265884653
3.132942326490713
3.175953079178885
3.201368523949169
3.2111436950146626
3.209188660801564
3.198435972629521
3.179863147605083
3.156402737047898
3.1309872922776147
3.104594330400782
3.078201368523949
3.0518084066471163
3.026392961876833
3.002932551319648
2.979472140762464
2.956011730205278
2.9286412512218964
2.8963831867057674
2.857282502443793
2.809384164222874
2.750733137829912
2.6823069403714563
2.603128054740958
2.5249266862170088
2.44672531769306
2.358748778103617
2.267839687194526
2.1788856304985336
2.0977517106549364
2.026392961876833
1.9657869012707725
1.9159335288367547
1.8758553274682308
1.8435972629521016
1.818181818181818
1.7986314760508308
1.782991202346041
1.7663734115347018
1.7497556207233629
1.732160312805474
1.7145650048875856
1.6959921798631477
1.6764418377321604
1.656891495601173
1.6363636363636365
1.6148582600195502
1.5923753665689149
1.5698924731182795
1.5532746823069403
1.5386119257087
1.521994134897361
1.504398826979472
1.4858260019550342
1.4672531769305963
1.4486803519061584
1.4291300097751711
1.4105571847507332
1.392961876832845
1.3763440860215057
1.3616813294232648
1.3519061583577712
1.343108504398827
1.3304007820136852
1.3147605083088951
1.2991202346041055
1.2903225806451613
1.2971652003910068
1.3313782991202343
1.4037145650048877
1.521016617790811
1.6842619745845553
1.884652981427175
2.10850439882698
2.310850439882698
2.4916911045943304
2.678396871945259
2.8475073313782997
2.988269794721408
3.0948191593352883
3.1700879765395893
3.218963831867057
3.2453567937438903
3.2561094819159337
3.254154447702835
3.243401759530792
3.2238514173998043
3.19941348973607
3.1730205278592374
3.144672531769306
3.115347018572825
3.086021505376344
3.056695992179863
3.0254154447702835
2.994134897360704
2.959921798631476
2.921798631476051
2.878787878787879
2.827956989247312
2.7751710654936463
2.716520039100684
2.643206256109482
2.558162267839687
2.463343108504399
2.363636363636364
2.2629521016617797
2.1652003910068425
2.075268817204301
1.9951124144672527
1.927663734115347
1.8729227761485825
1.833822091886608
1.8064516129032255
1.7820136852394917
1.761485826001955
1.7429130009775171
1.7253176930596286
1.70772238514174
1.6901270772238517
1.6705767350928642
1.6500488758553276
1.6285434995112416
1.6050830889540566
1.5806451612903225
1.5112414467253177
1.418377321603128
1.3607038123167154
1.3196480938416422
1.2873900293255132
1.2590420332355816
1.2316715542521994
1.2052785923753666
1.1798631476050832
1.155425219941349
1.133919843597263
1.1133919843597262
1.0987292277614855
1.0879765395894427
1.075268817204301
1.06158357771261
1.0488758553274682
1.035190615835777
1.021505376344086
1.0068426197458455
0.9912023460410556
0.9765395894428152
0.9696969696969696
0.9794721407624634
1.0166177908113392
1.075268817204301
1.163245356793744
1.2981427174975562
1.4750733137829912
1.6803519061583578
1.8983382209188664
2.1114369501466275
2.3059628543499517
2.472140762463343
2.603128054740958
2.7008797653958942
2.7673509286412514
2.803519061583578
2.8181818181818183
2.8211143695014664
2.8132942326490715
2.7966764418377323
2.7722385141739982
2.742913000977517
2.710654936461388
2.677419354838709
2.644183773216031
2.611925708699902
2.581622678396872
2.552297165200391
2.52297165200391
2.4916911045943304
2.458455522971652
2.419354838709677
2.372434017595308
2.3167155425219943
2.251221896383187
2.176930596285435
2.0957966764418376
2.010752688172043
1.9237536656891496
1.839687194525904
1.7712609970674489
1.7145650048875856
1.6598240469208212
1.611925708699902
1.573802541544477
1.544477028347996
1.521994134897361
1.5034213098729228
1.4887585532746823
1.4750733137829912
1.4633431085043989
1.4506353861192571
1.4408602150537635
1.4320625610948192
1.4193548387096775
1.4037145650048877
1.3851417399804498
1.3655913978494625
1.3440860215053765
1.3225806451612905
1.3010752688172045
1.278592375366569
1.2551319648093842
1.2326490713587488
1.2111436950146628
1.195503421309873
1.1827956989247312
1.1652003910068427
1.1466275659824048
1.1280547409579669
1.1094819159335287
1.0918866080156402
1.0762463343108504
1.0606060606060606
1.0439882697947214
1.0273704789833822
1.010752688172043
1.0
0.9951124144672532
0.997067448680352
1.018572825024438
1.0703812316715542
1.1622678396871946
1.2981427174975562
1.4750733137829912
1.683284457478006
1.906158357771261
2.1280547409579667
2.3304007820136854
2.5034213098729228
2.6285434995112413
2.7145650048875853
2.7839687194525906
2.831867057673509
2.859237536656892
2.8690127077223853
2.8641251221896384
2.849462365591398
2.8269794721407626
2.7996089931573804
2.76930596285435
2.73802541544477
2.7067448680351904
2.67644183773216
2.6451612903225805
2.613880742913001
2.581622678396872
2.548387096774193
2.512218963831867
2.472140762463343
2.4252199413489737
2.3704789833822093
2.3069403714565007
2.2355816226783967
2.155425219941349
2.080156402737048
2.006842619745845
1.924731182795699
1.8406647116324533
1.761485826001955
1.6911045943304008
1.6304985337243405
1.5796676441837731
1.5405669599217986
1.512218963831867
1.4926686217008798
1.478983382209189
1.4711632453567938
1.466275659824047
1.4604105571847508
1.452590420332356
1.4428152492668622
1.43108504398827
1.4164222873900294
1.3988269794721409
1.3792766373411536
1.3577712609970674
1.335288367546432
1.3118279569892473
1.2873900293255132
1.2668621700879763
1.2482893450635386
1.2258064516129032
1.2023460410557183
1.1798631476050832
1.1583577712609971
1.1378299120234605
1.1192570869990224
1.1026392961876832
1.0869990224828934
1.0742913000977516
1.0635386119257086
1.0576735092864125
1.0547409579667644
1.0488758553274682
1.0410557184750733
1.0303030303030305
1.018572825024438
1.010752688172043
1.0146627565982405
1.0410557184750733
1.1016617790811338
1.206256109481916
1.3587487781036167
1.5542521994134897
1.7468230694037146
1.9393939393939397
2.157380254154448
2.3734115347018574
2.567937438905181
2.7282502443792764
2.852394916911046
2.941348973607038
3.0
3.0332355816226784
3.04594330400782
3.043010752688172
3.0283479960899315
3.003910068426197
2.975562072336266
2.943304007820137
2.90811339198436
2.8729227761485827
2.8396871945259043
2.8084066471163247
