ppg
2.5718475073313782
2.547409579667644
2.5161290322580645
2.4750733137829912
2.419354838709677
2.3528836754643208
2.281524926686217
2.210166177908113
2.1388074291300097
2.080156402737048
2.03128054740958
1.978494623655914
1.9266862170087975
1.8778103616813293
1.8406647116324533
1.8084066471163245
1.7771260997067448
1.7468230694037146
1.7165200391006843
1.6920821114369502
1.6686217008797657
1.64613880742913
1.6265884652981428
1.6099706744868034
1.5943304007820136
1.5786901270772238
1.563049853372434
1.552297165200391
1.542521994134897
1.5298142717497556
1.5141739980449658
1.4936461388074291
1.4701857282502444
1.4467253176930597
1.4242424242424243
1.401759530791789
1.3792766373411536
1.356793743890518
1.3343108504398826
1.3176930596285434
1.303030303030303
1.284457478005865
1.2639296187683284
1.2424242424242424
1.2228739002932552
1.2072336265884651
1.1935483870967742
1.181818181818182
1.1700879765395895
1.160312805474096
1.155425219941349
1.1583577712609971
1.1749755620723363
1.2043010752688172
1.2482893450635386
1.3176930596285434
1.412512218963832
1.5249266862170088
1.651026392961877
1.7849462365591398
1.920821114369501
2.050830889540567
2.1681329423264906
2.271749755620724
2.3519061583577714
2.4144672531769307
2.472140762463343
2.5210166177908118
2.5591397849462365
2.5835777126099706
2.595307917888563
2.598240469208211
2.593352883675464
2.579667644183773
2.558162267839687
2.5288367546432062
2.495601173020528
2.4565004887585533
2.4086021505376345
2.356793743890518
2.2981427174975564
2.2355816226783967
2.172043010752688
2.110459433040078
2.0498533724340176
1.991202346041056
1.9364613880742916
1.884652981427175
1.8377321603128052
1.801564027370479
1.7702834799608993
1.7360703812316716
1.7018572825024438
1.6735092864125125
1.6520039100684265
1.6334310850439884
1.616813294232649
1.6011730205278591
1.585532746823069
1.5708699902248289
1.555229716520039
1.544477028347996
1.5347018572825024
1.52297165200391
1.5112414467253177
1.499511241446725
1.4858260019550342
1.4701857282502444
1.4506353861192571
1.4301075268817205
1.4105571847507332
1.3949169110459434
1.3792766373411536
1.364613880742913
1.356793743890518
1.3528836754643203
1.343108504398827
1.327468230694037
1.3079178885630498
1.2873900293255132
1.2658846529814272
1.2434017595307918
1.2228739002932552
1.209188660801564
1.2023460410557183
1.2023460410557183
1.2121212121212122
1.2336265884652982
1.2746823069403714
1.33822091886608
1.426197458455523
1.5356793743890518
1.6598240469208212
1.790811339198436
1.9237536656891496
2.0518084066471163
2.167155425219941
2.2639296187683287
2.3421309872922778
2.3978494623655915
2.436950146627566
2.4701857282502444
2.495601173020528
2.5141739980449658
2.525904203323558
2.529814271749756
2.5239491691104594
2.50733137829912
2.482893450635386
2.449657869012708
2.4086021505376345
2.367546432062561
2.3225806451612905
2.2668621700879767
2.207233626588465
2.146627565982405
2.0869990224828934
2.027370478983382
1.9687194525904204
1.913978494623656
1.8641251221896384
1.8201368523949168
1.780058651026393
1.7409579667644184
1.7096774193548387
1.689149560117302
1.6705767350928642
1.653958944281525
1.6383186705767352
1.624633431085044
1.6148582600195502
1.606060606060606
1.595307917888563
1.5826001955034212
1.56891495601173
1.552297165200391
1.5386119257087
1.5278592375366569
1.5112414467253177
1.4916911045943304
1.4750733137829912
1.457478005865103
1.4389051808406648
1.4222873900293256
1.404692082111437
1.388074291300098
1.3724340175953078
1.356793743890518
1.3440860215053765
1.3333333333333333
1.324535679374389
1.310850439882698
1.29227761485826
1.2717497556207231
1.252199413489736
1.2355816226783969
1.2228739002932552
1.217008797653959
1.2160312805474096
1.224828934506354
1.249266862170088
1.2883675464320623
1.343108504398827
1.4213098729227762
1.520039100684262
1.635386119257087
1.7605083088954057
1.8905180840664717
2.016617790811339
2.133919843597263
2.241446725317693
2.3362658846529816
2.4173998044965788
2.484848484848485
2.5317693059628543
2.5620723362658846
2.5835777126099706
2.5943304007820136
2.595307917888563
2.5884652981427174
2.573802541544477
2.549364613880743
2.517106549364614
2.4760508308895406
2.429130009775171
2.376344086021505
2.32355816226784
2.270772238514174
2.212121212121212
2.15347018572825
2.093841642228739
2.034213098729228
1.9765395894428155
1.921798631476051
1.8699902248289344
1.823069403714565
1.7810361681329423
1.7429130009775171
1.7126099706744868
1.694037145650049
1.6813294232649072
1.6666666666666667
1.6520039100684265
1.6334310850439884
1.6129032258064515
1.595307917888563
1.5786901270772238
1.5650048875855327
1.552297165200391
1.5386119257087
1.5249266862170088
1.5141739980449658
1.504398826979472
1.4926686217008798
1.478983382209189
1.4643206256109482
1.4516129032258065
1.4379276637341154
1.423264907135875
1.4086021505376345
1.393939393939394
1.3792766373411536
1.364613880742913
1.356793743890518
1.3528836754643203
1.346041055718475
1.332355816226784
1.3147605083088951
1.2961876832844574
1.2805474095796676
1.270772238514174
1.2697947214076246
1.2834799608993157
1.316715542521994
1.3743890518084063
1.4545454545454546
1.543499511241447
1.6490713587487782
1.7849462365591398
1.93841642228739
2.0977517106549364
2.2561094819159337
2.404692082111437
2.5376344086021505
2.6529814271749754
2.748778103616813
2.8211143695014664
2.873900293255132
2.9042033235581624
2.916911045943304
2.920821114369501
2.916911045943304
2.903225806451613
2.8856304985337244
2.863147605083089
2.831867057673509
2.790811339198436
2.7419354838709675
2.6832844574780057
2.6158357771261
2.5464320625610948
2.484848484848485
2.4222873900293256
2.3548387096774195
2.29227761485826
2.233626588465298
2.177908113391984
2.12316715542522
2.071358748778104
2.0234604105571847
1.9765395894428155
1.932551319648094
1.895405669599218
1.868035190615836
1.844574780058651
1.8201368523949168
1.793743890518084
1.76930596285435
1.7487781036168133
1.729227761485826
1.710654936461388
1.6920821114369502
1.6735092864125125
1.6559139784946235
1.6422287390029326
1.635386119257087
1.6344086021505375
1.6363636363636365
1.6373411534701858
1.6334310850439884
1.6217008797653958
1.607038123167155
1.5884652981427174
1.564027370478983
1.533724340175953
1.5073313782991202
1.4897360703812317
1.4760508308895406
1.469208211143695
1.466275659824047
1.4594330400782014
1.4516129032258065
1.4457478005865103
1.447702834799609
1.4613880742913
1.4936461388074291
1.5503421309872922
1.6304985337243405
1.7311827956989247
1.8523949169110456
1.991202346041056
2.124144672531769
2.2531769305962857
2.393939393939394
2.533724340175953
2.6666666666666665
2.78494623655914
2.8826979472140764
2.9579667644183774
3.013685239491691
3.0527859237536656
3.0791788856304985
3.09188660801564
3.09188660801564
3.085043988269794
3.072336265884653
3.050830889540567
3.0195503421309877
2.981427174975562
2.9374389051808407
2.884652981427175
2.820136852394917
2.744868035190616
2.664711632453568
2.58455522971652
2.5034213098729228
2.434017595307918
2.376344086021505
2.320625610948192
2.2658846529814274
2.212121212121212
2.160312805474096
2.114369501466276
2.075268817204301
2.043010752688172
2.01564027370479
1.9951124144672527
1.975562072336266
1.956989247311828
1.93841642228739
1.9159335288367547
1.8914956011730208
1.866080156402737
1.839687194525904
1.8172043010752688
1.801564027370479
1.7888563049853372
1.7761485826001957
1.7634408602150538
1.7497556207233629
1.7341153470185728
1.7194525904203324
1.7008797653958945
1.6764418377321604
1.6500488758553276
1.6217008797653958
1.5933528836754642
1.5679374389051808
1.542521994134897
1.5180840664711632
1.499511241446725
1.4858260019550342
1.474095796676442
1.4682306940371457
1.4682306940371457
1.4701857282502444
1.478005865102639
1.4975562072336266
1.5366568914956011
1.598240469208211
1.6852394916911049
1.8005865102639296
1.943304007820137
2.102639296187683
2.2668621700879767
2.432062561094819
2.570869990224829
2.687194525904203
2.7996089931573804
2.8963831867057674
2.9765395894428157
3.0410557184750733
3.088954056695992
3.1192570869990224
3.136852394916911
3.145650048875855
3.147605083088954
3.144672531769306
3.133919843597263
3.115347018572825
3.0879765395894427
3.0254154447702835
2.9716520039100685
2.909090909090909
2.7996089931573804
2.721407624633431
2.64613880742913
2.5747800586510263
2.50733137829912
2.442815249266862
2.3851417399804498
2.334310850439883
2.286412512218964
2.242424242424242
2.198435972629521
2.155425219941349
2.1163245356793743
2.081133919843597
2.0527859237536656
2.03128054740958
2.016617790811339
2.004887585532747
1.997067448680352
1.9902248289345064
1.9843597262952104
1.9794721407624636
1.970674486803519
1.9550342130987293
1.9335288367546437
1.9090909090909087
1.8836754643206255
1.857282502443793
1.83088954056696
1.8035190615835777
1.7790811339198436
1.7624633431085044
1.7497556207233629
1.7341153470185728
1.7174975562072337
1.699902248289345
1.6823069403714566
1.6627565982404693
1.6392961876832846
1.6138807429130009
1.5894428152492668
1.56891495601173
1.5513196480938416
1.542521994134897
1.5454545454545454
1.5620723362658846
1.6001955034213098
1.6598240469208212
1.7429130009775171
1.8514173998044965
1.9824046920821117
2.1280547409579667
2.3626588465298144
2.5161290322580645
2.6529814271749754
2.8181818181818183
2.918866080156403
3.0117302052785924
3.09188660801564
3.176930596285435
3.2140762463343107
3.236559139784946
3.249266862170088
3.2375366568914954
3.212121212121212
3.176930596285435
3.1163245356793743
3.0684261974584555
3.010752688172043
2.9100684261974585
2.8396871945259043
2.766373411534702
2.6911045943304006
2.544477028347996
2.3626588465298144
2.2404692082111435
2.1524926686217007
2.0879765395894427
2.038123167155425
1.994134897360704
1.9560117302052784
1.921798631476051
1.89247311827957
1.8699902248289344
1.8514173998044965
1.833822091886608
1.8172043010752688
1.7996089931573802
1.782991202346041
1.7663734115347018
1.750733137829912
1.7350928641251222
1.715542521994135
1.694037145650049
1.6715542521994136
1.6480938416422288
1.6265884652981428
1.6080156402737047
1.5884652981427174
1.5708699902248289
1.5581622678396871
1.5464320625610948
1.5386119257087
1.5347018572825024
1.5268817204301075
1.5190615835777126
1.5112414467253177
1.499511241446725
1.4858260019550342
1.4711632453567938
1.455522971652004
1.439882697947214
1.4281524926686218
1.4222873900293256
1.423264907135875
1.434017595307918
1.458455522971652
1.500488758553275
1.560117302052786
1.6412512218963833
1.7429130009775171
1.8621700879765395
1.994134897360704
2.132942326490713
2.270772238514174
2.4027370478983383
2.5239491691104594
2.6177908113391983
2.6881720430107525
2.750733137829912
2.803519061583578
2.843597262952102
2.8699902248289346
2.884652981427175
2.8885630498533725
2.8826979472140764
2.868035190615836
2.8426197458455524
2.8103616813294234
2.771260997067449
2.727272727272727
2.6823069403714563
2.6285434995112413
2.567937438905181
2.506353861192571
2.443792766373412
2.3812316715542523
2.320625610948192
2.2629521016617797
2.2082111436950145
2.155425219941349
2.10752688172043
2.072336265884653
2.042033235581622
2.0117302052785924
1.9824046920821117
1.9579667644183771
1.9364613880742916
1.913978494623656
1.89247311827957
1.873900293255132
1.855327468230694
1.833822091886608
1.81524926686217
1.8005865102639296
1.7888563049853372
1.7790811339198436
1.7683284457478006
1.7595307917888563
1.7487781036168133
1.7341153470185728
1.7145650048875856
1.6930596285434996
1.6705767350928642
1.6480938416422288
1.624633431085044
1.603128054740958
1.5884652981427174
1.576735092864125
1.563049853372434
1.5483870967741935
1.533724340175953
1.5161290322580645
1.4975562072336266
1.4809384164222874
1.4643206256109482
1.4486803519061584
1.436950146627566
1.4349951124144673
1.447702834799609
1.4711632453567938
1.5063538611925709
1.563049853372434
1.6471163245356797
1.75366568914956
1.8748778103616808
2.0087976539589443
2.145650048875855
2.2795698924731185
2.403714565004888
2.5102639296187683
2.5992179863147604
2.6637341153470184
2.7096774193548385
2.747800586510264
2.777126099706745
2.7976539589442817
2.809384164222874
2.811339198435973
2.8025415444770285
2.7869012707722387
2.763440860215054
2.729227761485826
2.687194525904203
2.636363636363636
2.5855327468230693
2.5347018572825024
2.4760508308895406
2.409579667644184
2.3382209188660803
2.267839687194526
2.1974584555229715
2.1309872922776147
2.071358748778104
2.018572825024438
1.9687194525904204
1.921798631476051
1.884652981427175
1.8543499511241448
1.827956989247312
1.8084066471163245
1.7947214076246334
1.7839687194525904
1.7712609970674489
1.7526881720430108
1.732160312805474
1.7057673509286413
1.675464320625611
1.64613880742913
1.619745845552297
1.598240469208211
1.581622678396872
1.5698924731182795
1.565982404692082
1.5679374389051808
1.5728250244379276
1.5796676441837731
1.5865102639296187
1.590420332355816
1.5884652981427174
1.5826001955034212
1.573802541544477
1.565982404692082
1.5581622678396871
1.5464320625610948
1.5327468230694037
1.5180840664711632
1.498533724340176
1.4750733137829912
1.4535679374389052
1.4349951124144673
1.4242424242424243
1.4301075268817205
1.458455522971652
1.512218963831867
1.576735092864125
1.653958944281525
1.758553274682307
1.8836754643206255
2.0205278592375366
2.157380254154448
2.2873900293255134
2.4056695992179864
2.50733137829912
2.595307917888563
2.6695992179863146
2.7262952101661777
2.7624633431085046
2.7859237536656893
2.807429130009776
2.822091886608016
2.827956989247312
2.823069403714565
2.806451612903226
2.7810361681329425
2.7438905180840663
2.6959921798631474
2.6392961876832843
2.573802541544477
2.509286412512219
2.4457478005865103
2.372434017595308
2.29227761485826
2.2111436950146626
2.1358748778103616
2.0664711632453567
2.003910068426197
1.951124144672532
1.9071358748778104
1.8699902248289344
1.8377321603128052
1.8113391984359728
1.7927663734115349
1.775171065493646
1.7546432062561097
1.7350928641251222
1.7174975562072337
1.6989247311827955
1.6793743890518085
1.66177908113392
1.643206256109482
1.6265884652981428
1.611925708699902
1.5962854349951123
1.58455522971652
1.576735092864125
1.56891495601173
1.5591397849462365
1.5464320625610948
1.5327468230694037
1.5180840664711632
1.504398826979472
1.4936461388074291
1.4868035190615836
1.4809384164222874
1.474095796676442
1.4652981427174976
1.456500488758553
1.4486803519061584
1.3655913978494625
1.2453567937438903
1.1759530791788857
1.1348973607038124
1.1143695014662756
1.115347018572825
1.1436950146627567
1.203323558162268
1.2981427174975562
1.423264907135875
1.5503421309872922
1.683284457478006
1.8416422287390029
2.0087976539589443
2.174975562072336
2.3362658846529816
2.486803519061584
2.618768328445748
2.7311827956989245
2.8240469208211145
2.898338220918866
2.952101661779081
2.983382209188661
2.994134897360704
2.995112414467253
2.9931573802541545
2.9853372434017595
2.9716520039100685
2.95405669599218
2.9286412512218964
2.895405669599218
2.8514173998044967
2.7966764418377323
2.7370478983382207
2.675464320625611
2.616813294232649
2.560117302052786
2.506353861192571
2.4604105571847508
2.4164222873900294
2.36950146627566
2.318670576735093
2.2658846529814274
2.2140762463343107
2.164222873900293
2.1192570869990224
2.080156402737048
2.046920821114369
2.018572825024438
1.9931573802541545
1.9667644183773216
1.9393939393939397
1.9120234604105573
1.884652981427175
1.857282502443793
1.8269794721407624
1.7986314760508308
1.775171065493646
1.7517106549364614
1.7282502443792769
1.7096774193548387
1.6930596285434996
1.6764418377321604
1.653958944281525
1.6265884652981428
1.5992179863147604
1.5718475073313782
1.5464320625610948
1.5249266862170088
1.5073313782991202
1.4916911045943304
1.474095796676442
1.4545454545454546
1.4349951124144673
1.4164222873900294
1.392961876832845
1.3695014662756595
1.35386119257087
1.3548387096774193
1.383186705767351
1.4428152492668622
1.5347018572825024
1.656891495601173
1.8054740957966764
1.9716520039100685
2.1221896383186705
2.257086999022483
2.4027370478983383
2.5513196480938416
2.6930596285435
2.8211143695014664
2.9315738025415445
3.018572825024438
3.086021505376344
3.1309872922776147
3.155425219941349
3.163245356793744
3.155425219941349
3.1358748778103616
3.1094819159335287
3.078201368523949
3.042033235581622
3.004887585532747
2.963831867057673
2.911045943304008
2.844574780058651
2.7702834799608995
2.69208211143695
2.610948191593353
2.5317693059628543
2.4613880742913
2.396871945259042
2.3274682306940373
2.2580645161290325
2.1915933528836757
2.126099706744868
2.065493646138808
2.0117302052785924
1.9618768328445748
1.920821114369501
1.8914956011730208
1.8670576735092863
1.8484848484848484
1.8347996089931573
1.8201368523949168
1.804496578690127
1.7869012707722385
1.76930596285435
1.750733137829912
1.732160312805474
1.7135874877810362
1.6950146627565983
1.6774193548387095
1.6588465298142718
1.640273704789834
1.624633431085044
1.6099706744868034
1.595307917888563
1.5796676441837731
1.5571847507331378
1.5327468230694037
1.5112414467253177
1.490713587487781
1.4672531769305963
1.4418377321603129
1.41544477028348
1.388074291300098
1.3607038123167154
1.3372434017595307
1.321603128054741
1.310850439882698
1.3098729227761483
1.3284457478005864
1.3743890518084063
1.4506353861192571
1.552297165200391
1.6744868035190617
1.812316715542522
1.956989247311828
2.0987292277614857
2.21505376344086
2.317693059628544
2.426197458455523
2.5317693059628543
2.625610948191593
2.704789833822092
2.76930596285435
2.823069403714565
2.866080156402737
2.898338220918866
2.921798631476051
2.935483870967742
2.935483870967742
2.921798631476051
2.8944281524926687
2.850439882697948
2.793743890518084
2.7262952101661777
2.6510263929618767
2.5698924731182795
2.482893450635386
2.3978494623655915
2.3167155425219943
2.236559139784946
2.157380254154448
2.086021505376344
2.0175953079178885
1.9442815249266865
1.870967741935484
1.7976539589442817
1.7282502443792769
1.6686217008797657
1.6207233626588464
1.58455522971652
1.560117302052786
1.547409579667644
1.5464320625610948
1.5503421309872922
1.5542521994134897
1.5542521994134897
1.5493646138807429
1.542521994134897
1.5347018572825024
1.525904203323558
1.5141739980449658
1.4975562072336266
1.4750733137829912
1.4496578690127078
1.423264907135875
1.396871945259042
1.3743890518084063
1.35386119257087
1.3313782991202343
1.3157380254154447
1.305962854349951
1.2991202346041055
1.2903225806451613
1.2766373411534702
1.2609970674486803
1.2434017595307918
1.2258064516129032
1.2121212121212122
1.2082111436950147
1.2082111436950147
1.2150537634408602
1.2394916911045943
1.2834799608993157
1.3519061583577712
1.4437927663734116
1.5581622678396871
1.6979472140762464
1.8563049853372435
2.0205278592375366
2.185728250244379
2.3440860215053765
2.469208211143695
2.56891495601173
2.664711632453568
2.7468230694037143
2.81622678396872
2.873900293255132
2.918866080156403
2.9501466275659824
2.9687194525904204
2.972629521016618
2.960899315738025
2.9345063538611926
2.898338220918866
2.852394916911046
2.7976539589442817
2.73802541544477
2.673509286412512
2.6021505376344085
2.5268817204301075
2.4545454545454546
2.3841642228739004
2.275659824046921
2.15347018572825
2.067448680351906
2.0009775171065494
1.948191593352884
1.905180840664712
1.8641251221896384
1.826001955034213
1.7917888563049853
1.761485826001955
1.7360703812316716
1.715542521994135
1.6979472140762464
1.6813294232649072
1.6656891495601174
1.6500488758553276
1.6363636363636365
1.6236559139784943
1.6099706744868034
1.595307917888563
1.5796676441837731
1.564027370478983
1.5513196480938416
1.541544477028348
1.530791788856305
1.5151515151515151
1.495601173020528
1.4750733137829912
1.456500488758553
1.4437927663734116
1.4330400782013686
1.4222873900293256
1.4086021505376345
1.396871945259042
1.383186705767351
1.364613880742913
1.343108504398827
1.3235581622678396
1.305962854349951
1.2932551319648091
1.2864125122189638
1.2873900293255132
1.295210166177908
1.3147605083088951
1.3509286412512218
1.4076246334310851
1.487781036168133
1.5894428152492668
1.7067448680351909
1.8328445747800584
1.9608993157380252
2.085043988269794
2.19941348973607
2.2981427174975564
2.3734115347018574
2.4281524926686218
2.4731182795698925
2.505376344086021
2.5249266862170088
2.532746823069404
2.5288367546432062
2.515151515151515
2.490713587487781
2.453567937438905
2.406647116324536
2.3499511241446727
2.2932551319648096
2.233626588465298
2.1652003910068425
2.093841642228739
2.021505376344086
1.949169110459433
1.8797653958944285
1.818181818181818
1.7644183773216031
1.7145650048875856
1.6666666666666667
1.6217008797653958
1.5835777126099706
1.5571847507331378
1.5366568914956011
1.5141739980449658
1.4916911045943304
1.469208211143695
1.4457478005865103
1.4242424242424243
1.4086021505376345
1.392961876832845
1.3734115347018572
1.3519061583577712
1.327468230694037
1.305962854349951
1.2854349951124144
1.260019550342131
1.227761485826002
1.1925708699902249
1.1573802541544478
1.1221896383186705
1.0909090909090908
1.0654936461388074
1.0469208211143697
1.0342130987292275
1.024437927663734
1.0175953079178883
1.0175953079178883
1.021505376344086
1.021505376344086
1.0175953079178883
1.0117302052785924
1.002932551319648
0.989247311827957
0.9706744868035192
0.95405669599218
0.9433040078201368
0.9423264907135877
0.9530791788856304
0.975562072336266
1.013685239491691
1.075268817204301
1.1622678396871946
1.2717497556207231
1.3988269794721409
1.5395894428152492
1.6852394916911049
1.827956989247312
1.9608993157380252
2.081133919843597
2.185728250244379
2.2629521016617797
2.318670576735093
2.367546432062561
2.407624633431085
2.4359726295210167
2.449657869012708
2.452590420332356
2.44672531769306
2.4301075268817205
2.4027370478983383
2.363636363636364
2.3167155425219943
2.264907135874878
2.2140762463343107
2.1593352883675463
2.0948191593352883
2.0283479960899315
1.9579667644183771
1.8866080156402736
1.818181818181818
1.7526881720430108
1.689149560117302
1.6285434995112416
1.5777126099706744
1.5386119257087
1.5112414467253177
1.4897360703812317
1.4643206256109482
1.4320625610948192
1.396871945259042
1.359726295210166
1.3235581622678396
1.29227761485826
1.2668621700879763
1.2502443792766371
1.2424242424242424
1.238514173998045
1.2365591397849462
1.2375366568914956
1.2394916911045943
1.2365591397849462
1.227761485826002
1.2150537634408602
1.2013685239491692
1.18475073313783
1.163245356793744
1.13880742913001
1.115347018572825
1.093841642228739
1.0772238514173995
1.0684261974584557
1.064516129032258
1.0586510263929618
1.0518084066471165
1.0439882697947214
1.032258064516129
1.0195503421309873
1.0087976539589445
1.0
0.997067448680352
1.0087976539589445
1.0420332355816226
1.1006842619745845
1.1730205278592376
1.2609970674486803
1.3763440860215057
1.509286412512219
1.6529814271749756
1.7976539589442817
1.9335288367546437
2.0557184750733137
2.157380254154448
2.233626588465298
2.286412512218964
2.320625610948192
2.3382209188660803
2.343108504398827
2.3411534701857284
2.337243401759531
2.329423264907136
2.315738025415445
2.297165200391007
2.274682306940372
2.2453567937438903
2.209188660801564
2.164222873900293
2.1114369501466275
2.0557184750733137
2.006842619745845
1.956989247311828
1.8973607038123168
1.8347996089931573
1.7732160312805474
