ppg
2.544477028347996
2.4819159335288368
2.4134897360703813
2.343108504398827
2.2737047898338223
2.2052785923753664
2.1407624633431084
2.078201368523949
2.018572825024438
1.9589442815249267
1.9071358748778104
1.8563049853372435
1.7986314760508308
1.7380254154447703
1.675464320625611
1.6158357771260996
1.5620723362658846
1.5190615835777126
1.4887585532746823
1.4721407624633431
1.4682306940371457
1.4750733137829912
1.490713587487781
1.5083088954056696
1.5268817204301075
1.547409579667644
1.5669599217986314
1.5826001955034212
1.5943304007820136
1.6001955034213098
1.6001955034213098
1.5943304007820136
1.5835777126099706
1.5679374389051808
1.5483870967741935
1.5317693059628543
1.5151515151515151
1.4946236559139785
1.4721407624633431
1.4486803519061584
1.426197458455523
1.4037145650048877
1.3822091886608017
1.3616813294232648
1.343108504398827
1.3255131964809383
1.3088954056695992
1.2932551319648091
1.2825024437927663
1.2746823069403714
1.2658846529814272
1.2561094819159335
1.2473118279569892
1.2394916911045943
1.2326490713587488
1.227761485826002
1.224828934506354
1.2238514173998043
1.224828934506354
1.227761485826002
1.2316715542521994
1.2375366568914956
1.2443792766373412
1.2570869990224829
1.281524926686217
1.324535679374389
1.392961876832845
1.4926686217008798
1.6236559139784943
1.782991202346041
1.9618768328445748
2.147605083088954
2.3255131964809386
2.4652981427174976
2.572825024437928
2.6666666666666665
2.735092864125122
2.774193548387097
2.7859237536656893
2.773216031280548
2.739980449657869
2.6911045943304006
2.664711632453568
2.6451612903225805
2.5943304007820136
2.535679374389052
2.474095796676442
2.406647116324536
2.3391984359726297
2.2737047898338223
2.209188660801564
2.145650048875855
2.0791788856304985
2.010752688172043
1.9393939393939397
1.869012707722385
1.8025415444770283
1.7429130009775171
1.6989247311827955
1.667644183773216
1.64613880742913
1.6363636363636365
1.640273704789834
1.6559139784946235
1.678396871945259
1.7057673509286413
1.7350928641251222
1.761485826001955
1.782991202346041
1.7986314760508308
1.8074291300097751
1.8103616813294232
1.8064516129032255
1.7976539589442817
1.7839687194525904
1.7663734115347018
1.7458455522971652
1.7223851417399805
1.696969696969697
1.6705767350928642
1.6422287390029326
1.6129032258064515
1.5835777126099706
1.560117302052786
1.5405669599217986
1.5190615835777126
1.498533724340176
1.478983382209189
1.4594330400782014
1.4418377321603129
1.4252199413489737
1.4105571847507332
1.396871945259042
1.3841642228739004
1.3734115347018572
1.367546432062561
1.3626588465298142
1.356793743890518
1.3509286412512218
1.346041055718475
1.3421309872922775
1.3372434017595307
1.332355816226784
1.3294232649071358
1.332355816226784
1.3479960899315735
1.3851417399804498
1.452590420332356
1.5356793743890518
1.6422287390029326
1.7947214076246334
1.9824046920821117
2.187683284457478
2.3949169110459434
2.5855327468230693
2.745845552297165
2.8670576735092865
2.945259042033236
2.9824046920821115
2.9824046920821115
2.956011730205278
2.9100684261974585
2.8455522971652005
2.76930596285435
2.684261974584555
2.593352883675464
2.501466275659824
2.4115347018572826
2.324535679374389
2.242424242424242
2.164222873900293
2.088954056695992
2.022482893450636
1.959921798631476
1.889540566959922
1.812316715542522
1.732160312805474
1.6529814271749756
1.576735092864125
1.509286412512219
1.4535679374389052
1.412512218963832
1.3861192570869991
1.3734115347018572
1.3724340175953078
1.3782991202346042
1.3900293255131966
1.4056695992179864
1.4213098729227762
1.4349951124144673
1.444770283479961
1.4486803519061584
1.4457478005865103
1.436950146627566
1.4213098729227762
1.4007820136852396
1.3743890518084063
1.3499511241446724
1.3264907135874875
1.2971652003910068
1.2658846529814272
1.2336265884652982
1.2013685239491692
1.1700879765395895
1.141739980449658
1.1143695014662756
1.088954056695992
1.064516129032258
1.043010752688172
1.024437927663734
1.0127077223851415
1.0048875855327468
0.9960899315738024
0.9872922776148584
0.9794721407624634
0.9716520039100685
0.9648093841642228
0.9608993157380256
0.9579667644183774
0.956989247311828
0.9579667644183774
0.959921798631476
0.9648093841642228
0.9706744868035192
0.975562072336266
0.9804496578690128
0.989247311827957
1.0087976539589445
1.0469208211143697
1.1133919843597262
1.2150537634408602
1.3548387096774193
1.5317693059628543
1.737047898338221
1.956989247311828
2.1485826001955037
2.314760508308896
2.4780058651026398
2.6158357771261
2.718475073313783
2.7810361681329425
2.8054740957966766
2.7966764418377323
2.760508308895406
2.7038123167155423
2.632453567937439
2.5513196480938416
2.472140762463343
2.3958944281524928
2.313782991202346
2.231671554252199
2.1524926686217007
2.0762463343108504
2.002932551319648
1.9315738025415443
1.8592375366568916
1.7849462365591398
1.7096774193548387
1.6334310850439884
1.5591397849462365
1.498533724340176
1.4496578690127078
1.404692082111437
1.370478983382209
1.3509286412512218
1.3450635386119256
1.3519061583577712
1.3685239491691104
1.3919843597262953
1.4193548387096775
1.4457478005865103
1.4682306940371457
1.4858260019550342
1.4975562072336266
1.5034213098729228
1.5034213098729228
1.4975562072336266
1.4858260019550342
1.4682306940371457
1.4467253176930597
1.4213098729227762
1.393939393939394
1.364613880742913
1.3343108504398826
1.3040078201368523
1.2795698924731185
1.2580645161290325
1.2336265884652982
1.2082111436950147
1.1837732160312806
1.160312805474096
1.13880742913001
1.118279569892473
1.099706744868035
1.0821114369501466
1.0664711632453567
1.0518084066471165
1.043010752688172
1.0371456500488758
1.0303030303030305
1.024437927663734
1.021505376344086
1.0205278592375366
1.0205278592375366
1.021505376344086
1.0224828934506354
1.024437927663734
1.0303030303030305
1.0439882697947214
1.0713587487781036
1.1114369501466277
1.1720430107526882
1.2688172043010753
1.4056695992179864
1.5806451612903225
1.7859237536656891
2.006842619745845
2.2277614858260018
2.43108504398827
2.603128054740958
2.736070381231672
2.8260019550342133
2.870967741935484
2.8807429130009776
2.865102639296188
2.8260019550342133
2.768328445747801
2.6959921798631474
2.613880742913001
2.527859237536657
2.439882697947214
2.3528836754643208
2.2688172043010755
2.188660801564027
2.113391984359726
2.047898338220919
1.9872922776148585
1.920821114369501
1.8543499511241448
1.7869012707722385
1.7165200391006843
1.6471163245356797
1.5826001955034212
1.5278592375366569
1.4848484848484849
1.456500488758553
1.4437927663734116
1.4437927663734116
1.4545454545454546
1.474095796676442
1.500488758553275
1.530791788856305
1.5610948191593352
1.5884652981427174
1.6109481915933528
1.6275659824046922
1.6373411534701858
1.640273704789834
1.6373411534701858
1.6285434995112416
1.6177908113391983
1.6050830889540566
1.5884652981427174
1.56891495601173
1.5464320625610948
1.521994134897361
1.4965786901270772
1.4721407624633431
1.447702834799609
1.4242424242424243
1.401759530791789
1.380254154447703
1.364613880742913
1.3519061583577712
1.3372434017595307
1.321603128054741
1.3069403714565004
1.2942326490713587
1.2834799608993157
1.2746823069403714
1.2668621700879763
1.2619745845552297
1.2590420332355816
1.2580645161290325
1.2590420332355816
1.262952101661779
1.267839687194526
1.273704789833822
1.2805474095796676
1.289345063538612
1.3049853372434017
1.335288367546432
1.388074291300098
1.4711632453567938
1.590420332355816
1.7458455522971652
1.932551319648094
2.1094819159335287
2.27761485826002
2.462365591397849
2.635386119257087
2.780058651026393
2.886608015640274
2.952101661779081
2.978494623655914
2.9696969696969697
2.932551319648094
2.8719452590420333
2.795698924731183
2.717497556207233
2.638318670576735
2.550342130987292
2.4594330400782014
2.3704789833822093
2.2854349951124147
2.2052785923753664
2.129032258064516
2.0557184750733137
1.9853372434017595
1.9149560117302051
1.842619745845552
1.76930596285435
1.7057673509286413
1.6471163245356797
1.5865102639296187
1.5317693059628543
1.487781036168133
1.456500488758553
1.4389051808406648
1.434017595307918
1.4389051808406648
1.4506353861192571
1.4643206256109482
1.478005865102639
1.4897360703812317
1.4975562072336266
1.500488758553275
1.4975562072336266
1.487781036168133
1.4721407624633431
1.4516129032258065
1.426197458455523
1.3949169110459434
1.3607038123167154
1.3255131964809383
1.2883675464320623
1.2512218963831867
1.2209188660801564
1.1945259042033236
1.166177908113392
1.1378299120234605
1.110459433040078
1.0850439882697946
1.0625610948191593
1.0410557184750733
1.0234604105571847
1.007820136852395
0.9941348973607038
0.9824046920821116
0.9765395894428152
0.9736070381231672
0.9687194525904204
0.9638318670576737
0.959921798631476
0.9579667644183774
0.956989247311828
0.9579667644183774
0.959921798631476
0.9628543499511242
0.9657869012707724
0.9696969696969696
0.9765395894428152
0.9882697947214076
1.0087976539589445
1.04594330400782
1.10752688172043
1.2023460410557183
1.332355816226784
1.4975562072336266
1.689149560117302
1.8944281524926687
2.0977517106549364
2.283479960899316
2.4389051808406648
2.547409579667644
2.6158357771261
2.658846529814272
2.6715542521994133
2.6559139784946235
2.6158357771261
2.5562072336265884
2.482893450635386
2.39980449657869
2.312805474095797
2.2248289345063537
2.1378299120234603
2.0557184750733137
1.986314760508309
1.924731182795699
1.8602150537634408
1.7947214076246334
1.7282502443792769
1.6598240469208212
1.590420332355816
1.520039100684262
1.4506353861192571
1.3870967741935485
1.3333333333333333
1.2942326490713587
1.270772238514174
1.2609970674486803
1.2609970674486803
1.2717497556207231
1.2913000977517106
1.3157380254154447
1.3421309872922775
1.367546432062561
1.3900293255131966
1.4076246334310851
1.4193548387096775
1.4242424242424243
1.423264907135875
1.4193548387096775
1.412512218963832
1.3998044965786902
1.3822091886608017
1.3616813294232648
1.33822091886608
1.313782991202346
1.2883675464320623
1.2619745845552297
1.2365591397849462
1.2111436950146628
1.187683284457478
1.1700879765395895
1.155425219941349
1.13880742913001
1.1221896383186705
1.1065493646138806
1.0909090909090908
1.0772238514173995
1.0654936461388074
1.0547409579667644
1.04594330400782
1.0381231671554252
1.032258064516129
1.0273704789833822
1.0263929618768328
1.029325513196481
1.032258064516129
1.035190615835777
1.0391006842619743
1.0439882697947214
1.050830889540567
1.0606060606060606
1.0791788856304985
1.1133919843597262
1.1700879765395895
1.2570869990224829
1.3577712609970674
1.47702834799609
1.6383186705767352
1.827956989247312
2.0303030303030303
2.228739002932551
2.407624633431085
2.555229716520039
2.664711632453568
2.7341153470185726
2.7653958944281527
2.7624633431085046
2.732160312805474
2.687194525904203
2.6295210166177907
2.557184750733138
2.4760508308895406
2.391006842619746
2.304985337243402
2.220918866080156
2.1407624633431084
2.064516129032258
1.992179863147605
1.921798631476051
1.8514173998044965
1.7898338220918866
1.7311827956989247
1.6656891495601174
1.5962854349951123
1.5288367546432062
1.4682306940371457
1.418377321603128
1.3822091886608017
1.3616813294232648
1.3548387096774193
1.3695014662756595
1.396871945259042
1.426197458455523
1.452590420332356
1.47702834799609
1.5024437927663734
1.5249266862170088
1.543499511241447
1.5562072336265884
1.563049853372434
1.564027370478983
1.5581622678396871
1.5483870967741935
1.533724340175953
1.5161290322580645
1.500488758553275
1.4848484848484849
1.466275659824047
1.444770283479961
1.423264907135875
1.401759530791789
1.3812316715542523
1.3616813294232648
1.3421309872922775
1.324535679374389
1.3088954056695992
1.2942326490713587
1.2834799608993157
1.2766373411534702
1.2688172043010753
1.2609970674486803
1.2551319648093842
1.2502443792766371
1.2473118279569892
1.24633431085044
1.2473118279569892
1.2512218963831867
1.2561094819159335
1.262952101661779
1.2717497556207231
1.2825024437927663
1.2932551319648091
1.3049853372434017
1.3206256109481915
1.346041055718475
1.3900293255131966
1.4604105571847508
1.564027370478983
1.7028347996089932
1.8729227761485825
2.065493646138808
2.267839687194526
2.439882697947214
2.5855327468230693
2.7253176930596283
2.8406647116324537
2.921798631476051
2.9667644183773216
2.978494623655914
2.959921798631476
2.918866080156403
2.8611925708699903
2.792766373411535
2.7155425219941347
2.636363636363636
2.5640273704789838
2.496578690127077
2.4281524926686218
2.361681329423265
2.297165200391007
2.2346041055718477
2.1730205278592374
2.110459433040078
2.0439882697947214
1.9745845552297163
1.9042033235581624
1.835777126099707
1.7781036168132942
1.7311827956989247
1.6881720430107527
1.6549364613880744
1.6344086021505375
1.6256109481915937
1.6285434995112416
1.6383186705767352
1.6529814271749756
1.6695992179863148
1.6852394916911049
1.696969696969697
1.704789833822092
1.7086999022482894
1.7067448680351909
1.699902248289345
1.6881720430107527
1.6715542521994136
1.6500488758553276
1.624633431085044
1.5972629521016617
1.5669599217986314
1.5366568914956011
1.5063538611925709
1.47702834799609
1.4545454545454546
1.4349951124144673
1.4115347018572826
1.388074291300098
1.364613880742913
1.3421309872922775
1.3206256109481915
1.2991202346041055
1.2795698924731185
1.262952101661779
1.2482893450635386
1.2355816226783969
1.2228739002932552
1.2150537634408602
1.209188660801564
1.2023460410557183
1.195503421309873
1.1886608015640274
1.1827956989247312
1.1779081133919844
1.173998044965787
1.1700879765395895
1.1671554252199414
1.1681329423264908
1.1788856304985338
1.1994134897360704
1.2355816226783969
1.3010752688172045
1.4007820136852396
1.5347018572825024
1.699902248289345
1.8875855327468232
2.083088954056696
2.270772238514174
2.436950146627566
2.5718475073313782
2.668621700879765
2.7282502443792764
2.7517106549364616
2.7468230694037143
2.719452590420332
2.6725317693059627
2.6099706744868034
2.535679374389052
2.4545454545454546
2.3704789833822093
2.2873900293255134
2.207233626588465
2.131964809384164
2.06158357771261
2.0019550342130987
1.9472140762463344
1.8885630498533723
1.8269794721407624
1.7624633431085044
1.6959921798631477
1.6285434995112416
1.563049853372434
1.504398826979472
1.455522971652004
1.4193548387096775
1.3958944281524928
1.3870967741935485
1.388074291300098
1.3978494623655917
1.41544477028348
1.436950146627566
1.4604105571847508
1.4819159335288368
1.499511241446725
1.512218963831867
1.5190615835777126
1.520039100684262
1.5141739980449658
1.5034213098729228
1.4916911045943304
1.478005865102639
1.458455522971652
1.435972629521017
1.4115347018572826
1.3861192570869991
1.359726295210166
1.3343108504398826
1.3088954056695992
1.2854349951124144
1.2639296187683284
1.2434017595307918
1.2258064516129032
1.2130987292277615
1.2043010752688172
1.1945259042033236
1.1837732160312806
1.1730205278592376
1.164222873900293
1.1573802541544478
1.1515151515151516
1.1466275659824048
1.142717497556207
1.1407624633431086
1.1397849462365592
1.142717497556207
1.1485826001955035
1.1534701857282503
1.1573802541544478
1.1612903225806452
1.166177908113392
1.173998044965787
1.1906158357771262
1.2218963831867058
1.2776148582600195
1.364613880742913
1.487781036168133
1.64613880742913
1.8054740957966764
1.967741935483871
2.156402737047898
2.347018572825025
2.5219941348973607
2.6666666666666665
2.773216031280548
2.8396871945259043
2.8699902248289346
2.8670576735092865
2.8377321603128056
2.787878787878788
2.729227761485826
2.664711632453568
2.589442815249267
2.509286412512219
2.4271749755620724
2.347996089931574
2.2737047898338223
2.201368523949169
2.131964809384164
2.064516129032258
1.997067448680352
1.927663734115347
1.8563049853372435
1.793743890518084
1.7360703812316716
1.675464320625611
1.6177908113391983
1.5698924731182795
1.533724340175953
1.5102639296187683
1.500488758553275
1.504398826979472
1.5190615835777126
1.5405669599217986
1.565982404692082
1.5894428152492668
1.6099706744868034
1.6285434995112416
1.6422287390029326
1.6226783968719452
1.5835777126099706
1.5562072336265884
1.5317693059628543
1.5073313782991202
1.4819159335288368
1.4545454545454546
1.4252199413489737
1.4007820136852396
1.3782991202346042
1.35386119257087
1.327468230694037
1.3020527859237536
1.2776148582600195
1.2551319648093842
1.2346041055718475
1.2160312805474096
1.198435972629521
1.1827956989247312
1.1691104594330402
1.1564027370478984
1.1485826001955035
1.1436950146627567
1.1378299120234605
1.1329423264907137
1.1290322580645162
1.126099706744868
1.1241446725317692
1.1241446725317692
1.126099706744868
1.1290322580645162
1.1329423264907137
1.1378299120234605
1.144672531769306
1.1544477028347997
1.1681329423264908
1.1945259042033236
1.241446725317693
1.3176930596285434
1.4301075268817205
1.5835777126099706
1.7732160312805474
1.9902248289345064
2.218963831867057
2.4408602150537635
2.641251221896383
2.790811339198436
2.8963831867057674
2.978494623655914
3.027370478983382
3.0439882697947214
3.03128054740958
2.9931573802541545
2.935483870967742
2.8641251221896384
2.78494623655914
2.7008797653958942
2.6148582600195502
2.5376344086021505
2.466275659824047
2.393939393939394
2.32355816226784
2.254154447702835
2.185728250244379
2.1163245356793743
2.04594330400782
1.9736070381231672
1.9012707722385145
1.8318670576735088
1.7683284457478006
1.715542521994135
1.678396871945259
1.6559139784946235
1.6451612903225807
1.64613880742913
1.6578690127077225
1.6774193548387095
1.7018572825024438
1.7272727272727273
1.7517106549364614
1.7712609970674489
1.7849462365591398
1.7917888563049853
1.7917888563049853
1.7859237536656891
1.7732160312805474
1.7546432062561097
1.729227761485826
1.699902248289345
1.6666666666666667
1.632453567937439
1.5972629521016617
1.5620723362658846
1.5268817204301075
1.4926686217008798
1.4594330400782014
1.4330400782013686
1.409579667644184
1.383186705767351
1.3577712609970674
1.3343108504398826
1.3128054740957966
1.2942326490713587
1.2776148582600195
1.2619745845552297
1.249266862170088
2.9012707722385143
2.898338220918866
2.8699902248289346
2.8211143695014664
2.7536656891495603
2.6715542521994133
2.581622678396872
2.487781036168133
2.393939393939394
2.303030303030303
2.217986314760508
2.1378299120234603
2.0625610948191597
1.991202346041056
1.921798631476051
1.8602150537634408
1.801564027370479
1.7331378299120237
1.6588465298142718
1.5826001955034212
1.509286412512219
1.4437927663734116
1.3900293255131966
1.3499511241446724
1.3264907135874875
1.3176930596285434
1.3206256109481915
1.3313782991202343
1.3470185728250244
1.3665689149560116
1.3870967741935485
1.4056695992179864
1.4193548387096775
1.426197458455523
1.426197458455523
1.4213098729227762
1.4086021505376345
1.3900293255131966
1.3655913978494625
1.3372434017595307
1.3118279569892473
1.2883675464320623
1.2590420332355816
1.227761485826002
1.1974584555229717
1.1671554252199414
1.13880742913001
1.1114369501466277
1.0869990224828934
1.0635386119257086
1.043010752688172
1.0234604105571847
1.010752688172043
1.0009775171065494
0.9902248289345064
0.9794721407624634
0.9706744868035192
0.9638318670576737
0.9589442815249268
0.95405669599218
0.9511241446725318
0.9491691104594332
0.9491691104594332
0.9511241446725318
0.9550342130987292
0.9608993157380256
0.967741935483871
0.9736070381231672
0.9804496578690128
0.9951124144672532
1.024437927663734
1.0772238514173995
1.1622678396871946
1.2854349951124144
1.4486803519061584
1.6471163245356797
1.8699902248289344
2.071358748778104
2.2531769305962857
2.441837732160313
2.610948191593353
2.744868035190616
2.8367546432062563
2.8856304985337244
2.895405669599218
2.8719452590420333
2.823069403714565
2.755620723362659
2.674486803519061
2.593352883675464
2.5131964809384164
2.426197458455523
2.3391984359726297
2.2551319648093844
2.174975562072336
2.0987292277614857
2.0254154447702835
1.9521016617790807
1.8778103616813293
1.8005865102639296
1.7204301075268815
1.640273704789834
1.5718475073313782
1.5131964809384164
1.456500488758553
1.409579667644184
1.3773216031280548
1.3616813294232648
1.3607038123167154
1.3724340175953078
1.393939393939394
1.4203323558162269
1.447702834799609
1.4731182795698925
1.4926686217008798
1.5063538611925709
1.5141739980449658
1.5151515151515151
1.509286412512219
1.4965786901270772
1.478005865102639
1.455522971652004
1.4291300097751711
1.3998044965786902
1.367546432062561
1.3421309872922775
1.321603128054741
1.3010752688172045
1.281524926686217
1.2570869990224829
1.2316715542521994
1.2072336265884651
1.1837732160312806
1.1622678396871946
1.141739980449658
1.1241446725317692
1.10752688172043
1.0928641251221896
1.0811339198435972
1.0742913000977516
1.0713587487781036
1.067448680351906
1.064516129032258
1.06158357771261
1.0596285434995112
1.0596285434995112
1.0606060606060606
1.0635386119257086
1.067448680351906
1.0713587487781036
1.0791788856304985
1.0948191593352885
1.1192570869990224
1.1583577712609971
1.224828934506354
1.3264907135874875
1.4672531769305963
1.6451612903225807
1.8514173998044965
2.072336265884653
2.291300097751711
2.49266862170088
2.66177908113392
2.791788856304985
2.8729227761485827
2.913000977517106
2.9266862170087977
2.913978494623656
2.87683284457478
2.8211143695014664
2.7517106549364616
2.6725317693059627
2.589442815249267
2.504398826979472
2.421309872922776
2.3421309872922778
2.267839687194526
2.203323558162268
2.144672531769306
2.0840664711632453
2.021505376344086
1.9550342130987293
1.8856304985337244
1.81524926686217
1.7458455522971652
1.6823069403714566
1.6275659824046922
1.585532746823069
1.5581622678396871
1.544477028347996
1.543499511241447
1.5532746823069403
1.573802541544477
1.6001955034213098
1.629521016617791
1.6578690127077225
1.683284457478006
1.7028347996089932
1.715542521994135
1.7204301075268815
1.718475073313783
1.710654936461388
1.6989247311827955
1.683284457478006
1.66177908113392
1.6363636363636365
1.6080156402737047
1.5786901270772238
1.5483870967741935
1.5180840664711632
1.4897360703812317
1.4623655913978495
1.436950146627566
1.412512218963832
1.393939393939394
1.3792766373411536
1.3636363636363635
1.3479960899315735
1.3343108504398826
1.3225806451612905
1.3118279569892473
1.3010752688172045
1.29227761485826
2.9716520039100685
2.941348973607038
2.886608015640274
2.8132942326490715
2.7370478983382207
2.6578690127077222
2.5698924731182795
2.4789833822091887
2.389051808406647
2.304007820136853
2.2238514173998043
2.1495601173020527
2.0791788856304985
2.010752688172043
1.9403714565004888
1.866080156402737
1.7996089931573802
1.7360703812316716
1.664711632453568
1.5933528836754642
1.525904203323558
1.469208211143695
1.426197458455523
1.396871945259042
1.3822091886608017
1.3812316715542523
1.3900293255131966
1.404692082111437
1.4213098729227762
1.435972629521017
1.447702834799609
1.455522971652004
1.457478005865103
1.4545454545454546
1.444770283479961
1.4271749755620724
1.404692082111437
1.3763440860215057
1.343108504398827
1.305962854349951
1.267839687194526
1.2365591397849462
1.2082111436950147
1.1759530791788857
1.1436950146627567
1.1114369501466277
1.0811339198435972
1.0527859237536656
1.0273704789833822
1.0039100684261977
0.9833822091886608
0.9657869012707724
0.9521016617790812
0.9403714565004888
0.9345063538611924
0.9325513196480938
0.9286412512218964
0.9247311827956988
0.919843597262952
0.916911045943304
0.9149560117302052
0.913978494623656
0.9149560117302052
0.9159335288367546
0.916911045943304
0.9188660801564028
0.9247311827956988
0.9335288367546432
0.946236559139785
0.9706744868035192
1.0166177908113392
