ppg
1.078201368523949
1.0772238514173995
1.075268817204301
1.0733137829912025
1.0713587487781036
1.0684261974584557
1.0635386119257086
1.0586510263929618
1.0527859237536656
1.0469208211143697
1.0410557184750733
1.035190615835777
1.029325513196481
1.0273704789833822
1.0273704789833822
1.029325513196481
1.0391006842619743
1.06158357771261
1.1006842619745845
1.1612903225806452
1.24633431085044
1.3548387096774193
1.4838709677419355
1.6275659824046922
1.780058651026393
1.9130009775171064
2.0332355816226784
2.161290322580645
2.283479960899316
2.3919843597262958
2.4760508308895406
2.539589442815249
2.591397849462365
2.63049853372434
2.6559139784946235
2.668621700879765
2.6695992179863146
2.6578690127077222
2.635386119257087
2.6021505376344085
2.557184750733138
2.5024437927663734
2.4379276637341154
2.366568914956012
2.291300097751711
2.2170087976539588
2.145650048875855
2.0762463343108504
2.013685239491691
1.959921798631476
1.916911045943304
1.8836754643206255
1.8563049853372435
1.835777126099707
1.8201368523949168
1.8074291300097751
1.7976539589442817
1.7878787878787878
1.7771260997067448
1.7644183773216031
1.7487781036168133
1.7331378299120237
1.715542521994135
1.699902248289345
1.6852394916911049
1.667644183773216
1.6471163245356797
1.6236559139784943
1.598240469208211
1.5718475073313782
1.543499511241447
1.5161290322580645
1.4897360703812317
1.4652981427174976
1.4418377321603129
1.423264907135875
1.4086021505376345
1.3919843597262953
1.3743890518084063
1.3548387096774193
1.335288367546432
1.3157380254154447
1.2971652003910068
1.2805474095796676
1.2649071358748778
1.2512218963831867
1.241446725317693
1.2336265884652982
1.2297165200391007
1.2297165200391007
1.2287390029325511
1.227761485826002
1.2258064516129032
1.2228739002932552
1.2179863147605083
1.2140762463343109
1.2111436950146628
1.206256109481916
1.2023460410557183
1.1994134897360704
1.1974584555229717
1.1964809384164223
1.1935483870967742
1.1896383186705768
1.18475073313783
1.1788856304985338
1.1730205278592376
1.1681329423264908
1.1671554252199414
1.1749755620723363
1.1964809384164223
1.2355816226783969
1.2981427174975562
1.3714565004887584
1.458455522971652
1.5747800586510263
1.7145650048875856
1.869012707722385
2.029325513196481
2.188660801564027
2.340175953079179
2.4789833822091887
2.601173020527859
2.704789833822092
2.790811339198436
2.850439882697948
2.8905180840664717
2.9266862170087977
2.95405669599218
2.972629521016618
2.9804496578690127
2.9765395894428157
2.959921798631476
2.929618768328446
2.886608015640274
2.832844574780059
2.768328445747801
2.702834799608993
2.635386119257087
2.560117302052786
2.4819159335288368
2.4056695992179864
2.3313782991202348
2.2629521016617797
2.2023460410557183
2.150537634408602
2.1055718475073317
2.067448680351906
2.0361681329423265
2.0097751710654936
1.9872922776148585
1.9687194525904204
1.951124144672532
1.932551319648094
1.9120234604105573
1.8905180840664717
1.868035190615836
1.8435972629521016
1.818181818181818
1.793743890518084
1.7683284457478006
1.7409579667644184
1.715542521994135
1.6911045943304008
1.6637341153470186
1.6334310850439884
1.6021505376344083
1.5718475073313782
1.543499511241447
1.5161290322580645
1.4897360703812317
1.4633431085043989
1.4379276637341154
1.4134897360703813
1.3900293255131966
1.3714565004887584
1.3558162267839686
1.3401759530791788
1.3255131964809383
1.310850439882698
1.2961876832844574
1.2825024437927663
1.2697947214076246
1.260019550342131
1.2502443792766371
1.2404692082111437
1.2326490713587488
1.2287390029325511
1.2267839687194526
1.2228739002932552
1.2179863147605083
1.2130987292277615
1.2072336265884651
1.2013685239491692
1.195503421309873
1.187683284457478
1.1788856304985338
1.1691104594330402
1.1583577712609971
1.1495601173020529
1.1436950146627567
1.1407624633431086
1.13880742913001
1.1407624633431086
1.1544477028347997
1.1837732160312806
1.2336265884652982
1.3079178885630498
1.4076246334310851
1.5298142717497556
1.6686217008797657
1.818181818181818
1.951124144672532
2.072336265884653
2.201368523949169
2.324535679374389
2.436950146627566
2.5347018572825024
2.616813294232649
2.6832844574780057
2.735092864125122
2.773216031280548
2.7966764418377323
2.807429130009776
2.8044965786901277
2.788856304985337
2.7624633431085046
2.7262952101661777
2.679374389051808
2.622678396871945
2.558162267839687
2.484848484848485
2.4056695992179864
2.3255131964809386
2.24633431085044
2.1700879765395893
2.1006842619745845
2.0439882697947214
1.9980449657869013
1.9550342130987293
1.9178885630498532
1.8866080156402736
1.8621700879765395
1.8416422287390029
1.822091886608016
1.8035190615835777
1.7849462365591398
1.7663734115347018
1.7468230694037146
1.726295210166178
1.7067448680351909
1.6881720430107527
1.6656891495601174
1.6412512218963833
1.6148582600195502
1.585532746823069
1.5532746823069403
1.520039100684262
1.4858260019550342
1.4506353861192571
1.41544477028348
1.3812316715542523
1.35386119257087
1.3313782991202343
1.305962854349951
1.2805474095796676
1.2561094819159335
1.2326490713587488
1.2111436950146628
1.1925708699902249
1.173998044965787
1.1573802541544478
1.141739980449658
1.126099706744868
1.1114369501466277
1.1006842619745845
1.0928641251221896
1.083088954056696
1.075268817204301
1.0684261974584557
1.0635386119257086
1.0596285434995112
1.0576735092864125
1.0557184750733135
1.0527859237536656
1.0478983382209188
1.032258064516129
1.0156402737047898
1.007820136852395
1.0009775171065494
0.9951124144672532
0.9902248289345064
0.9853372434017597
0.9794721407624634
0.9745845552297164
0.9716520039100685
0.9775171065493646
0.997067448680352
1.035190615835777
1.0957966764418376
1.1681329423264908
1.2561094819159335
1.3743890518084063
1.5141739980449658
1.6666666666666667
1.8240469208211143
1.9794721407624636
2.124144672531769
2.254154447702835
2.367546432062561
2.462365591397849
2.539589442815249
2.593352883675464
2.627565982404692
2.653958944281525
2.6695992179863146
2.673509286412512
2.665689149560117
2.6451612903225805
2.613880742913001
2.570869990224829
2.5161290322580645
2.452590420332356
2.383186705767351
2.310850439882698
2.244379276637341
2.182795698924731
2.118279569892473
2.0547409579667644
1.9960899315738023
1.945259042033236
1.9012707722385145
1.865102639296188
1.836754643206256
1.8142717497556209
1.7956989247311828
1.780058651026393
1.7673509286412512
1.7565982404692082
1.7458455522971652
1.7341153470185728
1.721407624633431
1.70772238514174
1.6901270772238517
1.6705767350928642
1.6490713587487782
1.624633431085044
1.5992179863147604
1.5728250244379276
1.5493646138807429
1.5268817204301075
1.499511241446725
1.4711632453567938
1.4428152492668622
1.4164222873900294
1.391006842619746
1.3665689149560116
1.343108504398827
1.3196480938416422
1.2991202346041055
1.2795698924731185
1.2619745845552297
1.249266862170088
1.2394916911045943
1.227761485826002
1.2160312805474096
1.2043010752688172
1.1945259042033236
1.18475073313783
1.1759530791788857
1.1681329423264908
1.1612903225806452
1.155425219941349
1.1515151515151516
1.1515151515151516
1.152492668621701
1.1515151515151516
1.1485826001955035
1.1436950146627567
1.13880742913001
1.1329423264907137
1.1270772238514175
1.121212121212121
1.115347018572825
1.110459433040078
1.1065493646138806
1.1036168132942326
1.1055718475073313
1.1133919843597262
1.1319648093841643
1.1681329423264908
1.2267839687194526
1.310850439882698
1.4222873900293256
1.555229716520039
1.704789833822092
1.866080156402737
2.0332355816226784
2.196480938416422
2.329423264907136
2.4408602150537635
2.5532746823069403
2.656891495601173
2.745845552297165
2.820136852394917
2.881720430107527
2.930596285434995
2.9667644183773216
2.9902248289345064
3.0009775171065494
2.997067448680352
2.9775171065493646
2.945259042033236
2.903225806451613
2.8484848484848486
2.782991202346041
2.7096774193548385
2.63049853372434
2.548387096774193
2.4672531769305963
2.388074291300098
2.312805474095797
2.243401759530792
2.1818181818181817
2.131964809384164
2.089931573802541
2.0527859237536656
2.022482893450636
1.9980449657869013
1.9775171065493649
1.9589442815249267
1.93841642228739
1.9178885630498532
1.895405669599218
1.8729227761485825
1.8484848484848484
1.823069403714565
1.7996089931573802
1.7781036168132942
1.75366568914956
1.7253176930596286
1.694037145650049
1.66177908113392
1.629521016617791
1.598240469208211
1.5669599217986314
1.5347018572825024
1.5024437927663734
1.4721407624633431
1.4467253176930597
1.4252199413489737
1.401759530791789
1.3782991202346042
1.3577712609970674
1.33822091886608
1.3186705767350928
1.300097751710655
1.2825024437927663
1.2649071358748778
1.2482893450635386
1.2326490713587488
1.2179863147605083
1.2082111436950147
1.203323558162268
1.1964809384164223
1.1886608015640274
1.181818181818182
1.1749755620723363
1.1691104594330402
1.163245356793744
1.1573802541544478
1.1495601173020529
1.141739980449658
1.133919843597263
1.1280547409579669
1.1251221896383188
1.1192570869990224
1.110459433040078
1.1016617790811338
1.0928641251221896
1.0869990224828934
1.0869990224828934
1.0957966764418376
1.118279569892473
1.1612903225806452
1.2287390029325511
1.3206256109481915
1.4193548387096775
1.5288367546432062
1.664711632453568
1.8162267839687196
1.9726295210166176
2.1270772238514173
2.272727272727273
2.404692082111437
2.520039100684262
2.6177908113391983
2.699902248289345
2.7653958944281527
2.807429130009776
2.832844574780059
2.852394916911046
2.86217008797654
2.860215053763441
2.8455522971652005
2.8181818181818183
2.7781036168132944
2.7262952101661777
2.664711632453568
2.595307917888563
2.5180840664711632
2.4359726295210167
2.360703812316716
2.290322580645161
2.217986314760508
2.147605083088954
2.083088954056696
2.0254154447702835
1.975562072336266
1.9335288367546437
1.8983382209188664
1.8699902248289344
1.847507331378299
1.828934506353861
1.8132942326490715
1.7986314760508308
1.7820136852394917
1.7624633431085044
1.739980449657869
1.715542521994135
1.689149560117302
1.66177908113392
1.632453567937439
1.603128054740958
1.5718475073313782
1.5386119257087
1.504398826979472
1.47702834799609
1.4516129032258065
1.4242424242424243
1.3949169110459434
1.3655913978494625
1.343108504398827
1.3235581622678396
1.3010752688172045
1.2766373411534702
1.2541544477028348
1.2336265884652982
1.2150537634408602
1.2013685239491692
1.1906158357771262
1.1759530791788857
1.160312805474096
1.144672531769306
1.1290322580645162
1.115347018572825
1.1026392961876832
1.0928641251221896
1.083088954056696
1.0742913000977516
1.0664711632453567
1.0596285434995112
1.0557184750733135
1.0527859237536656
1.0478983382209188
1.043010752688172
1.0371456500488758
1.0312805474095796
1.0263929618768328
1.0205278592375366
1.0146627565982405
1.0087976539589445
1.002932551319648
0.9990224828934506
1.0
1.007820136852395
1.0234604105571847
1.0547409579667644
1.1065493646138806
1.1827956989247312
1.2825024437927663
1.404692082111437
1.544477028347996
1.694037145650049
1.847507331378299
1.997067448680352
2.120234604105572
2.2248289345063537
2.3284457478005867
2.421309872922776
2.5004887585532747
2.5640273704789838
2.6129032258064515
2.6471163245356792
2.6666666666666665
2.673509286412512
2.668621700879765
2.6510263929618767
2.619745845552297
2.5806451612903225
2.532746823069404
2.4731182795698925
2.403714565004888
2.3274682306940373
2.247311827956989
2.1681329423264906
2.093841642228739
2.026392961876833
1.9667644183773216
1.9159335288367547
1.8748778103616808
1.842619745845552
1.818181818181818
1.7976539589442817
1.7810361681329423
1.7683284457478006
1.7575757575757576
1.7458455522971652
1.7331378299120237
1.718475073313783
1.7008797653958945
1.6823069403714566
1.6637341153470186
1.643206256109482
1.624633431085044
1.607038123167155
1.585532746823069
1.5610948191593352
1.5347018572825024
1.5073313782991202
1.4809384164222874
1.4535679374389052
1.4271749755620724
1.4027370478983383
1.3792766373411536
1.3558162267839686
1.3362658846529814
1.3206256109481915
1.3020527859237536
1.2834799608993157
1.2649071358748778
1.2473118279569892
1.2316715542521994
1.2179863147605083
1.206256109481916
1.1945259042033236
1.1857282502443791
1.1779081133919844
1.1720430107526882
1.1700879765395895
1.1691104594330402
1.1671554252199414
1.164222873900293
1.1612903225806452
1.1583577712609971
1.155425219941349
1.152492668621701
1.1485826001955035
1.1436950146627567
1.13880742913001
1.1348973607038124
1.133919843597263
1.133919843597263
1.130987292277615
1.1290322580645162
1.1300097751710656
1.1348973607038124
1.1485826001955035
1.1749755620723363
1.2218963831867058
1.29227761485826
1.388074291300098
1.5083088954056696
1.6500488758553276
1.7839687194525904
1.9149560117302051
2.0635386119257086
2.2160312805474094
2.360703812316716
2.493646138807429
2.6099706744868034
2.7096774193548385
2.791788856304985
2.8582600195503423
2.9100684261974585
2.949169110459433
2.9696969696969697
2.9775171065493646
2.979472140762464
2.972629521016618
2.9530791788856305
2.920821114369501
2.875855327468231
2.819159335288368
2.7536656891495603
2.6803519061583576
2.6021505376344085
2.5219941348973607
2.441837732160313
2.3714565004887587
2.3088954056695994
2.24633431085044
2.190615835777126
2.142717497556207
2.1006842619745845
2.0664711632453567
2.038123167155425
2.013685239491691
1.992179863147605
1.970674486803519
1.951124144672532
1.932551319648094
1.913978494623656
1.8934506353861196
1.870967741935484
1.8465298142717497
1.822091886608016
1.796676441837732
1.7702834799608993
1.7409579667644184
1.7096774193548387
1.678396871945259
1.64613880742913
1.6138807429130009
1.5865102639296187
1.560117302052786
1.530791788856305
1.501466275659824
1.474095796676442
1.4467253176930597
1.4213098729227762
1.3998044965786902
1.380254154447703
1.3616813294232648
1.343108504398827
1.324535679374389
1.310850439882698
1.300097751710655
1.2873900293255132
1.2746823069403714
1.2619745845552297
1.2482893450635386
1.2365591397849462
1.227761485826002
1.2209188660801564
1.2140762463343109
1.2082111436950147
1.2023460410557183
1.1964809384164223
1.1935483870967742
1.1925708699902249
1.1886608015640274
1.1827956989247312
1.1749755620723363
1.1671554252199414
1.1573802541544478
1.147605083088954
1.1397849462365592
1.1348973607038124
1.1358748778103618
1.1456500488758554
1.166177908113392
1.2023460410557183
1.2639296187683284
1.3509286412512218
1.4613880742913
1.5943304007820136
1.7409579667644184
1.8944281524926687
2.048875855327468
2.198435972629521
2.3362658846529816
2.4594330400782014
2.565982404692082
2.643206256109482
2.699902248289345
2.7536656891495603
2.7966764418377323
2.8269794721407626
2.84652981427175
2.855327468230694
2.8514173998044967
2.835777126099707
2.809384164222874
2.771260997067449
2.721407624633431
2.6666666666666665
2.606060606060606
2.5347018572825024
2.4574780058651027
2.377321603128055
2.2981427174975564
2.2238514173998043
2.1544477028347995
2.0928641251221896
2.0391006842619745
1.9931573802541545
1.9560117302052784
1.927663734115347
1.906158357771261
1.8856304985337244
1.866080156402737
1.8484848484848484
1.828934506353861
1.8093841642228736
1.790811339198436
1.7712609970674489
1.7497556207233629
1.726295210166178
1.7018572825024438
1.6774193548387095
1.6549364613880744
1.632453567937439
1.606060606060606
1.5786901270772238
1.5493646138807429
1.5190615835777126
1.4897360703812317
1.4604105571847508
1.4320625610948192
1.4066471163245358
1.380254154447703
1.3548387096774193
1.3362658846529814
1.321603128054741
1.3040078201368523
1.2854349951124144
1.2658846529814272
1.2473118279569892
1.2297165200391007
1.2140762463343109
1.2003910068426198
1.1886608015640274
1.176930596285435
1.1652003910068427
1.155425219941349
1.1495601173020529
1.1466275659824048
1.142717497556207
1.13880742913001
1.133919843597263
1.1280547409579669
1.1221896383186705
1.115347018572825
1.10752688172043
1.099706744868035
1.0928641251221896
1.0850439882697946
1.0801564027370478
1.0772238514173995
1.072336265884653
1.0684261974584557
1.0694037145650048
1.0791788856304985
1.1016617790811338
1.1436950146627567
1.209188660801564
1.300097751710655
1.41544477028348
1.5503421309872922
1.699902248289345
1.835777126099707
1.9618768328445748
2.0987292277614857
2.232649071358749
2.356793743890518
2.4652981427174976
2.557184750733138
2.632453567937439
2.6911045943304006
2.735092864125122
2.7653958944281527
2.782013685239492
2.7839687194525906
2.7722385141739982
2.7517106549364616
2.719452590420332
2.674486803519061
2.618768328445748
2.5542521994134897
2.4819159335288368
2.404692082111437
2.326490713587488
2.2482893450635384
2.172043010752688
2.101661779081134
2.0439882697947214
1.9951124144672527
1.9501466275659824
1.9100684261974583
1.8758553274682308
1.847507331378299
1.823069403714565
1.8025415444770283
1.7849462365591398
1.7683284457478006
1.750733137829912
1.7331378299120237
1.7165200391006843
1.699902248289345
1.6813294232649072
1.6598240469208212
1.6363636363636365
1.6109481915933528
1.5835777126099706
1.555229716520039
1.525904203323558
1.495601173020528
1.4643206256109482
1.434017595307918
1.4037145650048877
1.3773216031280548
1.3548387096774193
1.3294232649071358
1.3020527859237536
1.273704789833822
1.24633431085044
1.2209188660801564
1.1974584555229717
1.1749755620723363
1.1564027370478984
1.1397849462365592
1.1251221896383188
1.115347018572825
1.10752688172043
1.096774193548387
1.0850439882697946
1.0742913000977516
1.064516129032258
1.056695992179863
1.0498533724340176
1.0439882697947214
1.0410557184750733
1.0391006842619743
1.0371456500488758
1.0332355816226784
1.032258064516129
1.032258064516129
1.0283479960899315
1.021505376344086
1.0127077223851415
1.0019550342130987
0.9912023460410556
0.981427174975562
0.9736070381231672
0.9687194525904204
0.9726295210166178
0.989247311827957
1.0175953079178883
1.06158357771261
1.1290322580645162
1.2218963831867058
1.335288367546432
1.4672531769305963
1.6099706744868034
1.7556207233626588
1.8973607038123168
2.029325513196481
2.147605083088954
2.2521994134897363
2.3421309872922778
2.407624633431085
2.455522971652004
2.4995112414467253
2.5347018572825024
2.560117302052786
2.573802541544477
2.5747800586510263
2.5620723362658846
2.5347018572825024
2.493646138807429
2.441837732160313
2.3812316715542523
2.320625610948192
2.260019550342131
2.1945259042033234
2.1280547409579667
2.0625610948191597
2.002932551319648
1.9501466275659824
1.9042033235581624
1.8670576735092863
1.836754643206256
1.812316715542522
1.790811339198436
1.7712609970674489
1.7546432062561097
1.7390029325513197
1.7204301075268815
1.6989247311827955
1.675464320625611
1.651026392961877
1.6256109481915937
1.6001955034213098
1.5757575757575757
1.5513196480938416
1.5288367546432062
1.5063538611925709
1.487781036168133
1.4711632453567938
1.4516129032258065
1.43108504398827
1.4115347018572826
1.392961876832845
1.375366568914956
1.3577712609970674
1.3411534701857282
1.3255131964809383
1.310850439882698
1.2961876832844574
1.281524926686217
1.270772238514174
1.2639296187683284
1.2570869990224829
1.249266862170088
1.241446725317693
1.2346041055718475
1.2287390029325511
1.2228739002932552
1.217008797653959
1.2111436950146628
1.206256109481916
1.203323558162268
1.203323558162268
1.2043010752688172
1.203323558162268
1.1994134897360704
1.195503421309873
1.1925708699902249
1.1886608015640274
1.1837732160312806
1.1788856304985338
1.1730205278592376
1.1671554252199414
1.163245356793744
1.163245356793744
1.1671554252199414
1.176930596285435
1.198435972629521
1.2375366568914956
1.2991202346041055
1.3851417399804498
1.4965786901270772
1.6304985337243405
1.7810361681329423
1.9423264907135875
2.1055718475073317
2.2639296187683287
2.3929618768328447
2.4995112414467253
2.6050830889540566
2.701857282502444
2.78494623655914
2.854349951124145
2.9227761485826003
2.986314760508309
3.027370478983382
3.0518084066471163
3.0625610948191597
3.060606060606061
3.0449657869012707
3.016617790811339
2.9775171065493646
2.924731182795699
2.8611925708699903
2.789833822091887
2.7116324535679373
2.631476050830889
2.5513196480938416
2.472140762463343
2.3949169110459434
2.324535679374389
2.260997067448681
2.2082111436950145
2.1652003910068425
2.1270772238514173
2.093841642228739
2.0664711632453567
2.043010752688172
2.022482893450636
2.003910068426197
1.9853372434017595
1.9667644183773216
1.946236559139785
1.9237536656891496
1.902248289345064
1.8807429130009776
1.855327468230694
1.8269794721407624
1.796676441837732
1.7653958944281525
1.7341153470185728
1.7018572825024438
1.6705767350928642
1.640273704789834
1.608993157380254
1.5777126099706744
1.547409579667644
1.52297165200391
1.500488758553275
1.47702834799609
1.4535679374389052
1.43108504398827
1.4105571847507332
1.3919843597262953
1.3743890518084063
1.3577712609970674
1.3421309872922775
1.3284457478005864
1.3157380254154447
1.3069403714565004
1.2991202346041055
1.289345063538612
1.2795698924731185
1.270772238514174
1.2639296187683284
1.2570869990224829
1.2512218963831867
1.2453567937438903
1.2394916911045943
1.2326490713587488
1.224828934506354
1.2160312805474096
1.2101661779081134
1.206256109481916
1.2003910068426198
1.1925708699902249
1.1857282502443791
1.1808406647116323
1.1798631476050832
1.1837732160312806
1.198435972629521
1.227761485826002
1.2776148582600195
1.3519061583577712
1.4349951124144673
1.530791788856305
1.6559139784946235
1.801564027370479
1.956989247311828
2.114369501466276
2.264907135874878
2.403714565004888
2.5268817204301075
2.633431085043988
2.7223851417399803
2.7947214076246336
2.8514173998044967
2.887585532746823
2.9071358748778104
2.919843597262952
2.9227761485826003
2.9149560117302054
2.895405669599218
2.863147605083089
2.819159335288368
2.763440860215054
2.6989247311827955
2.627565982404692
2.5513196480938416
2.479960899315738
2.410557184750733
2.3382209188660803
2.267839687194526
2.201368523949169
2.142717497556207
2.090909090909091
2.046920821114369
2.0097751710654936
1.978494623655914
1.9521016617790807
1.9305962854349952
1.9120234604105573
1.8963831867057677
1.8826979472140764
1.866080156402737
1.847507331378299
1.827956989247312
1.8054740957966764
1.780058651026393
1.7526881720430108
1.7233626588465298
1.6920821114369502
1.66177908113392
1.6314760508308896
1.607038123167155
1.5826001955034212
1.5542521994134897
1.5239491691104594
1.4936461388074291
1.4633431085043989
1.4349951124144673
1.4086021505376345
1.3841642228739004
1.3616813294232648
1.3401759530791788
1.3176930596285434
1.2961876832844574
1.2795698924731185
1.2658846529814272
1.249266862170088
1.2326490713587488
1.2150537634408602
1.1994134897360704
1.1867057673509287
1.1759530791788857
1.166177908113392
1.1564027370478984
1.147605083088954
1.13880742913001
1.133919843597263
1.1300097751710656
1.1241446725317692
1.1163245356793745
1.1085043988269794
1.1006842619745845
1.093841642228739
1.0879765395894427
1.0821114369501466
1.0762463343108504
1.0703812316715542
1.064516129032258
1.0606060606060606
1.06158357771261
1.0713587487781036
1.0899315738025417
1.1241446725317692
1.176930596285435
1.2541544477028348
1.3548387096774193
1.478005865102639
1.6177908113391983
1.7673509286412512
1.919843597262952
2.067448680351906
2.188660801564027
2.289345063538612
2.389051808406647
2.479960899315738
2.5591397849462365
2.624633431085044
2.675464320625611
2.710654936461388
2.7311827956989245
2.7390029325513194
2.732160312805474
2.7116324535679373
2.679374389051808
2.6392961876832843
2.590420332355816
