ppg
2.218963831867057
2.120234604105572
2.022482893450636
1.9266862170087975
1.8318670576735088
1.7390029325513197
1.6598240469208212
1.5894428152492668
1.512218963831867
1.4349951124144673
1.3607038123167154
1.2903225806451613
1.224828934506354
1.166177908113392
1.115347018572825
1.0742913000977516
1.0439882697947214
1.0273704789833822
1.0254154447702837
1.0381231671554252
1.0635386119257086
1.104594330400782
1.1573802541544478
1.219941348973607
1.2873900293255132
1.3558162267839686
1.4222873900293256
1.4819159335288368
1.5327468230694037
1.573802541544477
1.606060606060606
1.6285434995112416
1.6451612903225807
1.656891495601173
1.6637341153470186
1.6656891495601174
1.664711632453568
1.6608015640273706
1.6549364613880744
1.6471163245356797
1.6383186705767352
1.629521016617791
1.619745845552297
1.608993157380254
1.6001955034213098
1.5943304007820136
1.5943304007820136
1.6080156402737047
1.6451612903225807
1.7145650048875856
1.8191593352883677
1.956989247311828
2.120234604105572
2.297165200391007
2.474095796676442
2.636363636363636
2.758553274682307
2.8455522971652005
2.916911045943304
2.963831867057673
2.983382209188661
2.9765395894428157
2.948191593352884
2.9012707722385143
2.8406647116324537
2.768328445747801
2.686217008797654
2.598240469208211
2.50733137829912
2.4242424242424243
2.3440860215053765
2.2551319648093844
2.163245356793744
2.069403714565005
1.9745845552297163
1.8797653958944285
1.7869012707722385
1.6881720430107527
1.5894428152492668
1.501466275659824
1.4203323558162269
1.3548387096774193
1.2991202346041055
1.241446725317693
1.1867057673509287
1.1368523949169111
1.0948191593352885
1.0635386119257086
1.04594330400782
1.0420332355816226
1.0547409579667644
1.083088954056696
1.1251221896383188
1.1798631476050832
1.2355816226783969
1.29227761485826
1.3558162267839686
1.4193548387096775
1.479960899315738
1.533724340175953
1.5786901270772238
1.6158357771260996
1.6451612903225807
1.6666666666666667
1.6803519061583578
1.6871945259042034
1.6901270772238517
1.6901270772238517
1.686217008797654
1.6793743890518085
1.6715542521994136
1.6637341153470186
1.6549364613880744
1.6451612903225807
1.6334310850439884
1.6207233626588464
1.608993157380254
1.606060606060606
1.6177908113391983
1.643206256109482
1.689149560117302
1.76930596285435
1.884652981427175
2.027370478983382
2.187683284457478
2.3519061583577714
2.506353861192571
2.6402737047898337
2.7438905180840663
2.81622678396872
2.857282502443793
2.8690127077223853
2.8563049853372435
2.825024437927664
2.777126099706745
2.7145650048875853
2.641251221896383
2.558162267839687
2.469208211143695
2.376344086021505
2.281524926686217
2.185728250244379
2.088954056695992
2.003910068426197
1.924731182795699
1.8387096774193548
1.7497556207233629
1.6598240469208212
1.5708699902248289
1.482893450635386
1.3978494623655917
1.316715542521994
1.2394916911045943
1.1671554252199414
1.099706744868035
1.0381231671554252
0.9921798631476052
0.9579667644183774
0.9237536656891496
0.895405669599218
0.8768328445747801
0.8719452590420332
0.8807429130009775
0.9051808406647116
0.9452590420332356
1.0
1.0635386119257086
1.1319648093841643
1.1945259042033236
1.2502443792766371
1.3040078201368523
1.3519061583577712
1.391006842619746
1.4203323558162269
1.439882697947214
1.4516129032258065
1.457478005865103
1.4594330400782014
1.457478005865103
1.4545454545454546
1.452590420332356
1.4516129032258065
1.452590420332356
1.4535679374389052
1.4545454545454546
1.4545454545454546
1.4545454545454546
1.4545454545454546
1.457478005865103
1.469208211143695
1.4965786901270772
1.5493646138807429
1.632453567937439
1.726295210166178
1.8377321603128052
1.986314760508309
2.156402737047898
2.3313782991202348
2.4975562072336266
2.6422287390029324
2.758553274682307
2.843597262952102
2.8963831867057674
2.918866080156403
2.9149560117302054
2.889540566959922
2.850439882697948
2.80058651026393
2.73802541544477
2.665689149560117
2.5865102639296187
2.5024437927663734
2.4134897360703813
2.32355816226784
2.231671554252199
2.1407624633431084
2.050830889540567
1.962854349951124
1.8856304985337244
1.8162267839687196
1.7429130009775171
1.667644183773216
1.5933528836754642
1.52297165200391
1.457478005865103
1.3978494623655917
1.3440860215053765
1.2981427174975562
1.260019550342131
1.2297165200391007
1.2101661779081134
1.2023460410557183
1.2052785923753666
1.2189638318670577
1.2434017595307918
1.2805474095796676
1.3284457478005864
1.383186705767351
1.4428152492668622
1.5024437927663734
1.560117302052786
1.611925708699902
1.6559139784946235
1.689149560117302
1.7145650048875856
1.7350928641251222
1.7487781036168133
1.7565982404692082
1.7595307917888563
1.7575757575757576
1.750733137829912
1.7409579667644184
1.729227761485826
1.7165200391006843
1.7038123167155426
1.689149560117302
1.6764418377321604
1.6637341153470186
1.6480938416422288
1.6314760508308896
1.6177908113391983
1.6129032258064515
1.6256109481915937
1.6656891495601174
1.7390029325513197
1.8484848484848484
1.988269794721408
2.1495601173020527
2.294232649071359
2.4252199413489737
2.5620723362658846
2.6832844574780057
2.780058651026393
2.84652981427175
2.881720430107527
2.8885630498533725
2.8719452590420333
2.834799608993157
2.782013685239492
2.716520039100684
2.6422287390029324
2.56891495601173
2.496578690127077
2.4144672531769307
2.326490713587488
2.2346041055718477
2.139784946236559
2.0449657869012707
1.9501466275659824
1.855327468230694
1.761485826001955
1.6705767350928642
1.581622678396872
1.5063538611925709
1.4389051808406648
1.3665689149560116
1.2942326490713587
1.224828934506354
1.1593352883675463
1.099706744868035
1.0478983382209188
1.0058651026392962
0.9745845552297164
0.956989247311828
0.95405669599218
0.9667644183773216
0.9912023460410556
1.0263929618768328
1.075268817204301
1.1358748778103618
1.2023460410557183
1.2727272727272727
1.3411534701857282
1.404692082111437
1.4594330400782014
1.5063538611925709
1.543499511241447
1.5718475073313782
1.5913978494623655
1.6041055718475072
1.6129032258064515
1.616813294232649
1.6177908113391983
1.6148582600195502
1.6099706744868034
1.6041055718475072
1.5972629521016617
1.5894428152492668
1.5806451612903225
1.5708699902248289
1.560117302052786
1.5532746823069403
1.552297165200391
1.590420332355816
1.66177908113392
1.739980449657869
1.8387096774193548
1.964809384164223
2.114369501466276
2.2766373411534704
2.4408602150537635
2.5943304007820136
2.7262952101661777
2.819159335288368
2.878787878787879
2.921798631476051
2.9423264907135875
2.940371456500489
2.916911045943304
2.875855327468231
2.8211143695014664
2.755620723362659
2.681329423264907
2.601173020527859
2.517106549364614
2.4389051808406648
2.364613880742913
2.2825024437927666
2.1974584555229715
2.1114369501466275
2.024437927663734
1.93841642228739
1.8533724340175952
1.76930596285435
1.6871945259042034
1.607038123167155
1.530791788856305
1.458455522971652
1.4007820136852396
1.3519061583577712
1.3010752688172045
1.252199413489736
1.209188660801564
1.1749755620723363
1.1515151515151516
1.141739980449658
1.1456500488758554
1.164222873900293
1.1974584555229717
1.2424242424242424
1.2903225806451613
1.3411534701857282
1.3978494623655917
1.456500488758553
1.5131964809384164
1.563049853372434
1.6050830889540566
1.6383186705767352
1.6627565982404693
1.6774193548387095
1.6852394916911049
1.686217008797654
1.6813294232649072
1.6744868035190617
1.6666666666666667
1.6559139784946235
1.6422287390029326
1.6275659824046922
1.6129032258064515
1.5972629521016617
1.5806451612903225
1.5620723362658846
1.542521994134897
1.5249266862170088
1.5141739980449658
1.5131964809384164
1.5298142717497556
1.5718475073313782
1.64613880742913
1.75366568914956
1.889540566959922
2.0439882697947214
2.204301075268817
2.356793743890518
2.489736070381232
2.595307917888563
2.670576735092864
2.7155425219941347
2.7311827956989245
2.7253176930596283
2.702834799608993
2.6637341153470184
2.611925708699902
2.549364613880743
2.4780058651026398
2.40078201368524
2.3196480938416424
2.236559139784946
2.1524926686217007
2.067448680351906
1.9931573802541545
1.9257086999022484
1.8533724340175952
1.7810361681329423
1.7096774193548387
1.6422287390029326
1.5796676441837731
1.52297165200391
1.4711632453567938
1.4242424242424243
1.383186705767351
1.3479960899315735
1.3176930596285434
1.2981427174975562
1.2873900293255132
1.2825024437927663
1.2854349951124144
1.300097751710655
1.3264907135874875
1.364613880742913
1.412512218963832
1.4672531769305963
1.525904203323558
1.585532746823069
1.6412512218963833
1.6871945259042034
1.7253176930596286
1.7595307917888563
1.7869012707722385
1.8064516129032255
1.818181818181818
1.823069403714565
1.823069403714565
1.8191593352883677
1.812316715542522
1.8035190615835777
1.7947214076246334
1.7859237536656891
1.7781036168132942
1.7712609970674489
1.7624633431085044
1.7517106549364614
1.7390029325513197
1.7253176930596286
1.7145650048875856
1.7126099706744868
1.7282502443792769
1.7683284457478006
1.8406647116324533
1.946236559139785
2.056695992179863
2.176930596285435
2.324535679374389
2.479960899315738
2.625610948191593
2.7517106549364616
2.849462365591398
2.9159335288367547
2.951124144672532
2.9589442815249267
2.943304007820137
2.9071358748778104
2.854349951124145
2.795698924731183
2.7311827956989245
2.6559139784946235
2.573802541544477
2.487781036168133
2.398826979472141
2.3088954056695994
2.218963831867057
2.1270772238514173
2.035190615835777
1.945259042033236
1.8563049853372435
1.780058651026393
1.710654936461388
1.635386119257087
1.5591397849462365
1.4838709677419355
1.412512218963832
1.346041055718475
1.284457478005865
1.2297165200391007
1.1837732160312806
1.147605083088954
1.1221896383186705
1.1094819159335287
1.110459433040078
1.1241446725317692
1.1505376344086022
1.1896383186705768
1.2394916911045943
1.2971652003910068
1.359726295210166
1.4222873900293256
1.4819159335288368
1.5347018572825024
1.5806451612903225
1.6187683284457477
1.6480938416422288
1.6705767350928642
1.6881720430107527
1.7008797653958945
1.7086999022482894
1.7116324535679377
1.7116324535679377
1.7096774193548387
1.7057673509286413
1.699902248289345
1.6930596285434996
1.6842619745845553
1.6744868035190617
1.6656891495601174
1.656891495601173
1.6471163245356797
1.643206256109482
1.6520039100684265
1.6823069403714566
1.7409579667644184
1.8328445747800584
1.9550342130987293
2.101661779081134
2.26197458455523
2.4222873900293256
2.5532746823069403
2.656891495601173
2.752688172043011
2.8269794721407626
2.873900293255132
2.8944281524926687
2.8905180840664717
2.865102639296188
2.822091886608016
2.7653958944281527
2.696969696969697
2.6207233626588464
2.539589442815249
2.463343108504399
2.3900293255131966
2.30791788856305
2.2218963831867056
2.134897360703812
2.047898338220919
1.9608993157380252
1.873900293255132
1.7878787878787878
1.7028347996089932
1.6207233626588464
1.541544477028348
1.4760508308895406
1.4193548387096775
1.359726295210166
1.3010752688172045
1.24633431085044
1.198435972629521
1.1583577712609971
1.1280547409579669
1.1085043988269794
1.0801564027370478
1.0557184750733135
1.064516129032258
1.0899315738025417
1.1290322580645162
1.1827956989247312
1.2453567937438903
1.3128054740957966
1.380254154447703
1.4437927663734116
1.499511241446725
1.5464320625610948
1.5835777126099706
1.6129032258064515
1.6344086021505375
1.6480938416422288
1.6559139784946235
1.6598240469208212
1.6598240469208212
1.656891495601173
1.6529814271749756
1.6471163245356797
1.6412512218963833
1.635386119257087
1.6275659824046922
1.6177908113391983
1.607038123167155
1.598240469208211
1.5943304007820136
1.6001955034213098
1.6236559139784943
1.672531769305963
1.75366568914956
1.868035190615836
2.0127077223851417
2.174975562072336
2.3421309872922778
2.5004887585532747
2.6392961876832843
2.7497556207233624
2.827956989247312
2.8699902248289346
2.8836754643206257
2.877810361681329
2.852394916911046
2.8084066471163247
2.748778103616813
2.677419354838709
2.598240469208211
2.512218963831867
2.420332355816227
2.324535679374389
2.2277614858260018
2.142717497556207
2.0625610948191597
1.9745845552297163
1.8836754643206255
1.7917888563049853
1.699902248289345
1.608993157380254
1.520039100684262
1.434017595307918
1.3519061583577712
1.273704789833822
1.1994134897360704
1.1300097751710656
1.0762463343108504
1.0312805474095796
0.9843597262952102
0.9413489736070382
0.9051808406647116
0.8778103616813294
0.8621700879765396
0.8611925708699902
0.8758553274682307
0.9051808406647116
0.9481915933528836
1.0039100684261977
1.0606060606060606
1.1173020527859236
1.1788856304985338
1.2375366568914956
1.2903225806451613
1.3333333333333333
1.367546432062561
1.3919843597262953
1.4076246334310851
1.414467253176931
1.41544477028348
1.4115347018572826
1.404692082111437
1.3998044965786902
1.3949169110459434
1.3890518084066472
1.3841642228739004
1.380254154447703
1.3773216031280548
1.3734115347018572
1.370478983382209
1.3695014662756595
1.3743890518084063
1.3919843597262953
1.4301075268817205
1.4819159335288368
1.555229716520039
1.667644183773216
1.8132942326490715
1.9833822091886608
2.163245356793744
2.3391984359726297
2.498533724340176
2.631476050830889
2.7331378299120237
2.801564027370479
2.8377321603128056
2.8455522971652005
2.831867057673509
2.8025415444770285
2.757575757575758
2.7008797653958942
2.634408602150537
2.560117302052786
2.4809384164222874
2.398826979472141
2.314760508308896
2.2297165200391005
2.1436950146627565
2.059628543499511
1.988269794721408
1.9227761485826005
1.8543499511241448
1.7869012707722385
1.7223851417399805
1.66177908113392
1.606060606060606
1.555229716520039
1.5083088954056696
1.466275659824047
1.4291300097751711
1.3978494623655917
1.3734115347018572
1.3577712609970674
1.3499511241446724
1.348973607038123
1.3558162267839686
1.3734115347018572
1.4007820136852396
1.4379276637341154
1.4819159335288368
1.530791788856305
1.5806451612903225
1.6285434995112416
1.672531769305963
1.70772238514174
1.7331378299120237
1.75366568914956
1.7683284457478006
1.7771260997067448
1.7790811339198436
1.7761485826001957
1.7702834799608993
1.761485826001955
1.7487781036168133
1.7350928641251222
1.7204301075268815
1.7057673509286413
1.6920821114369502
1.6793743890518085
1.664711632453568
1.6480938416422288
1.6304985337243405
1.616813294232649
1.6138807429130009
1.6304985337243405
1.6744868035190617
1.7517106549364614
1.86119257086999
1.9980449657869013
2.1309872922776147
2.260019550342131
2.4027370478983383
2.5376344086021505
2.652003910068426
2.73802541544477
2.793743890518084
2.820136852394917
2.820136852394917
2.7976539589442817
2.757575757575758
2.702834799608993
2.635386119257087
2.5669599217986314
2.4975562072336266
2.4173998044965788
2.3313782991202348
2.242424242424242
2.1515151515151514
2.060606060606061
1.9696969696969695
1.8807429130009776
1.7927663734115349
1.704789833822092
1.6187683284457477
1.5464320625610948
1.4819159335288368
1.4115347018572826
1.3401759530791788
1.270772238514174
1.2043010752688172
1.1436950146627567
1.088954056695992
1.0420332355816226
1.0058651026392962
0.9794721407624634
0.9667644183773216
0.9687194525904204
0.9833822091886608
1.0097751710654936
1.0478983382209188
1.0977517106549364
1.1573802541544478
1.2218963831867058
1.2873900293255132
1.3499511241446724
1.4066471163245358
1.456500488758553
1.498533724340176
1.5317693059628543
1.5562072336265884
1.573802541544477
1.5865102639296187
1.5943304007820136
1.598240469208211
1.5992179863147604
1.598240469208211
1.595307917888563
1.5913978494623655
1.5865102639296187
1.5806451612903225
1.5728250244379276
1.5650048875855327
1.5571847507331378
1.5503421309872922
1.5513196480938416
1.565982404692082
1.603128054740958
1.6705767350928642
1.7712609970674489
1.903225806451613
2.058651026392962
2.2238514173998043
2.3870967741935485
2.5347018572825024
2.6451612903225805
2.7233626588465296
2.7859237536656893
2.844574780058651
2.889540566959922
2.897360703812317
2.878787878787879
2.8396871945259043
2.78494623655914
2.718475073313783
2.643206256109482
2.563049853372434
2.487781036168133
2.41544477028348
2.334310850439883
2.2502443792766376
2.164222873900293
2.0772238514174
1.992179863147605
1.90811339198436
1.825024437927664
1.7429130009775171
1.6637341153470186
1.5884652981427174
1.5161290322580645
1.457478005865103
1.4076246334310851
1.3548387096774193
1.3040078201368523
1.2590420332355816
1.2209188660801564
1.1925708699902249
1.173998044965787
1.1681329423264908
1.1759530791788857
1.198435972629521
1.2346041055718475
1.2766373411534702
1.324535679374389
1.3822091886608017
1.4437927663734116
1.5063538611925709
1.564027370478983
1.6158357771260996
1.6588465298142718
1.6920821114369502
1.7174975562072337
1.7350928641251222
1.7468230694037146
1.7526881720430108
1.7556207233626588
1.7546432062561097
1.750733137829912
1.7438905180840665
1.7350928641251222
1.7253176930596286
1.7145650048875856
1.7018572825024438
1.6871945259042034
1.6705767350928642
1.653958944281525
1.640273704789834
1.6344086021505375
1.640273704789834
1.6656891495601174
1.7165200391006843
1.7986314760508308
1.9100684261974583
2.0439882697947214
2.188660801564027
2.333333333333333
2.466275659824047
2.578690127077224
2.664711632453568
2.7223851417399803
2.7517106549364616
2.757575757575758
2.7468230694037143
2.718475073313783
2.674486803519061
2.618768328445748
2.552297165200391
2.4780058651026398
2.3978494623655915
2.313782991202346
2.2277614858260018
2.1407624633431084
2.064516129032258
1.9951124144672527
1.9188660801564028
1.8406647116324533
1.7634408602150538
1.689149560117302
1.616813294232649
1.5483870967741935
1.4848484848484849
1.4271749755620724
1.3763440860215057
1.3313782991202343
1.29227761485826
1.2639296187683284
1.2443792766373412
1.2267839687194526
1.2140762463343109
1.2111436950146628
1.2189638318670577
1.2404692082111437
1.2746823069403714
1.321603128054741
1.3773216031280548
1.4389051808406648
1.5024437927663734
1.5581622678396871
1.607038123167155
1.6549364613880744
1.696969696969697
1.732160312805474
1.758553274682307
1.7761485826001957
1.7869012707722385
1.7917888563049853
1.7917888563049853
1.7888563049853372
1.7839687194525904
1.7790811339198436
1.775171065493646
1.772238514173998
1.7683284457478006
1.7624633431085044
1.7556207233626588
1.7468230694037146
1.7380254154447703
1.7341153470185728
1.739980449657869
1.7634408602150538
1.812316715542522
1.8914956011730208
1.981427174975562
2.085043988269794
2.220918866080156
2.3734115347018574
2.525904203323558
2.665689149560117
2.782991202346041
2.8729227761485827
2.9335288367546437
2.964809384164223
2.9696969696969697
2.952101661779081
2.9159335288367547
2.870967741935484
2.817204301075269
2.752688172043011
2.679374389051808
2.60019550342131
2.5161290322580645
2.4301075268817205
2.3421309872922778
2.2521994134897363
2.163245356793744
2.0733137829912023
1.9843597262952104
1.9090909090909087
1.839687194525904
1.7644183773216031
1.689149560117302
1.6148582600195502
1.543499511241447
1.47702834799609
1.41544477028348
1.3587487781036167
1.3098729227761483
1.267839687194526
1.2346041055718475
1.2121212121212122
1.203323558162268
1.206256109481916
1.2189638318670577
1.2424242424242424
1.2776148582600195
1.3235581622678396
1.3763440860215057
1.4330400782013686
1.4897360703812317
1.544477028347996
1.5943304007820136
1.6392961876832846
1.6744868035190617
1.7018572825024438
1.7253176930596286
1.7438905180840665
1.7575757575757576
1.7673509286412512
1.7732160312805474
1.7761485826001957
1.7771260997067448
1.775171065493646
1.772238514173998
1.7673509286412512
1.7634408602150538
1.758553274682307
1.750733137829912
1.7409579667644184
1.7331378299120237
1.7311827956989247
1.7419354838709675
1.7741935483870968
1.833822091886608
1.924731182795699
2.04594330400782
2.188660801564027
2.343108504398827
2.4760508308895406
2.590420332355816
2.7038123167155423
2.7996089931573804
2.8699902248289346
2.9120234604105573
2.9266862170087977
2.917888563049853
2.8885630498533725
2.8426197458455524
2.7839687194525906
2.716520039100684
2.650048875855328
2.582600195503421
2.505376344086021
2.423264907135875
2.3382209188660803
2.251221896383187
2.163245356793744
2.0762463343108504
1.9902248289345064
1.906158357771261
1.8240469208211143
1.7438905180840665
1.6656891495601174
1.6001955034213098
1.542521994134897
1.479960899315738
1.418377321603128
1.359726295210166
1.305962854349951
1.2580645161290325
1.2179863147605083
1.1857282502443791
1.164222873900293
1.1544477028347997
1.1573802541544478
1.1720430107526882
1.198435972629521
1.2365591397849462
1.2854349951124144
1.343108504398827
1.404692082111437
1.466275659824047
1.525904203323558
1.5796676441837731
1.6256109481915937
1.6392961876832846
1.632453567937439
1.6363636363636365
1.643206256109482
1.6490713587487782
1.6529814271749756
1.6529814271749756
1.651026392961877
1.6471163245356797
1.6422287390029326
1.6373411534701858
1.6314760508308896
1.624633431085044
1.6158357771260996
1.606060606060606
1.598240469208211
1.5962854349951123
1.6041055718475072
1.6304985337243405
1.6823069403714566
1.7663734115347018
1.881720430107527
2.024437927663734
2.1847507331378297
2.3499511241446727
2.50733137829912
2.644183773216031
2.7536656891495603
2.825024437927664
2.865102639296188
2.8856304985337244
2.884652981427175
2.863147605083089
2.8240469208211145
2.7702834799608995
2.7038123167155423
2.6285434995112413
2.547409579667644
2.462365591397849
2.3734115347018574
2.2932551319648096
2.217986314760508
2.134897360703812
2.047898338220919
1.9589442815249267
1.869012707722385
1.780058651026393
1.6920821114369502
1.6050830889540566
1.521016617790811
1.439882697947214
1.3636363636363635
1.2932551319648091
1.238514173998045
1.1935483870967742
1.1466275659824048
1.1036168132942326
1.067448680351906
1.0391006842619743
1.0224828934506354
1.018572825024438
1.0273704789833822
1.050830889540567
1.0879765395894427
1.1368523949169111
1.1886608015640274
1.2434017595307918
1.305962854349951
1.370478983382209
1.43108504398827
1.4848484848484849
1.5317693059628543
1.5708699902248289
1.6011730205278591
1.6236559139784943
1.6392961876832846
1.6500488758553276
1.6559139784946235
1.6598240469208212
1.66177908113392
1.6608015640273706
1.6578690127077225
1.6529814271749756
1.64613880742913
1.6383186705767352
1.6304985337243405
1.624633431085044
1.624633431085044
1.6373411534701858
1.6715542521994136
1.7194525904203324
1.7869012707722385
1.8914956011730208
2.027370478983382
2.1837732160312804
2.347996089931574
2.506353861192571
2.6480938416422286
2.764418377321604
2.849462365591398
2.902248289345064
2.9257086999022484
2.921798631476051
2.8993157380254155
2.86217008797654
2.809384164222874
2.745845552297165
2.6725317693059627
2.591397849462365
2.504398826979472
2.4144672531769307
2.321603128054741
2.228739002932551
2.134897360703812
2.042033235581622
1.9618768328445748
1.8885630498533723
1.8084066471163245
1.7253176930596286
1.6422287390029326
1.560117302052786
1.479960899315738
1.4037145650048877
1.332355816226784
1.2658846529814272
1.2043010752688172
1.1485826001955035
1.099706744868035
1.064516129032258
1.040078201368524
1.0205278592375366
1.0097751710654936
1.0117302052785924
1.0273704789833822
1.0576735092864125
1.1016617790811338
1.155425219941349
1.2150537634408602
1.278592375366569
1.3411534701857282
1.3949169110459434
1.4408602150537635
1.4848484848484849
1.521994134897361
1.5513196480938416
1.573802541544477
1.5894428152492668
1.5992179863147604
1.6041055718475072
