ppg
2.1163245356793743
2.0625610948191597
2.013685239491691
1.970674486803519
1.9335288367546437
1.902248289345064
1.873900293255132
1.8465298142717497
1.8191593352883677
1.7917888563049853
1.7644183773216031
1.739980449657869
1.7174975562072337
1.6930596285434996
1.6666666666666667
1.6383186705767352
1.608993157380254
1.5796676441837731
1.5493646138807429
1.5180840664711632
1.4868035190615836
1.456500488758553
1.4291300097751711
1.4027370478983383
1.3812316715542523
1.3636363636363635
1.343108504398827
1.321603128054741
1.3020527859237536
1.2834799608993157
1.2658846529814272
1.249266862170088
1.2326490713587488
1.2179863147605083
1.2043010752688172
1.1925708699902249
1.18475073313783
1.1798631476050832
1.1720430107526882
1.164222873900293
1.1564027370478984
1.1495601173020529
1.142717497556207
1.1368523949169111
1.130987292277615
1.1251221896383188
1.1202346041055715
1.1163245356793745
1.1124144672531768
1.1114369501466277
1.1124144672531768
1.1114369501466277
1.110459433040078
1.110459433040078
1.110459433040078
1.110459433040078
1.110459433040078
1.1094819159335287
1.10752688172043
1.104594330400782
1.1026392961876832
1.104594330400782
1.110459433040078
1.1221896383186705
1.1456500488758554
1.1867057673509287
1.2502443792766371
1.33822091886608
1.452590420332356
1.5894428152492668
1.7419354838709675
1.903225806451613
2.065493646138808
2.222873900293255
2.3519061583577714
2.4604105571847508
2.570869990224829
2.673509286412512
2.763440860215054
2.8396871945259043
2.9042033235581624
2.956011730205278
2.997067448680352
3.027370478983382
3.047898338220919
3.0576735092864125
3.053763440860215
3.0234604105571847
2.978494623655914
2.9374389051808407
2.89345063538612
2.8426197458455524
2.782013685239492
2.713587487781036
2.638318670576735
2.5562072336265884
2.4711632453567938
2.3851417399804498
2.302052785923754
2.23069403714565
2.16911045943304
2.110459433040078
2.058651026392962
2.013685239491691
1.975562072336266
1.9442815249266865
1.9188660801564028
1.8973607038123168
1.8778103616813293
1.858260019550342
1.8387096774193548
1.8211143695014664
1.8035190615835777
1.782991202346041
1.7605083088954057
1.737047898338221
1.7126099706744868
1.6871945259042034
1.6608015640273706
1.632453567937439
1.603128054740958
1.5728250244379276
1.542521994134897
1.512218963831867
1.487781036168133
1.4652981427174976
1.4408602150537635
1.4164222873900294
1.3919843597262953
1.3685239491691104
1.346041055718475
1.3255131964809383
1.3069403714565004
1.2883675464320623
1.270772238514174
1.2551319648093842
1.2443792766373412
1.2365591397849462
1.2267839687194526
1.2160312805474096
1.2052785923753666
1.1964809384164223
1.187683284457478
1.1798631476050832
1.1730205278592376
1.166177908113392
1.160312805474096
1.1544477028347997
1.1485826001955035
1.1456500488758554
1.144672531769306
1.1407624633431086
1.1358748778103618
1.130987292277615
1.126099706744868
1.1221896383186705
1.118279569892473
1.1133919843597262
1.10752688172043
1.099706744868035
1.0909090909090908
1.0850439882697946
1.0821114369501466
1.0811339198435972
1.0879765395894427
1.110459433040078
1.152492668621701
1.2179863147605083
1.3088954056695992
1.423264907135875
1.5562072336265884
1.7028347996089932
1.8563049853372435
2.007820136852395
2.133919843597263
2.2404692082111435
2.3499511241446727
2.4516129032258065
2.5405669599217986
2.6158357771261
2.67644183773216
2.724340175953079
2.7614858260019552
2.788856304985337
2.807429130009776
2.8181818181818183
2.8181818181818183
2.8103616813294234
2.798631476050831
2.780058651026393
2.7517106549364616
2.7126099706744866
2.662756598240469
2.603128054740958
2.533724340175953
2.4574780058651027
2.376344086021505
2.29227761485826
2.209188660801564
2.136852394916911
2.072336265884653
2.007820136852395
1.9472140762463344
1.89247311827957
1.844574780058651
1.8025415444770283
1.7653958944281525
1.732160312805474
1.7028347996089932
1.6764418377321604
1.651026392961877
1.629521016617791
1.6099706744868034
1.5884652981427174
1.5650048875855327
1.5405669599217986
1.5141739980449658
1.487781036168133
1.4604105571847508
1.4320625610948192
1.4037145650048877
1.3763440860215057
1.348973607038123
1.3264907135874875
1.3069403714565004
1.284457478005865
1.262952101661779
1.2424242424242424
1.2209188660801564
1.2003910068426198
1.1808406647116323
1.1612903225806452
1.1436950146627567
1.1270772238514175
1.110459433040078
1.0948191593352885
1.0840664711632453
1.0762463343108504
1.0684261974584557
1.0596285434995112
1.050830889540567
1.043010752688172
1.035190615835777
1.0263929618768328
1.018572825024438
1.010752688172043
1.0048875855327468
1.0
0.9990224828934506
1.0009775171065494
1.0019550342130987
1.0019550342130987
1.0019550342130987
1.0019550342130987
1.0019550342130987
1.0019550342130987
1.0019550342130987
1.0019550342130987
1.0019550342130987
1.0
0.9980449657869012
0.997067448680352
0.997067448680352
0.9941348973607038
0.9931573802541545
0.9990224828934506
1.0166177908113392
1.050830889540567
1.10752688172043
1.1886608015640274
1.295210166177908
1.423264907135875
1.5679374389051808
1.7028347996089932
1.8318670576735088
1.9745845552297163
2.118279569892473
2.2531769305962857
2.375366568914956
2.4819159335288368
2.572825024437928
2.6480938416422286
2.70772238514174
2.7546432062561097
2.789833822091887
2.8152492668621703
2.8260019550342133
2.8269794721407626
2.825024437927664
2.8181818181818183
2.8044965786901277
2.782013685239492
2.7497556207233624
2.7067448680351904
2.653958944281525
2.591397849462365
2.520039100684262
2.442815249266862
2.3704789833822093
2.3010752688172045
2.2267839687194524
2.1515151515151514
2.080156402737048
2.013685239491691
1.95405669599218
1.9012707722385145
1.8563049853372435
1.818181818181818
1.7849462365591398
1.7546432062561097
1.726295210166178
1.7028347996089932
1.6813294232649072
1.6578690127077225
1.6344086021505375
1.6099706744868034
1.58455522971652
1.5591397849462365
1.5327468230694037
1.5053763440860215
1.47702834799609
1.447702834799609
1.4193548387096775
1.3958944281524928
1.375366568914956
1.3519061583577712
1.327468230694037
1.303030303030303
1.278592375366569
1.2551319648093842
1.2336265884652982
1.2121212121212122
1.1915933528836755
1.1730205278592376
1.155425219941349
1.1378299120234605
1.126099706744868
1.1173020527859236
1.1065493646138806
1.0957966764418376
1.0850439882697946
1.075268817204301
1.067448680351906
1.0635386119257086
1.06158357771261
1.0586510263929618
1.053763440860215
1.0488758553274682
1.0469208211143697
1.04594330400782
1.043010752688172
1.0381231671554252
1.0342130987292275
1.0312805474095796
1.0283479960899315
1.0263929618768328
1.0234604105571847
1.0205278592375366
1.0175953079178883
1.0146627565982405
1.0117302052785924
1.0117302052785924
1.013685239491691
1.0117302052785924
1.007820136852395
1.0048875855327468
1.0058651026392962
1.0156402737047898
1.0391006842619743
1.0811339198435972
1.1466275659824048
1.2375366568914956
1.35386119257087
1.4711632453567938
1.5933528836754642
1.7390029325513197
1.8963831867057677
2.053763440860215
2.203323558162268
2.3411534701857284
2.462365591397849
2.5669599217986314
2.654936461388074
2.727272727272727
2.78494623655914
2.83088954056696
2.859237536656892
2.875855327468231
2.8905180840664717
2.900293255131965
2.902248289345064
2.895405669599218
2.878787878787879
2.8514173998044967
2.8132942326490715
2.763440860215054
2.7038123167155423
2.634408602150537
2.5650048875855327
2.4946236559139785
2.41544477028348
2.332355816226784
2.249266862170088
2.1700879765395893
2.0957966764418376
2.029325513196481
1.970674486803519
1.919843597262952
1.87683284457478
1.839687194525904
1.8074291300097751
1.7820136852394917
1.7605083088954057
1.7380254154447703
1.7145650048875856
1.6911045943304008
1.6666666666666667
1.6422287390029326
1.616813294232649
1.5913978494623655
1.5650048875855327
1.5376344086021505
1.5102639296187683
1.4868035190615836
1.4643206256109482
1.4389051808406648
1.4115347018572826
1.3841642228739004
1.356793743890518
1.3304007820136852
1.3049853372434017
1.2805474095796676
1.2580645161290325
1.2365591397849462
1.2160312805474096
1.2013685239491692
1.1896383186705768
1.1749755620723363
1.1593352883675463
1.144672531769306
1.130987292277615
1.118279569892473
1.1065493646138806
1.0948191593352885
1.0850439882697946
1.0772238514173995
1.0694037145650048
1.0625610948191593
1.0596285434995112
1.0586510263929618
1.0547409579667644
1.0498533724340176
1.0449657869012707
1.0410557184750733
1.0381231671554252
1.0342130987292275
1.0312805474095796
1.0283479960899315
1.024437927663734
1.021505376344086
1.021505376344086
1.0224828934506354
1.021505376344086
1.0195503421309873
1.0166177908113392
1.0127077223851415
1.0087976539589445
1.0068426197458455
1.0087976539589445
1.0195503421309873
1.0449657869012707
1.0909090909090908
1.1622678396871946
1.2424242424242424
1.3372434017595307
1.4633431085043989
1.6109481915933528
1.7712609970674489
1.935483870967742
2.096774193548387
2.247311827956989
2.3841642228739004
2.505376344086021
2.6099706744868034
2.697947214076246
2.760508308895406
2.8054740957966766
2.8475073313782997
2.884652981427175
2.913000977517106
2.9335288367546437
2.946236559139785
2.9501466275659824
2.9442815249266863
2.9286412512218964
2.902248289345064
2.865102639296188
2.817204301075269
2.763440860215054
2.7038123167155423
2.632453567937439
2.5542521994134897
2.4701857282502444
2.3851417399804498
2.302052785923754
2.222873900293255
2.1495601173020527
2.083088954056696
2.0234604105571847
1.9726295210166176
1.9315738025415443
1.8983382209188664
1.8670576735092863
1.8387096774193548
1.812316715542522
1.7869012707722385
1.761485826001955
1.7350928641251222
1.70772238514174
1.6793743890518085
1.6500488758553276
1.619745845552297
1.5894428152492668
1.5650048875855327
1.542521994134897
1.5161290322580645
1.487781036168133
1.458455522971652
1.4291300097751711
1.3988269794721409
1.3695014662756595
1.3421309872922775
1.3157380254154447
1.2903225806451613
1.2658846529814272
1.2473118279569892
1.2316715542521994
1.2140762463343109
1.1964809384164223
1.1798631476050832
1.163245356793744
1.1485826001955035
1.1358748778103618
1.1241446725317692
1.1143695014662756
1.104594330400782
1.093841642228739
1.0840664711632453
1.0791788856304985
1.0762463343108504
1.072336265884653
1.067448680351906
1.0625610948191593
1.056695992179863
1.050830889540567
1.04594330400782
1.0420332355816226
1.0381231671554252
1.0342130987292275
1.0303030303030305
1.0303030303030305
1.032258064516129
1.032258064516129
1.0312805474095796
1.029325513196481
1.0273704789833822
1.0234604105571847
1.0195503421309873
1.0156402737047898
1.0117302052785924
1.0097751710654936
1.0127077223851415
1.0263929618768328
1.050830889540567
1.088954056695992
1.1505376344086022
1.2375366568914956
1.3509286412512218
1.487781036168133
1.6412512218963833
1.804496578690127
1.970674486803519
2.131964809384164
2.2825024437927666
2.419354838709677
2.5249266862170088
2.6080156402737047
2.6881720430107525
2.7595307917888565
2.820136852394917
2.8699902248289346
2.90811339198436
2.9374389051808407
2.9579667644183774
2.9696969696969697
2.973607038123167
2.967741935483871
2.952101661779081
2.9266862170087977
2.8963831867057674
2.8582600195503423
2.806451612903226
2.7419354838709675
2.668621700879765
2.587487781036168
2.501466275659824
2.4144672531769307
2.329423264907136
2.249266862170088
2.1739980449657867
2.112414467253177
2.060606060606061
2.0097751710654936
1.964809384164223
1.924731182795699
1.889540566959922
1.858260019550342
1.8299120234604105
1.8025415444770283
1.7761485826001957
1.7487781036168133
1.7204301075268815
1.6920821114369502
1.6666666666666667
1.6422287390029326
1.6138807429130009
1.5835777126099706
1.5513196480938416
1.520039100684262
1.4887585532746823
1.457478005865103
1.4271749755620724
1.3988269794721409
1.370478983382209
1.343108504398827
1.321603128054741
1.303030303030303
1.281524926686217
1.260019550342131
1.2394916911045943
1.219941348973607
1.2013685239491692
1.1837732160312806
1.166177908113392
1.1505376344086022
1.1368523949169111
1.1241446725317692
1.1124144672531768
1.1055718475073313
1.1016617790811338
1.0957966764418376
1.0879765395894427
1.0801564027370478
1.0733137829912025
1.0664711632453567
1.0596285434995112
1.0527859237536656
1.0469208211143697
1.0410557184750733
1.035190615835777
1.032258064516129
1.032258064516129
1.0303030303030305
1.0283479960899315
1.0263929618768328
1.024437927663734
1.0224828934506354
1.0195503421309873
1.0156402737047898
1.0117302052785924
1.007820136852395
1.0039100684261977
1.0039100684261977
1.007820136852395
1.0146627565982405
1.029325513196481
1.0576735092864125
1.10752688172043
1.181818181818182
1.2825024437927663
1.4076246334310851
1.5542521994134897
1.7145650048875856
1.8826979472140764
2.0498533724340176
2.189638318670577
2.3088954056695994
2.43108504398827
2.544477028347996
2.6451612903225805
2.7311827956989245
2.8025415444770285
2.860215053763441
2.9042033235581624
2.93841642228739
2.962854349951124
2.979472140762464
2.983382209188661
2.9775171065493646
2.9667644183773216
2.949169110459433
2.9227761485826003
2.8856304985337244
2.8367546432062563
2.7781036168132944
2.708699902248289
2.631476050830889
2.548387096774193
2.463343108504399
2.378299120234604
2.303030303030303
2.2346041055718477
2.166177908113392
2.101661779081134
2.042033235581622
1.9902248289345064
1.945259042033236
1.906158357771261
1.871945259042033
1.8416422287390029
1.8132942326490715
1.7849462365591398
1.7595307917888563
1.737047898338221
1.7116324535679377
1.6852394916911049
1.6578690127077225
1.629521016617791
1.6001955034213098
1.5698924731182795
1.5395894428152492
1.509286412512219
1.478983382209189
1.4486803519061584
1.418377321603128
1.393939393939394
1.3724340175953078
1.3479960899315735
1.3235581622678396
1.2981427174975562
1.273704789833822
1.252199413489736
1.2316715542521994
1.2121212121212122
1.1945259042033236
1.1788856304985338
1.164222873900293
1.1534701857282503
1.1466275659824048
1.1378299120234605
1.1290322580645162
1.1202346041055715
1.1124144672531768
1.104594330400782
1.096774193548387
1.088954056695992
1.083088954056696
1.078201368523949
1.0742913000977516
1.0703812316715542
1.0703812316715542
1.0713587487781036
1.0684261974584557
1.0654936461388074
1.0625610948191593
1.0606060606060606
1.0586510263929618
1.056695992179863
1.0547409579667644
1.0527859237536656
1.050830889540567
1.0488758553274682
1.0488758553274682
1.0498533724340176
1.0488758553274682
1.0478983382209188
1.0478983382209188
1.0527859237536656
1.0684261974584557
1.0977517106549364
1.1485826001955035
1.224828934506354
1.3284457478005864
1.456500488758553
1.6050830889540566
1.7448680351906158
1.8797653958944285
2.03128054740958
2.1837732160312804
2.3284457478005867
2.4604105571847508
2.576735092864125
2.677419354838709
2.7624633431085046
2.831867057673509
2.886608015640274
2.929618768328446
2.9550342130987293
2.9696969696969697
2.983382209188661
2.992179863147605
2.995112414467253
2.9902248289345064
2.975562072336266
2.952101661779081
2.916911045943304
2.8699902248289346
2.812316715542522
2.744868035190616
2.668621700879765
2.5943304007820136
2.5210166177908118
2.4408602150537635
2.3597262952101663
2.281524926686217
2.2082111436950145
2.1436950146627565
2.0879765395894427
2.0410557184750733
2.002932551319648
1.970674486803519
1.943304007820137
1.920821114369501
1.900293255131965
1.878787878787879
1.8563049853372435
1.8318670576735088
1.8064516129032255
1.7790811339198436
1.7487781036168133
1.7165200391006843
1.683284457478006
1.6490713587487782
1.6129032258064515
1.5757575757575757
1.544477028347996
1.5161290322580645
1.4838709677419355
1.4506353861192571
1.4173998044965788
1.3861192570869991
1.3548387096774193
1.3255131964809383
1.2991202346041055
1.2756598240469208
1.2561094819159335
1.2404692082111437
1.2297165200391007
1.2228739002932552
1.2160312805474096
1.2101661779081134
1.2052785923753666
1.2013685239491692
1.1994134897360704
1.198435972629521
1.1974584555229717
1.1974584555229717
1.1974584555229717
1.1974584555229717
1.1974584555229717
1.1994134897360704
1.2003910068426198
1.1994134897360704
1.198435972629521
1.1964809384164223
1.1945259042033236
1.1925708699902249
1.1906158357771262
1.187683284457478
1.1837732160312806
1.1788856304985338
1.173998044965787
1.1710654936461389
1.1700879765395895
1.166177908113392
1.1612903225806452
1.155425219941349
1.1485826001955035
1.142717497556207
1.13880742913001
1.1407624633431086
1.152492668621701
1.1788856304985338
1.224828934506354
1.2961876832844574
1.3773216031280548
1.4721407624633431
1.5972629521016617
1.7429130009775171
1.902248289345064
2.065493646138808
2.2248289345063537
2.3734115347018574
2.506353861192571
2.622678396871945
2.721407624633431
2.8025415444770285
2.8582600195503423
2.895405669599218
2.929618768328446
2.9579667644183774
2.9775171065493646
2.989247311827957
2.9931573802541545
2.9872922776148583
2.972629521016618
2.948191593352884
2.913978494623656
2.868035190615836
2.817204301075269
2.760508308895406
2.69208211143695
2.613880742913001
2.530791788856305
2.443792766373412
2.355816226783969
2.270772238514174
2.190615835777126
2.1163245356793743
2.050830889540567
1.9931573802541545
1.943304007820137
1.9042033235581624
1.8729227761485825
1.8435972629521016
1.8162267839687196
1.7898338220918866
1.7644183773216031
1.7390029325513197
1.7135874877810362
1.6871945259042034
1.6598240469208212
1.6304985337243405
1.6011730205278591
1.5757575757575757
1.5513196480938416
1.52297165200391
1.4926686217008798
1.4623655913978495
1.4320625610948192
1.4007820136852396
1.370478983382209
1.3401759530791788
1.3118279569892473
1.284457478005865
1.2590420332355816
1.2346041055718475
1.2160312805474096
1.2003910068426198
1.1827956989247312
1.1652003910068427
1.1485826001955035
1.1348973607038124
1.1221896383186705
1.1094819159335287
1.0977517106549364
1.086021505376344
1.075268817204301
1.0654936461388074
1.0606060606060606
1.0586510263929618
1.0557184750733135
1.050830889540567
1.0449657869012707
1.0391006842619743
1.0332355816226784
1.0273704789833822
1.021505376344086
1.0166177908113392
1.0127077223851415
1.0087976539589445
1.0048875855327468
1.0039100684261977
1.0048875855327468
1.0039100684261977
1.002932551319648
1.0019550342130987
1.0
0.9980449657869012
0.9951124144672532
0.9921798631476052
0.9902248289345064
0.989247311827957
0.9912023460410556
1.0
1.0166177908113392
1.04594330400782
1.0948191593352885
1.1691104594330402
1.2688172043010753
1.393939393939394
1.5395894428152492
1.6989247311827955
1.865102639296188
2.0303030303030303
2.188660801564027
2.335288367546432
2.449657869012708
2.5405669599217986
2.63049853372434
2.710654936461388
2.7781036168132944
2.833822091886608
2.877810361681329
2.9120234604105573
2.9374389051808407
2.95405669599218
2.961876832844575
2.960899315738025
2.949169110459433
2.9286412512218964
2.900293255131965
2.86217008797654
2.814271749755621
2.7565982404692084
2.689149560117302
2.6129032258064515
2.5317693059628543
2.44672531769306
2.360703812316716
2.27761485826002
2.19941348973607
2.133919843597263
2.0791788856304985
2.0254154447702835
1.9765395894428155
1.9345063538611929
1.8973607038123168
1.8641251221896384
1.833822091886608
1.804496578690127
1.7761485826001957
1.7487781036168133
1.721407624633431
1.6979472140762464
1.6774193548387095
1.6529814271749756
1.6265884652981428
1.5972629521016617
1.5669599217986314
1.5356793743890518
1.504398826979472
1.4721407624633431
1.439882697947214
1.4086021505376345
1.3773216031280548
1.3479960899315735
1.3255131964809383
1.305962854349951
1.284457478005865
1.2619745845552297
1.2404692082111437
1.2209188660801564
1.2023460410557183
1.18475073313783
1.1671554252199414
1.1505376344086022
1.1348973607038124
1.121212121212121
1.1124144672531768
1.1055718475073313
1.096774193548387
1.0869990224828934
1.0791788856304985
1.072336265884653
1.0654936461388074
1.0606060606060606
1.056695992179863
1.0518084066471165
1.0469208211143697
1.0420332355816226
1.0361681329423265
1.0342130987292275
1.0332355816226784
1.0303030303030305
1.0263929618768328
1.0234604105571847
1.0205278592375366
1.018572825024438
1.0175953079178883
1.0156402737047898
1.013685239491691
1.010752688172043
1.007820136852395
1.007820136852395
1.0087976539589445
1.007820136852395
1.0087976539589445
1.0166177908113392
1.035190615835777
1.0713587487781036
1.1300097751710656
1.2140762463343109
1.324535679374389
1.4594330400782014
1.611925708699902
1.7761485826001957
1.921798631476051
2.053763440860215
2.1955034213098727
2.334310850439883
2.4613880742913
2.572825024437928
2.6695992179863146
2.750733137829912
2.817204301075269
2.8699902248289346
2.9100684261974585
2.940371456500489
2.9550342130987293
2.959921798631476
2.960899315738025
2.956011730205278
2.943304007820137
2.921798631476051
2.889540566959922
2.8455522971652005
2.790811339198436
2.7262952101661777
2.6529814271749754
2.572825024437928
2.4975562072336266
2.423264907135875
2.343108504398827
2.2639296187683287
2.187683284457478
2.117302052785924
2.0547409579667644
2.0
1.9530791788856303
1.9130009775171064
1.878787878787879
1.8484848484848484
1.8211143695014664
1.7976539589442817
1.775171065493646
1.7517106549364614
1.7272727272727273
1.7018572825024438
1.6764418377321604
1.6490713587487782
1.6217008797653958
1.5923753665689149
1.5620723362658846
1.530791788856305
1.499511241446725
1.474095796676442
1.4516129032258065
1.426197458455523
1.3988269794721409
1.3714565004887584
1.3450635386119256
1.3196480938416422
1.295210166177908
1.2717497556207231
1.249266862170088
1.2297165200391007
1.2111436950146628
1.1925708699902249
1.1788856304985338
1.1681329423264908
1.1564027370478984
1.1436950146627567
1.1319648093841643
1.1202346041055715
1.1085043988269794
1.0977517106549364
1.088954056695992
1.0821114369501466
1.075268817204301
1.0703812316715542
1.0694037145650048
1.0694037145650048
1.067448680351906
1.064516129032258
1.0596285434995112
1.0547409579667644
1.0498533724340176
1.04594330400782
1.0420332355816226
1.0381231671554252
1.035190615835777
1.032258064516129
1.029325513196481
1.0303030303030305
1.032258064516129
1.0312805474095796
1.029325513196481
1.0263929618768328
1.0234604105571847
1.0205278592375366
1.0205278592375366
1.0283479960899315
1.0488758553274682
1.0879765395894427
1.1515151515151516
1.2258064516129032
1.3147605083088951
1.4330400782013686
1.573802541544477
1.7311827956989247
1.8963831867057677
2.06158357771261
2.218963831867057
2.364613880742913
2.493646138807429
2.606060606060606
2.701857282502444
2.7810361681329425
2.834799608993157
2.8729227761485827
2.909090909090909
2.93841642228739
2.960899315738025
2.975562072336266
2.9804496578690127
2.9775171065493646
2.9657869012707723
2.9442815249266863
2.911045943304008
2.866080156402737
2.81622678396872
2.7595307917888565
2.69208211143695
2.616813294232649
2.536656891495601
2.452590420332356
2.36950146627566
2.2883675464320627
2.212121212121212
2.142717497556207
2.080156402737048
2.024437927663734
1.9765395894428155
1.93841642228739
1.9071358748778104
1.8778103616813293
1.8494623655913975
1.823069403714565
1.796676441837732
1.7712609970674489
1.7458455522971652
1.7194525904203324
1.6920821114369502
1.6627565982404693
1.632453567937439
1.6050830889540566
1.5796676441837731
1.5513196480938416
1.521016617790811
