ppg
1.4486803519061584
1.6041055718475072
1.775171065493646
1.951124144672532
2.1006842619745845
2.2248289345063537
2.3411534701857284
2.4389051808406648
2.515151515151515
2.5698924731182795
2.6080156402737047
2.633431085043988
2.6529814271749754
2.6666666666666665
2.673509286412512
2.67644183773216
2.674486803519061
2.670576735092864
2.668621700879765
2.665689149560117
2.658846529814272
2.649071358748778
2.635386119257087
2.6148582600195502
2.58455522971652
2.541544477028348
2.489736070381232
2.43108504398827
2.364613880742913
2.300097751710655
2.2355816226783967
2.1593352883675463
2.078201368523949
1.9980449657869013
1.9227761485826005
1.8543499511241448
1.7947214076246334
1.7448680351906158
1.704789833822092
1.672531769305963
1.64613880742913
1.6256109481915937
1.608993157380254
1.5923753665689149
1.5747800586510263
1.5542521994134897
1.530791788856305
1.5053763440860215
1.478983382209189
1.4437927663734116
1.4105571847507332
1.3890518084066472
1.367546432062561
1.3470185728250244
1.3313782991202343
1.3186705767350928
1.3020527859237536
1.2834799608993157
1.2658846529814272
1.2512218963831867
1.2404692082111437
1.2316715542521994
1.2258064516129032
1.2209188660801564
1.2150537634408602
1.2052785923753666
1.195503421309873
1.1857282502443791
1.1720430107526882
1.1515151515151516
1.130987292277615
1.1143695014662756
1.0957966764418376
1.0762463343108504
1.0547409579667644
1.035190615835777
1.0254154447702837
1.0361681329423265
1.0664711632453567
1.121212121212121
1.2101661779081134
1.3333333333333333
1.4819159335288368
1.6412512218963833
1.7956989247311828
1.9345063538611929
2.050830889540567
2.1417399804496577
2.204301075268817
2.242424242424242
2.260019550342131
2.26197458455523
2.254154447702835
2.239491691104594
2.2218963831867056
2.206256109481916
2.1955034213098727
2.1867057673509285
2.1788856304985336
2.172043010752688
2.1652003910068425
2.158357771260997
2.1515151515151514
2.142717497556207
2.1300097751710654
2.1114369501466275
2.0869990224828934
2.0576735092864125
2.027370478983382
1.997067448680352
1.9667644183773216
1.9374389051808407
1.9130009775171064
1.8934506353861196
1.878787878787879
1.866080156402737
1.8543499511241448
1.8435972629521016
1.8318670576735088
1.8172043010752688
1.796676441837732
1.7683284457478006
1.7302052785923754
1.6813294232649072
1.6265884652981428
1.5669599217986314
1.504398826979472
1.4457478005865103
1.401759530791789
1.3636363636363635
1.3176930596285434
1.2639296187683284
1.2082111436950147
1.1544477028347997
1.1036168132942326
1.056695992179863
1.0127077223851415
0.9745845552297164
0.9452590420332356
0.9237536656891496
0.9120234604105572
0.9110459433040078
0.9208211143695014
0.935483870967742
0.9550342130987292
0.978494623655914
1.0058651026392962
1.0342130987292275
1.0606060606060606
1.0821114369501466
1.096774193548387
1.1016617790811338
1.1026392961876832
1.1085043988269794
1.121212121212121
1.1466275659824048
1.1974584555229717
1.2805474095796676
1.396871945259042
1.542521994134897
1.7057673509286413
1.871945259042033
2.0283479960899315
2.164222873900293
2.2766373411534704
2.3626588465298144
2.41544477028348
2.4457478005865103
2.464320625610948
2.4711632453567938
2.4701857282502444
2.4604105571847508
2.447702834799609
2.43108504398827
2.4086021505376345
2.3822091886608017
2.3499511241446727
2.3069403714565007
2.267839687194526
2.239491691104594
2.207233626588465
2.16911045943304
2.124144672531769
2.072336265884653
2.0146627565982405
1.951124144672532
1.8856304985337244
1.8172043010752688
1.747800586510264
1.6803519061583578
1.6177908113391983
1.555229716520039
1.5073313782991202
1.4731182795698925
1.436950146627566
1.4007820136852396
1.3724340175953078
1.3479960899315735
1.3255131964809383
1.310850439882698
1.2942326490713587
1.2795698924731185
1.2688172043010753
1.2619745845552297
1.2580645161290325
1.2541544477028348
1.284457478005865
1.3304007820136852
1.3470185728250244
1.35386119257087
1.3548387096774193
1.346041055718475
1.3343108504398826
1.3264907135874875
1.3186705767350928
1.310850439882698
1.303030303030303
1.2971652003910068
1.2942326490713587
1.2913000977517106
1.2854349951124144
1.2805474095796676
1.278592375366569
1.2776148582600195
1.2766373411534702
1.2766373411534702
1.2805474095796676
1.2883675464320623
1.295210166177908
1.2991202346041055
1.2971652003910068
1.2961876832844574
1.2981427174975562
1.321603128054741
1.383186705767351
1.478983382209189
1.6138807429130009
1.7820136852394917
1.975562072336266
2.179863147605083
2.3548387096774195
2.501466275659824
2.644183773216031
2.76930596285435
2.866080156402737
2.9315738025415445
2.973607038123167
2.99902248289345
3.0117302052785924
3.0175953079178885
3.0205278592375366
3.018572825024438
3.0097751710654936
3.0019550342130987
2.994134897360704
2.9824046920821115
2.970674486803519
2.956989247311828
2.9345063538611926
2.898338220918866
2.8455522971652005
2.779081133919844
2.699902248289345
2.610948191593353
2.5161290322580645
2.4301075268817205
2.3548387096774195
2.278592375366569
2.206256109481916
2.1436950146627565
2.088954056695992
2.0449657869012707
2.0117302052785924
1.9853372434017595
1.962854349951124
1.9393939393939397
1.9159335288367547
1.8973607038123168
1.8758553274682308
1.8465298142717497
1.8142717497556209
1.782991202346041
1.7517106549364614
1.7204301075268815
1.6901270772238517
1.6598240469208212
1.6265884652981428
1.5913978494623655
1.5562072336265884
1.521016617790811
1.4926686217008798
1.4701857282502444
1.4437927663734116
1.4115347018572826
1.3763440860215057
1.3391984359726294
1.300097751710655
1.2570869990224829
1.217008797653959
1.1808406647116323
1.147605083088954
1.1202346041055715
1.104594330400782
1.0987292277614855
1.0957966764418376
1.093841642228739
1.0928641251221896
1.088954056695992
1.0791788856304985
1.0703812316715542
1.067448680351906
1.0772238514173995
1.115347018572825
1.1915933528836755
1.289345063538612
1.41544477028348
1.587487781036168
1.7917888563049853
2.010752688172043
2.2238514173998043
2.418377321603128
2.58455522971652
2.719452590420332
2.8240469208211145
2.897360703812317
2.945259042033236
2.9745845552297165
2.9872922776148583
2.9902248289345064
2.992179863147605
2.989247311827957
2.979472140762464
2.9687194525904204
2.959921798631476
2.948191593352884
2.930596285434995
2.90811339198436
2.8797653958944283
2.8426197458455524
2.80058651026393
2.7546432062561097
2.6989247311827955
2.633431085043988
2.5562072336265884
2.466275659824047
2.3655913978494625
2.257086999022483
2.1436950146627565
2.0303030303030303
1.921798631476051
1.8211143695014664
1.729227761485826
1.6578690127077225
1.603128054740958
1.552297165200391
1.5083088954056696
1.469208211143695
1.4320625610948192
1.3958944281524928
1.3626588465298142
1.3304007820136852
1.3010752688172045
1.2746823069403714
1.252199413489736
1.2394916911045943
1.23069403714565
1.2189638318670577
1.2052785923753666
1.1906158357771262
1.1759530791788857
1.1612903225806452
1.1456500488758554
1.1300097751710656
1.1163245356793745
1.1085043988269794
1.104594330400782
1.1026392961876832
1.104594330400782
1.1133919843597262
1.126099706744868
1.1378299120234605
1.1495601173020529
1.1593352883675463
1.164222873900293
1.166177908113392
1.163245356793744
1.1544477028347997
1.144672531769306
1.1397849462365592
1.144672531769306
1.1622678396871946
1.2023460410557183
1.2756598240469208
1.3870967741935485
1.5366568914956011
1.718475073313783
1.9227761485826005
2.1378299120234603
2.3489736070381237
2.5405669599217986
2.7038123167155423
2.83088954056696
2.9159335288367547
2.9716520039100685
3.0146627565982405
3.04594330400782
3.065493646138808
3.075268817204301
3.080156402737048
3.083088954056696
3.0840664711632453
3.085043988269794
3.085043988269794
3.081133919843597
3.069403714565005
3.0547409579667644
3.035190615835777
3.0087976539589443
2.9716520039100685
2.924731182795699
2.8670576735092865
2.7996089931573804
2.724340175953079
2.6402737047898337
2.5562072336265884
2.4750733137829912
2.398826979472141
2.333333333333333
2.2795698924731185
2.2297165200391005
2.185728250244379
2.150537634408602
2.12316715542522
2.101661779081134
2.083088954056696
2.0664711632453567
2.050830889540567
2.035190615835777
2.021505376344086
2.0127077223851417
2.004887585532747
1.9951124144672527
1.9843597262952104
1.9736070381231672
1.9618768328445748
1.949169110459433
1.932551319648094
1.916911045943304
1.9012707722385145
1.881720430107527
1.865102639296188
1.8484848484848484
1.8347996089931573
1.8240469208211143
1.8103616813294232
1.796676441837732
1.7820136852394917
1.7663734115347018
1.7517106549364614
1.7360703812316716
1.7204301075268815
1.6881720430107527
1.6480938416422288
1.6177908113391983
1.595307917888563
1.5747800586510263
1.5513196480938416
1.5317693059628543
1.525904203323558
1.543499511241447
1.5943304007820136
1.6842619745845553
1.812316715542522
1.970674486803519
2.1485826001955037
2.334310850439883
2.512218963831867
2.6529814271749754
2.760508308895406
2.8563049853372435
2.932551319648094
2.988269794721408
3.0234604105571847
3.043010752688172
3.048875855327468
3.0439882697947214
3.034213098729228
3.021505376344086
3.007820136852395
2.991202346041056
2.973607038123167
2.956989247311828
2.941348973607038
2.9237536656891496
2.9042033235581624
2.878787878787879
2.843597262952102
2.795698924731183
2.736070381231672
2.6637341153470184
2.578690127077224
2.4809384164222874
2.389051808406647
2.3010752688172045
2.207233626588465
2.115347018572825
2.027370478983382
1.948191593352884
1.87683284457478
1.812316715542522
1.7556207233626588
1.70772238514174
1.6686217008797657
1.6344086021505375
1.6080156402737047
1.5865102639296187
1.563049853372434
1.5395894428152492
1.520039100684262
1.501466275659824
1.4819159335288368
1.4633431085043989
1.4428152492668622
1.4222873900293256
1.4027370478983383
1.3812316715542523
1.359726295210166
1.343108504398827
1.3294232649071358
1.310850439882698
1.2864125122189638
1.2609970674486803
1.238514173998045
1.2160312805474096
1.195503421309873
1.1779081133919844
1.1612903225806452
1.1456500488758554
1.1300097751710656
1.1202346041055715
1.1114369501466277
1.093841642228739
1.0694037145650048
1.0420332355816226
1.0175953079178883
1.0039100684261977
1.007820136852395
1.0420332355816226
1.1143695014662756
1.227761485826002
1.3851417399804498
1.547409579667644
1.7135874877810362
1.9042033235581624
2.0987292277614857
2.280547409579668
2.439882697947214
2.572825024437928
2.677419354838709
2.7536656891495603
2.807429130009776
2.8396871945259043
2.8563049853372435
2.8641251221896384
2.866080156402737
2.866080156402737
2.8641251221896384
2.8611925708699903
2.857282502443793
2.8514173998044967
2.8426197458455524
2.8289345063538613
2.807429130009776
2.774193548387097
2.7282502443792764
2.673509286412512
2.6177908113391983
2.557184750733138
2.4858260019550342
2.404692082111437
2.314760508308896
2.2238514173998043
2.1388074291300097
2.058651026392962
1.986314760508309
1.9257086999022484
1.8758553274682308
1.8377321603128052
1.8093841642228736
1.7917888563049853
1.7810361681329423
1.7741935483870968
1.772238514173998
1.7712609970674489
1.76930596285435
1.7663734115347018
1.7605083088954057
1.7517106549364614
1.739980449657869
1.726295210166178
1.7145650048875856
1.7067448680351909
1.7028347996089932
1.696969696969697
1.6881720430107527
1.6803519061583578
1.6705767350928642
1.6598240469208212
1.651026392961877
1.6441837732160314
1.6412512218963833
1.6392961876832846
1.6363636363636365
1.6314760508308896
1.6265884652981428
1.624633431085044
1.6236559139784943
1.6226783968719452
1.6226783968719452
1.6226783968719452
1.624633431085044
1.6275659824046922
1.6285434995112416
1.629521016617791
1.6314760508308896
1.640273704789834
1.6578690127077225
1.6911045943304008
1.7556207233626588
1.8592375366568916
2.003910068426197
2.1837732160312804
2.3900293255131966
2.6070381231671558
2.8152492668621703
3.002932551319648
3.161290322580645
3.2825024437927666
3.367546432062561
3.41544477028348
3.434017595307918
3.4379276637341154
3.432062561094819
3.421309872922776
3.4086021505376345
3.391006842619746
3.3704789833822093
3.350928641251222
3.329423264907136
3.30791788856305
3.281524926686217
3.247311827956989
3.204301075268817
3.1485826001955037
3.0791788856304985
2.995112414467253
2.898338220918866
2.7947214076246336
2.689149560117302
2.5855327468230693
2.487781036168133
2.401759530791789
2.324535679374389
2.257086999022483
2.206256109481916
2.164222873900293
2.120234604105572
2.075268817204301
2.032258064516129
1.992179863147605
1.9530791788856303
1.9149560117302051
1.87683284457478
1.8387096774193548
1.8005865102639296
1.7605083088954057
1.7272727272727273
1.6989247311827955
1.667644183773216
1.6373411534701858
1.607038123167155
1.576735092864125
1.5464320625610948
1.5161290322580645
1.487781036168133
1.4623655913978495
1.435972629521017
1.409579667644184
1.3851417399804498
1.367546432062561
1.3528836754643203
1.3343108504398826
1.313782991202346
1.295210166177908
1.2825024437927663
1.2727272727272727
1.2639296187683284
1.2551319648093842
1.2473118279569892
1.2394916911045943
1.2297165200391007
1.224828934506354
1.2267839687194526
1.227761485826002
1.2355816226783969
1.2658846529814272
1.332355816226784
1.4418377321603129
1.5923753665689149
1.780058651026393
1.991202346041056
2.210166177908113
2.4222873900293256
2.610948191593353
2.752688172043011
2.860215053763441
2.95405669599218
2.9237536656891496
2.819159335288368
2.771260997067449
2.747800586510264
2.7331378299120237
2.7223851417399803
2.713587487781036
2.704789833822092
2.6940371456500487
2.681329423264907
2.667644183773216
2.6510263929618767
2.63049853372434
2.6050830889540566
2.572825024437928
2.535679374389052
2.49266862170088
2.439882697947214
2.377321603128055
2.304985337243402
2.2248289345063537
2.1388074291300097
2.060606060606061
1.9872922776148585
1.90811339198436
1.828934506353861
1.7546432062561097
1.6852394916911049
1.6236559139784943
1.5708699902248289
1.5268817204301075
1.487781036168133
1.4545454545454546
1.8054740957966764
1.9159335288367547
2.022482893450636
2.126099706744868
2.2277614858260018
2.326490713587488
2.419354838709677
2.504398826979472
2.56891495601173
2.618768328445748
2.668621700879765
2.710654936461388
2.740957966764418
2.757575757575758
2.760508308895406
2.7145650048875853
2.644183773216031
2.5962854349951123
2.558162267839687
2.5219941348973607
2.487781036168133
2.453567937438905
2.41544477028348
2.375366568914956
2.334310850439883
2.2932551319648096
2.2531769305962857
2.2140762463343107
2.176930596285435
2.1417399804496577
2.10850439882698
2.0772238514174
2.046920821114369
2.021505376344086
1.9990224828934504
1.975562072336266
1.9521016617790807
1.9305962854349952
1.9120234604105573
1.8983382209188664
1.889540566959922
1.884652981427175
1.878787878787879
1.869012707722385
1.8514173998044965
1.8299120234604105
1.804496578690127
1.76930596285435
1.7302052785923754
1.694037145650049
1.6656891495601174
1.6480938416422288
1.640273704789834
1.640273704789834
1.6451612903225807
1.6529814271749756
1.6608015640273706
1.6686217008797657
1.675464320625611
1.6823069403714566
1.6881720430107527
1.6930596285434996
1.6959921798631477
1.6959921798631477
1.6930596285434996
1.6871945259042034
1.6803519061583578
1.6744868035190617
1.6744868035190617
1.6823069403714566
1.6979472140762464
1.7233626588465298
1.7624633431085044
1.8142717497556209
1.8748778103616808
1.9413489736070384
2.010752688172043
2.081133919843597
2.1495601173020527
2.2140762463343107
2.274682306940372
2.329423264907136
2.372434017595308
2.407624633431085
2.441837732160313
2.4731182795698925
2.501466275659824
2.525904203323558
2.5464320625610948
2.563049853372434
2.576735092864125
2.5865102639296187
2.592375366568915
2.595307917888563
2.595307917888563
2.590420332355816
2.582600195503421
2.573802541544477
2.5610948191593352
2.5454545454545454
2.5268817204301075
2.506353861192571
2.482893450635386
2.4574780058651027
2.432062561094819
2.406647116324536
2.3812316715542523
2.358748778103617
2.337243401759531
2.314760508308896
2.29227761485826
2.269794721407625
2.24633431085044
2.222873900293255
2.19941348973607
2.175953079178885
2.15347018572825
2.132942326490713
2.114369501466276
2.096774193548387
2.083088954056696
2.071358748778104
2.059628543499511
2.048875855327468
2.0391006842619745
2.0303030303030303
2.021505376344086
2.0117302052785924
2.0019550342130987
1.991202346041056
1.978494623655914
1.964809384164223
1.9521016617790807
1.93841642228739
1.9227761485826005
1.9042033235581624
1.884652981427175
1.8641251221896384
1.844574780058651
1.825024437927664
1.8074291300097751
1.790811339198436
1.775171065493646
1.7605083088954057
1.7468230694037146
1.7380254154447703
1.732160312805474
1.729227761485826
1.7341153470185728
1.7487781036168133
1.775171065493646
1.8113391984359728
1.857282502443793
1.9090909090909087
1.963831867057673
2.018572825024438
2.072336265884653
2.117302052785924
2.155425219941349
2.1955034213098727
2.2346041055718477
2.271749755620724
2.3059628543499517
2.337243401759531
2.366568914956012
2.393939393939394
2.418377321603128
2.4408602150537635
2.4604105571847508
2.4760508308895406
2.4858260019550342
2.490713587487781
2.4946236559139785
2.496578690127077
2.493646138807429
2.486803519061584
2.474095796676442
2.4565004887585533
2.4330400782013686
2.404692082111437
2.372434017595308
2.3382209188660803
2.3059628543499517
2.275659824046921
2.243401759530792
2.2111436950146626
2.1808406647116323
2.15347018572825
2.1280547409579667
2.1065493646138806
2.0879765395894427
2.070381231671554
2.0547409579667644
2.040078201368524
2.024437927663734
2.0117302052785924
2.0
1.9853372434017595
1.9696969696969695
1.9521016617790807
1.9335288367546437
1.9149560117302051
1.895405669599218
1.8748778103616808
1.8533724340175952
1.8328445747800584
1.8113391984359728
1.793743890518084
1.7790811339198436
1.761485826001955
1.7448680351906158
1.7282502443792769
1.7116324535679377
1.696969696969697
1.683284457478006
1.6705767350928642
1.6588465298142718
1.6471163245356797
1.6363636363636365
1.6256109481915937
1.6177908113391983
1.6109481915933528
1.6011730205278591
1.5894428152492668
1.5757575757575757
1.560117302052786
1.544477028347996
1.5298142717497556
1.5180840664711632
1.5131964809384164
1.5180840664711632
1.5347018572825024
1.5591397849462365
1.5923753665689149
1.6383186705767352
1.6950146627565983
1.7575757575757576
1.822091886608016
1.8856304985337244
1.946236559139785
2.0009775171065494
2.047898338220919
2.086021505376344
2.115347018572825
2.136852394916911
2.1495601173020527
2.156402737047898
2.160312805474096
2.160312805474096
2.158357771260997
2.15347018572825
2.145650048875855
2.1358748778103616
2.1251221896383186
2.112414467253177
2.0987292277614857
2.083088954056696
2.067448680351906
2.0518084066471163
2.0332355816226784
2.0127077223851417
1.989247311827957
1.962854349951124
1.9335288367546437
1.9012707722385145
1.8670576735092863
1.8318670576735088
1.7976539589442817
1.7644183773216031
1.737047898338221
1.7145650048875856
1.598240469208211
1.4330400782013686
1.3391984359726294
1.2864125122189638
1.2590420332355816
1.24633431085044
1.2453567937438903
1.249266862170088
1.2561094819159335
1.262952101661779
1.267839687194526
1.2717497556207231
1.2746823069403714
1.2727272727272727
1.2668621700879763
1.2580645161290325
1.2482893450635386
1.2375366568914956
1.2267839687194526
1.2160312805474096
1.206256109481916
1.1974584555229717
1.1896383186705768
1.1867057673509287
1.1857282502443791
1.1837732160312806
1.1808406647116323
1.1798631476050832
1.1788856304985338
1.1798631476050832
1.181818181818182
1.1827956989247312
1.1837732160312806
1.1837732160312806
1.1837732160312806
1.18475073313783
1.1886608015640274
1.1974584555229717
1.2101661779081134
1.2336265884652982
1.273704789833822
1.332355816226784
1.4115347018572826
1.509286412512219
1.6226783968719452
1.7458455522971652
1.873900293255132
2.0009775171065494
2.10752688172043
2.20039100684262
2.2952101661779083
2.3841642228739004
2.4652981427174976
2.5386119257087
2.603128054740958
2.659824046920821
2.708699902248289
2.750733137829912
2.7869012707722387
2.81622678396872
2.8396871945259043
2.8514173998044967
2.854349951124145
2.8533724340175954
2.844574780058651
2.825024437927664
2.793743890518084
2.7497556207233624
2.695014662756598
2.6285434995112413
2.5542521994134897
2.474095796676442
2.3900293255131966
2.313782991202346
2.241446725317693
2.163245356793744
2.083088954056696
2.004887585532747
1.9286412512218964
1.855327468230694
1.7849462365591398
1.7174975562072337
1.6529814271749756
1.590420332355816
1.5317693059628543
1.47702834799609
1.434017595307918
1.3988269794721409
1.3626588465298142
1.3264907135874875
1.2903225806451613
1.2551319648093842
1.2209188660801564
1.187683284457478
1.155425219941349
1.1251221896383188
1.0957966764418376
1.0694037145650048
1.0518084066471165
1.040078201368524
1.0283479960899315
1.018572825024438
1.0146627565982405
1.0166177908113392
1.0263929618768328
1.0439882697947214
1.0684261974584557
1.0977517106549364
1.130987292277615
1.1652003910068427
1.198435972629521
1.227761485826002
1.2512218963831867
1.267839687194526
1.2766373411534702
1.2766373411534702
1.270772238514174
1.262952101661779
1.260019550342131
1.2668621700879763
1.2903225806451613
1.3333333333333333
1.396871945259042
1.4652981427174976
1.541544477028348
1.635386119257087
1.7380254154447703
1.8406647116324533
1.93841642228739
2.0283479960899315
2.10850439882698
2.176930596285435
2.2346041055718477
2.280547409579668
2.315738025415445
2.3421309872922778
2.357771260997068
2.366568914956012
2.3743890518084068
2.380254154447703
2.3841642228739004
2.386119257086999
2.3851417399804498
2.378299120234604
2.366568914956012
2.3489736070381237
2.326490713587488
2.300097751710655
2.2737047898338223
2.247311827956989
2.218963831867057
2.190615835777126
2.163245356793744
2.1358748778103616
2.1094819159335287
2.085043988269794
2.0635386119257086
2.0439882697947214
2.026392961876833
2.010752688172043
1.9960899315738023
1.9843597262952104
1.9716520039100685
1.9579667644183771
1.9423264907135875
1.9257086999022484
1.90811339198436
1.889540566959922
1.871945259042033
1.8563049853372435
1.8406647116324533
1.825024437927664
1.8093841642228736
1.7956989247311828
1.7820136852394917
1.7653958944281525
1.7448680351906158
1.7223851417399805
1.6979472140762464
1.672531769305963
1.6451612903225807
1.6187683284457477
1.5943304007820136
1.5708699902248289
1.5493646138807429
1.5298142717497556
1.5161290322580645
1.5053763440860215
1.4936461388074291
1.4809384164222874
1.469208211143695
1.457478005865103
1.4467253176930597
1.435972629521017
1.4252199413489737
1.4134897360703813
1.4007820136852396
1.388074291300098
1.3792766373411536
1.375366568914956
1.3773216031280548
1.3919843597262953
1.426197458455523
1.482893450635386
1.564027370478983
1.6686217008797657
1.7927663734115349
1.9286412512218964
2.069403714565005
2.2082111436950145
2.3391984359726297
2.443792766373412
2.529814271749756
2.6148582600195502
2.6940371456500487
2.764418377321604
2.8260019550342133
2.8797653958944283
2.9266862170087977
2.9657869012707723
2.99902248289345
3.026392961876833
3.047898338220919
3.058651026392962
3.06158357771261
3.0635386119257086
3.0625610948191597
3.056695992179863
3.043010752688172
