ppg
1.078201368523949
1.241446725317693
1.4193548387096775
1.598240469208211
1.76930596285435
1.924731182795699
2.058651026392962
2.1700879765395893
2.249266862170088
2.304985337243402
2.3528836754643208
2.3900293255131966
2.410557184750733
2.4134897360703813
2.3978494623655915
2.364613880742913
2.317693059628544
2.259042033235582
2.190615835777126
2.115347018572825
2.0449657869012707
1.9775171065493649
1.905180840664712
1.833822091886608
1.7644183773216031
1.6979472140762464
1.6363636363636365
1.5786901270772238
1.5268817204301075
1.478983382209189
1.4349951124144673
1.3949169110459434
1.3577712609970674
1.3294232649071358
1.3049853372434017
1.2795698924731185
1.2541544477028348
1.2297165200391007
1.2072336265884651
1.1867057673509287
1.166177908113392
1.1456500488758554
1.1251221896383188
1.1055718475073313
1.0879765395894427
1.078201368523949
1.0713587487781036
1.0635386119257086
1.0557184750733135
1.0488758553274682
1.0410557184750733
1.029325513196481
1.013685239491691
0.9931573802541545
0.9706744868035192
0.9452590420332356
0.916911045943304
0.8895405669599218
0.8709677419354839
0.8572825024437928
0.8435972629521017
0.8347996089931574
0.8406647116324536
0.8690127077223851
0.9257086999022482
1.0156402737047898
1.1378299120234605
1.284457478005865
1.4428152492668622
1.6050830889540566
1.7438905180840665
1.8592375366568916
1.9696969696969695
2.065493646138808
2.1388074291300097
2.190615835777126
2.222873900293255
2.2385141739980448
2.2375366568914954
2.219941348973607
2.187683284457478
2.1417399804496577
2.083088954056696
2.0254154447702835
1.9667644183773216
1.8973607038123168
1.822091886608016
1.7468230694037146
1.675464320625611
1.608993157380254
1.5464320625610948
1.4887585532746823
1.434017595307918
1.380254154447703
1.3284457478005864
1.284457478005865
1.24633431085044
1.206256109481916
1.166177908113392
1.1270772238514175
1.0928641251221896
1.0654936461388074
1.0449657869012707
1.0312805474095796
1.024437927663734
1.0234604105571847
1.0224828934506354
1.0224828934506354
1.0273704789833822
1.035190615835777
1.0410557184750733
1.04594330400782
1.0478983382209188
1.0488758553274682
1.0498533724340176
1.0498533724340176
1.050830889540567
1.0527859237536656
1.056695992179863
1.0635386119257086
1.0733137829912025
1.0840664711632453
1.0928641251221896
1.0987292277614855
1.1016617790811338
1.1016617790811338
1.1006842619745845
1.1016617790811338
1.1094819159335287
1.1319648093841643
1.1798631476050832
1.260019550342131
1.3724340175953078
1.490713587487781
1.6217008797653958
1.7839687194525904
1.9618768328445748
2.1388074291300097
2.304007820136853
2.447702834799609
2.567937438905181
2.6637341153470184
2.7341153470185726
2.780058651026393
2.8025415444770285
2.803519061583578
2.788856304985337
2.763440860215054
2.7223851417399803
2.668621700879765
2.6041055718475072
2.5317693059628543
2.452590420332356
2.3704789833822093
2.289345063538612
2.210166177908113
2.133919843597263
2.06158357771261
2.0009775171065494
1.948191593352884
1.895405669599218
1.8435972629521016
1.7927663734115349
1.7438905180840665
1.696969696969697
1.651026392961877
1.6050830889540566
1.5610948191593352
1.5190615835777126
1.478005865102639
1.4437927663734116
1.412512218963832
1.3782991202346042
1.3450635386119256
1.3147605083088951
1.2864125122189638
1.2619745845552297
1.2443792766373412
1.2316715542521994
1.2218963831867058
1.2150537634408602
1.2101661779081134
1.206256109481916
1.2043010752688172
1.2023460410557183
1.1964809384164223
1.1886608015640274
1.1779081133919844
1.164222873900293
1.144672531769306
1.1173020527859236
1.0811339198435972
1.0371456500488758
0.9872922776148584
0.9374389051808406
0.9012707722385142
0.8807429130009775
0.8748778103616813
0.8973607038123167
0.95405669599218
1.04594330400782
1.1710654936461389
1.321603128054741
1.4868035190615836
1.656891495601173
1.8211143695014664
1.9696969696969695
2.096774193548387
2.188660801564027
2.2521994134897363
2.302052785923754
2.335288367546432
2.3528836754643208
2.3548387096774195
2.340175953079179
2.313782991202346
2.278592375366569
2.233626588465298
2.1808406647116323
2.12316715542522
2.067448680351906
2.013685239491691
1.95405669599218
1.8934506353861196
1.8328445747800584
1.772238514173998
1.7135874877810362
1.6578690127077225
1.606060606060606
1.5591397849462365
1.5151515151515151
1.4750733137829912
1.4379276637341154
1.409579667644184
1.3870967741935485
1.3636363636363635
1.343108504398827
1.392961876832845
1.47702834799609
1.5112414467253177
1.5190615835777126
1.512218963831867
1.498533724340176
1.4819159335288368
1.4643206256109482
1.4506353861192571
1.4389051808406648
1.4242424242424243
1.4076246334310851
1.3919843597262953
1.3792766373411536
1.3685239491691104
1.3587487781036167
1.348973607038123
1.3401759530791788
1.3333333333333333
1.3294232649071358
1.3294232649071358
1.3304007820136852
1.3284457478005864
1.324535679374389
1.3186705767350928
1.3157380254154447
1.321603128054741
1.3421309872922775
1.3851417399804498
1.457478005865103
1.5591397849462365
1.6881720430107527
1.8377321603128052
1.975562072336266
2.10752688172043
2.254154447702835
2.3978494623655915
2.530791788856305
2.6471163245356792
2.7438905180840663
2.822091886608016
2.8826979472140764
2.9257086999022484
2.95405669599218
2.970674486803519
2.973607038123167
2.963831867057673
2.948191593352884
2.9257086999022484
2.89345063538612
2.852394916911046
2.803519061583578
2.748778103616813
2.69208211143695
2.635386119257087
2.579667644183773
2.525904203323558
2.4731182795698925
2.426197458455523
2.3822091886608017
2.3391984359726297
2.2991202346041058
2.260997067448681
2.225806451612903
2.1925708699902247
2.163245356793744
2.136852394916911
2.112414467253177
2.0879765395894427
2.064516129032258
2.0439882697947214
2.026392961876833
2.0087976539589443
1.989247311827957
1.967741935483871
1.945259042033236
1.9227761485826005
1.9012707722385145
1.8797653958944285
1.857282502443793
1.833822091886608
1.8103616813294232
1.7878787878787878
1.7712609970674489
1.7565982404692082
1.739980449657869
1.7223851417399805
1.7018572825024438
1.6774193548387095
1.6529814271749756
1.6285434995112416
1.6050830889540566
1.5835777126099706
1.5718475073313782
1.5777126099706744
1.598240469208211
1.640273704789834
1.7165200391006843
1.823069403714565
1.9560117302052784
2.1094819159335287
2.2737047898338223
2.4349951124144678
2.5855327468230693
2.718475073313783
2.831867057673509
2.9237536656891496
2.9931573802541545
3.037145650048876
3.0625610948191597
3.0772238514174
3.0791788856304985
3.0684261974584555
3.0449657869012707
3.0087976539589443
2.961876832844575
2.906158357771261
2.844574780058651
2.7781036168132944
2.710654936461388
2.650048875855328
2.593352883675464
2.532746823069404
2.472140762463343
2.412512218963832
2.3548387096774195
2.297165200391007
2.241446725317693
2.187683284457478
2.136852394916911
2.089931573802541
2.0449657869012707
2.0
1.962854349951124
1.9315738025415443
1.8973607038123168
1.8602150537634408
1.823069403714565
1.7849462365591398
1.747800586510264
1.7096774193548387
1.672531769305963
1.6334310850439884
1.595307917888563
1.560117302052786
1.5317693059628543
1.5083088954056696
1.4838709677419355
1.4604105571847508
1.439882697947214
1.4173998044965788
1.392961876832845
1.3695014662756595
1.346041055718475
1.3225806451612905
1.2971652003910068
1.2697947214076246
1.2424242424242424
1.2209188660801564
1.2043010752688172
1.187683284457478
1.1788856304985338
1.18475073313783
1.2140762463343109
1.2717497556207231
1.3607038123167154
1.478005865102639
1.6177908113391983
1.76930596285435
1.9227761485826005
2.0527859237536656
2.164222873900293
2.2737047898338223
2.3704789833822093
2.450635386119257
2.515151515151515
2.5640273704789838
2.595307917888563
2.608993157380254
2.6070381231671558
2.590420332355816
2.5591397849462365
2.5141739980449658
2.4652981427174976
2.4115347018572826
2.347018572825025
2.278592375366569
2.209188660801564
2.142717497556207
2.081133919843597
2.021505376344086
1.9657869012707725
1.9120234604105573
1.8592375366568916
1.8093841642228736
1.7702834799608993
1.7380254154447703
1.7028347996089932
1.667644183773216
1.6344086021505375
1.6041055718475072
1.5747800586510263
1.5454545454545454
1.5180840664711632
1.487781036168133
1.4623655913978495
1.4437927663734116
1.4242424242424243
1.409579667644184
1.3978494623655917
1.3822091886608017
1.367546432062561
1.3558162267839686
1.346041055718475
1.3391984359726294
1.3343108504398826
1.3304007820136852
1.327468230694037
1.3264907135874875
1.324535679374389
1.3255131964809383
1.3284457478005864
1.327468230694037
1.324535679374389
1.3206256109481915
1.316715542521994
1.3147605083088951
1.3196480938416422
1.3372434017595307
1.375366568914956
1.4379276637341154
1.525904203323558
1.6392961876832846
1.75366568914956
1.869012707722385
2.0019550342130987
2.1388074291300097
2.2688172043010755
2.3851417399804498
2.4819159335288368
2.558162267839687
2.6148582600195502
2.6529814271749754
2.673509286412512
2.678396871945259
2.6715542521994133
2.654936461388074
2.63049853372434
2.5962854349951123
2.552297165200391
2.5004887585532747
2.442815249266862
2.3812316715542523
2.317693059628544
2.254154447702835
2.1915933528836757
2.099706744868035
2.0009775171065494
1.9335288367546437
1.8758553274682308
1.826001955034213
1.7849462365591398
1.7487781036168133
1.7165200391006843
1.6871945259042034
1.6588465298142718
1.632453567937439
1.606060606060606
1.5786901270772238
1.5503421309872922
1.525904203323558
1.5063538611925709
1.4887585532746823
1.4711632453567938
1.4535679374389052
1.436950146627566
1.4193548387096775
1.4027370478983383
1.3841642228739004
1.3665689149560116
1.348973607038123
1.3333333333333333
1.3225806451612905
1.3128054740957966
1.300097751710655
1.2864125122189638
1.2697947214076246
1.252199413489736
1.2336265884652982
1.2121212121212122
1.187683284457478
1.1652003910068427
1.144672531769306
1.130987292277615
1.1300097751710656
1.144672531769306
1.176930596285435
1.2355816226783969
1.3235581622678396
1.4389051808406648
1.5718475073313782
1.7116324535679377
1.8514173998044965
1.9804496578690127
2.09188660801564
2.1818181818181817
2.251221896383187
2.2961876832844577
2.32355816226784
2.3411534701857284
2.346041055718475
2.3391984359726297
2.320625610948192
2.29227761485826
2.2551319648093844
2.209188660801564
2.158357771260997
2.103616813294233
2.0449657869012707
1.9872922776148585
1.9393939393939397
1.8944281524926687
1.847507331378299
1.8025415444770283
1.758553274682307
1.7145650048875856
1.6715542521994136
1.6314760508308896
1.5943304007820136
1.5591397849462365
1.525904203323558
1.495601173020528
1.4682306940371457
1.4486803519061584
1.434017595307918
1.4173998044965788
1.3978494623655917
1.3782991202346042
1.3587487781036167
1.33822091886608
1.3186705767350928
1.3020527859237536
1.2854349951124144
1.2697947214076246
1.2541544477028348
1.241446725317693
1.2326490713587488
1.2209188660801564
1.2072336265884651
1.1945259042033236
1.181818181818182
1.1700879765395895
1.1593352883675463
1.1466275659824048
1.1329423264907137
1.1192570869990224
1.1036168132942326
1.0909090909090908
1.0801564027370478
1.067448680351906
1.0606060606060606
1.0684261974584557
1.096774193548387
1.1495601173020529
1.2287390029325511
1.3313782991202343
1.4535679374389052
1.585532746823069
1.7194525904203324
1.8494623655913975
1.95405669599218
2.037145650048876
2.1114369501466275
2.1700879765395893
2.2130987292277613
2.2404692082111435
2.2531769305962857
2.2521994134897363
2.239491691104594
2.2170087976539588
2.1867057673509285
2.1485826001955037
2.1094819159335287
2.069403714565005
2.022482893450636
1.9716520039100685
1.916911045943304
1.8621700879765395
1.812316715542522
1.7653958944281525
1.7223851417399805
1.6842619745845553
1.6490713587487782
1.616813294232649
1.5865102639296187
1.5610948191593352
1.5376344086021505
1.5102639296187683
1.482893450635386
1.457478005865103
1.434017595307918
1.412512218963832
1.392961876832845
1.3743890518084063
1.356793743890518
1.3421309872922775
1.3284457478005864
1.3186705767350928
1.3128054740957966
1.3040078201368523
1.29227761485826
1.278592375366569
1.2649071358748778
1.249266862170088
1.2316715542521994
1.2140762463343109
1.1964809384164223
1.1798631476050832
1.164222873900293
1.1495601173020529
1.1397849462365592
1.1319648093841643
1.121212121212121
1.10752688172043
1.0909090909090908
1.075268817204301
1.064516129032258
1.0664711632453567
1.0899315738025417
1.1378299120234605
1.2111436950146628
1.310850439882698
1.4134897360703813
1.521994134897361
1.6480938416422288
1.7771260997067448
1.9012707722385145
2.0117302052785924
2.103616813294233
2.174975562072336
2.2277614858260018
2.2639296187683287
2.2844574780058653
2.29227761485826
2.289345063538612
2.27761485826002
2.260019550342131
2.232649071358749
2.1955034213098727
2.1515151515151514
2.102639296187683
2.0518084066471163
2.0009775171065494
1.951124144672532
1.9012707722385145
1.8523949169110456
1.8054740957966764
1.7663734115347018
1.7302052785923754
1.6920821114369502
1.6480938416422288
1.611925708699902
1.587487781036168
1.564027370478983
1.542521994134897
1.521994134897361
1.5034213098729228
1.4848484848484849
1.4643206256109482
1.4496578690127078
1.435972629521017
1.4164222873900294
1.396871945259042
1.380254154447703
1.3636363636363635
1.3479960899315735
1.3333333333333333
1.3206256109481915
1.3079178885630498
1.295210166177908
1.284457478005865
1.273704789833822
1.2668621700879763
1.2609970674486803
1.2512218963831867
1.2375366568914956
1.2209188660801564
1.203323558162268
1.1837732160312806
2.7751710654936463
2.773216031280548
2.7331378299120237
2.670576735092864
2.5972629521016617
2.5288367546432062
2.458455522971652
2.378299120234604
2.2991202346041058
2.2218963831867056
2.147605083088954
2.078201368523949
2.0117302052785924
1.9472140762463344
1.8905180840664717
1.8406647116324533
1.793743890518084
1.750733137829912
1.7165200391006843
1.6881720430107527
1.6578690127077225
1.6256109481915937
1.5913978494623655
1.5562072336265884
1.884652981427175
1.858260019550342
1.8328445747800584
1.8113391984359728
1.7947214076246334
1.7761485826001957
1.7565982404692082
1.739980449657869
1.7243401759530792
1.7086999022482894
1.6920821114369502
1.675464320625611
1.6578690127077225
1.6383186705767352
1.6187683284457477
1.6050830889540566
1.5962854349951123
1.585532746823069
1.573802541544477
1.5610948191593352
1.5464320625610948
1.5327468230694037
1.5190615835777126
1.504398826979472
1.4887585532746823
1.4731182795698925
1.4545454545454546
1.435972629521017
1.423264907135875
1.414467253176931
1.4076246334310851
1.4076246334310851
1.4242424242424243
1.4633431085043989
1.5268817204301075
1.6158357771260996
1.7253176930596286
1.8514173998044965
1.9853372434017595
2.118279569892473
2.2297165200391005
2.324535679374389
2.4164222873900294
2.4975562072336266
2.5640273704789838
2.6148582600195502
2.650048875855328
2.670576735092864
2.678396871945259
2.67644183773216
2.665689149560117
2.64613880742913
2.6177908113391983
2.58455522971652
2.5454545454545454
2.498533724340176
2.4457478005865103
2.3900293255131966
2.334310850439883
2.2825024437927666
2.232649071358749
2.185728250244379
2.1417399804496577
2.101661779081134
2.064516129032258
2.0332355816226784
2.006842619745845
1.9794721407624636
1.9521016617790807
1.9257086999022484
1.9012707722385145
1.8778103616813293
1.857282502443793
1.8387096774193548
1.8211143695014664
1.8035190615835777
1.7859237536656891
1.7663734115347018
1.7497556207233629
1.7360703812316716
1.721407624633431
1.704789833822092
1.689149560117302
1.6744868035190617
1.6578690127077225
1.640273704789834
1.6217008797653958
1.6041055718475072
1.5865102639296187
1.5698924731182795
1.5571847507331378
1.5464320625610948
1.5327468230694037
1.517106549364614
1.500488758553275
1.4848484848484849
1.4711632453567938
1.458455522971652
1.452590420332356
1.457478005865103
1.478005865102639
1.521016617790811
1.590420332355816
1.6695992179863148
1.7595307917888563
1.8748778103616808
2.003910068426197
2.134897360703812
2.260019550342131
2.3743890518084068
2.4750733137829912
2.558162267839687
2.624633431085044
2.675464320625611
2.7126099706744866
2.735092864125122
2.744868035190616
2.745845552297165
2.735092864125122
2.713587487781036
2.6823069403714563
2.6392961876832843
2.587487781036168
2.5288367546432062
2.4652981427174976
2.39980449657869
2.334310850439883
2.2688172043010755
2.21505376344086
2.166177908113392
2.110459433040078
2.053763440860215
2.0
1.949169110459433
1.8993157380254155
1.8514173998044965
1.8054740957966764
1.7605083088954057
1.7165200391006843
1.6735092864125125
1.6412512218963833
1.6148582600195502
1.585532746823069
1.5571847507331378
1.5288367546432062
1.499511241446725
1.4721407624633431
1.444770283479961
1.41544477028348
1.3861192570869991
1.356793743890518
1.3284457478005864
1.3020527859237536
1.2834799608993157
1.2688172043010753
1.2502443792766371
1.2287390029325511
1.2043010752688172
1.1788856304985338
1.1534701857282503
1.1300097751710656
1.10752688172043
1.0850439882697946
1.0635386119257086
1.0420332355816226
1.0263929618768328
1.0146627565982405
0.9990224828934506
0.9912023460410556
1.002932551319648
1.040078201368524
1.110459433040078
1.2150537634408602
1.3499511241446724
1.509286412512219
1.6842619745845553
1.8631476050830889
2.0146627565982405
2.1436950146627565
2.270772238514174
2.3841642228739004
2.4789833822091887
2.5542521994134897
2.608993157380254
2.6471163245356792
2.6695992179863146
2.673509286412512
2.66177908113392
2.635386119257087
2.5943304007820136
2.5464320625610948
2.49266862170088
2.4271749755620724
2.3548387096774195
2.278592375366569
2.203323558162268
2.132942326490713
2.0664711632453567
2.006842619745845
1.9521016617790807
1.903225806451613
1.8602150537634408
1.826001955034213
1.7976539589442817
1.7673509286412512
1.7360703812316716
1.7067448680351909
1.6813294232649072
1.6588465298142718
1.6422287390029326
1.6314760508308896
1.6236559139784943
1.616813294232649
1.6109481915933528
1.606060606060606
1.6050830889540566
1.6050830889540566
1.6021505376344083
1.598240469208211
1.5933528836754642
1.5884652981427174
1.585532746823069
1.585532746823069
1.585532746823069
1.585532746823069
1.585532746823069
1.58455522971652
1.5835777126099706
1.581622678396872
1.573802541544477
1.5620723362658846
1.5454545454545454
1.5249266862170088
1.504398826979472
1.490713587487781
1.490713587487781
1.512218963831867
1.5620723362658846
1.6441837732160314
1.7605083088954057
1.8836754643206255
2.016617790811339
2.1808406647116323
2.3597262952101663
2.539589442815249
2.7096774193548385
2.8641251221896384
2.995112414467253
3.102639296187683
3.189638318670577
3.2531769305962857
3.2932551319648096
3.3088954056695994
3.3098729227761488
3.304007820136853
3.2873900293255134
3.257086999022483
3.2130987292277613
3.1593352883675463
3.0957966764418376
3.026392961876833
2.95405669599218
2.8797653958944283
2.807429130009776
2.7370478983382207
2.67644183773216
2.621700879765396
2.5640273704789838
2.509286412512219
2.4604105571847508
2.4144672531769307
2.36950146627566
2.3274682306940373
2.29227761485826
2.2580645161290325
2.2248289345063537
2.1925708699902247
2.164222873900293
2.139784946236559
2.112414467253177
2.0821114369501466
2.050830889540567
2.018572825024438
1.988269794721408
1.959921798631476
1.9315738025415443
1.905180840664712
1.8826979472140764
1.8602150537634408
1.836754643206256
1.8172043010752688
1.7996089931573802
1.7790811339198436
1.758553274682307
1.737047898338221
1.715542521994135
1.6911045943304008
1.6637341153470186
1.6363636363636365
1.6099706744868034
1.5826001955034212
1.5581622678396871
1.543499511241447
1.541544477028348
1.5591397849462365
1.6080156402737047
1.6901270772238517
1.8084066471163245
1.9618768328445748
2.1407624633431084
2.3313782991202348
2.5239491691104594
2.7067448680351904
2.8729227761485827
3.01564027370479
3.118279569892473
3.1915933528836757
3.2551319648093844
3.304985337243402
3.3382209188660803
3.3519061583577714
3.347996089931574
3.329423264907136
3.297165200391007
3.251221896383187
3.1945259042033234
3.129032258064516
3.0635386119257086
2.997067448680352
2.9227761485826003
2.8475073313782997
2.7751710654936463
2.704789833822092
2.638318670576735
2.5747800586510263
2.515151515151515
2.4574780058651027
2.404692082111437
2.357771260997068
2.314760508308896
2.278592375366569
2.2453567937438903
2.210166177908113
2.174975562072336
2.1407624633431084
2.10752688172043
2.074291300097752
2.0410557184750733
2.0087976539589443
1.9775171065493649
1.949169110459433
1.920821114369501
1.8973607038123168
1.8758553274682308
1.8514173998044965
1.8269794721407624
1.804496578690127
1.7820136852394917
1.7595307917888563
1.7380254154447703
1.7145650048875856
1.6911045943304008
1.6666666666666667
1.6422287390029326
1.6177908113391983
1.5972629521016617
1.5786901270772238
1.555229716520039
1.5278592375366569
1.5024437927663734
1.4868035190615836
1.4926686217008798
1.5278592375366569
1.6001955034213098
1.710654936461388
1.857282502443793
2.03128054740958
2.1955034213098727
2.355816226783969
2.5386119257087
2.7233626588465296
2.897360703812317
3.0518084066471163
3.1818181818181817
3.1593352883675463
3.046920821114369
3.002932551319648
2.986314760508309
2.9765395894428157
2.964809384164223
2.946236559139785
2.917888563049853
2.8807429130009776
2.8367546432062563
2.7859237536656893
2.729227761485826
2.670576735092864
2.6099706744868034
2.549364613880743
2.489736070381232
2.4330400782013686
2.3792766373411536
2.334310850439883
2.294232649071359
2.2531769305962857
2.2140762463343107
2.177908113391984
2.1436950146627565
2.1114369501466275
2.0821114369501466
2.050830889540567
2.0195503421309877
1.9902248289345064
1.962854349951124
1.9403714565004888
1.919843597262952
1.8973607038123168
1.8758553274682308
1.855327468230694
1.8347996089931573
1.81524926686217
1.7947214076246334
1.775171065493646
1.7546432062561097
1.7341153470185728
1.7145650048875856
1.6959921798631477
1.6813294232649072
1.6656891495601174
1.64613880742913
1.6256109481915937
1.6050830889540566
1.58455522971652
1.5650048875855327
1.544477028347996
1.525904203323558
1.509286412512219
1.498533724340176
1.498533724340176
1.5112414467253177
1.5405669599217986
1.5972629521016617
1.6842619745845553
1.7976539589442817
1.9335288367546437
2.085043988269794
2.241446725317693
2.3929618768328447
2.533724340175953
2.6578690127077222
2.7653958944281527
2.8533724340175954
2.913000977517106
2.9530791788856305
2.9872922776148583
3.010752688172043
3.022482893450636
3.0205278592375366
3.003910068426197
2.972629521016618
2.929618768328446
2.875855327468231
2.8132942326490715
2.7438905180840663
2.677419354838709
2.6148582600195502
2.550342130987292
2.487781036168133
2.4271749755620724
2.3704789833822093
2.318670576735093
2.271749755620724
2.228739002932551
2.1867057673509285
2.146627565982405
2.110459433040078
2.075268817204301
2.0439882697947214
2.013685239491691
1.9824046920821117
1.9521016617790807
1.9227761485826005
1.8944281524926687
1.868035190615836
1.8455522971652003
1.8240469208211143
1.8025415444770283
1.7790811339198436
1.75366568914956
1.7331378299120237
1.7174975562072337
1.699902248289345
1.6803519061583578
1.66177908113392
1.643206256109482
1.6236559139784943
1.6041055718475072
1.58455522971652
1.564027370478983
1.541544477028348
