ppg
1.1622678396871946
1.1407624633431086
1.1221896383186705
1.110459433040078
1.1026392961876832
1.0918866080156402
1.0791788856304985
1.0635386119257086
1.0469208211143697
1.0303030303030305
1.0146627565982405
0.9990224828934506
0.9843597262952102
0.9706744868035192
0.956989247311828
0.946236559139785
0.9374389051808406
0.9257086999022482
0.9130009775171064
0.8993157380254154
0.8856304985337243
0.8719452590420332
0.8592375366568915
0.8504398826979472
0.8465298142717498
0.8514173998044966
0.8660801564027371
0.8934506353861192
0.9296187683284456
0.9765395894428152
1.0391006842619743
1.1143695014662756
1.1994134897360704
1.2913000977517106
1.4721407624633431
1.699902248289345
1.866080156402737
1.997067448680352
2.104594330400782
2.193548387096774
2.259042033235582
2.30791788856305
2.350928641251222
2.386119257086999
2.412512218963832
2.4301075268817205
2.439882697947214
2.444770283479961
2.444770283479961
2.439882697947214
2.43108504398827
2.4173998044965788
2.3978494623655915
2.376344086021505
2.3519061583577714
2.320625610948192
2.283479960899316
2.241446725317693
2.1974584555229715
2.1524926686217007
2.10850439882698
2.065493646138808
2.024437927663734
1.9853372434017595
1.9501466275659824
1.9237536656891496
1.902248289345064
1.8797653958944285
1.858260019550342
1.8387096774193548
1.818181818181818
1.7956989247311828
1.7732160312805474
1.7517106549364614
1.729227761485826
1.70772238514174
1.686217008797654
1.6637341153470186
1.64613880742913
1.629521016617791
1.6080156402737047
1.58455522971652
1.5581622678396871
1.5317693059628543
1.5063538611925709
1.4809384164222874
1.456500488758553
1.43108504398827
1.404692082111437
1.3812316715542523
1.364613880742913
1.3528836754643203
1.3391984359726294
1.3235581622678396
1.3069403714565004
1.289345063538612
1.2717497556207231
1.2561094819159335
1.2443792766373412
1.2355816226783969
1.2287390029325511
1.2228739002932552
1.2179863147605083
1.2179863147605083
1.2209188660801564
1.2209188660801564
1.2189638318670577
1.2160312805474096
1.2121212121212122
1.2082111436950147
1.2043010752688172
1.2023460410557183
1.2023460410557183
1.203323558162268
1.206256109481916
1.2130987292277615
1.2228739002932552
1.2355816226783969
1.2570869990224829
1.29227761485826
1.3411534701857282
1.404692082111437
1.4858260019550342
1.58455522971652
1.6979472140762464
1.8211143695014664
1.949169110459433
2.078201368523949
2.188660801564027
2.286412512218964
2.388074291300098
2.484848484848485
2.570869990224829
2.6422287390029324
2.6989247311827955
2.7419354838709675
2.773216031280548
2.7966764418377323
2.8132942326490715
2.8269794721407626
2.8289345063538613
2.8269794721407626
2.817204301075269
2.806451612903226
2.791788856304985
2.7517106549364616
2.7262952101661777
2.6959921798631474
2.643206256109482
2.6041055718475072
2.567937438905181
2.5347018572825024
2.4858260019550342
2.4574780058651027
2.434017595307918
2.403714565004888
2.386119257086999
2.3714565004887587
2.3597262952101663
2.3499511241446727
2.340175953079179
2.3304007820136854
2.3196480938416424
2.310850439882698
2.303030303030303
2.294232649071359
2.2825024437927666
2.270772238514174
2.2580645161290325
2.244379276637341
2.2277614858260018
2.2082111436950145
2.188660801564027
2.1700879765395893
2.1544477028347995
2.139784946236559
2.1221896383186705
2.103616813294233
2.086021505376344
2.0684261974584555
2.0518084066471163
2.037145650048876
2.0254154447702835
2.0175953079178885
2.010752688172043
2.003910068426197
1.9990224828934504
1.9960899315738023
1.992179863147605
1.986314760508309
1.9804496578690127
1.9745845552297163
1.9667644183773216
1.959921798631476
1.9530791788856303
1.945259042033236
1.93841642228739
1.9315738025415443
1.9237536656891496
1.9178885630498532
1.913978494623656
1.90811339198436
1.903225806451613
1.8983382209188664
1.8944281524926687
1.89247311827957
1.89247311827957
1.8963831867057677
1.9071358748778104
1.9286412512218964
1.9667644183773216
2.0117302052785924
2.0684261974584555
2.1495601173020527
2.251221896383187
2.36950146627566
2.5004887585532747
2.6373411534701856
2.773216031280548
2.906158357771261
3.03128054740958
3.145650048875855
3.2482893450635384
3.3391984359726297
3.4056695992179864
3.4565004887585533
3.50733137829912
3.552297165200391
3.591397849462365
3.6236559139784954
3.6480938416422286
3.665689149560117
3.679374389051808
3.688172043010753
3.6930596285434993
3.6940371456500487
3.687194525904203
3.673509286412512
3.657869012707722
3.6373411534701856
3.608993157380254
3.5747800586510263
3.5317693059628543
3.4809384164222874
3.4242424242424243
3.361681329423265
3.2952101661779083
3.2267839687194524
3.1622678396871944
3.1006842619745845
3.038123167155425
2.975562072336266
2.9159335288367547
2.8611925708699903
2.809384164222874
2.763440860215054
2.7223851417399803
2.684261974584555
2.6480938416422286
2.6129032258064515
2.5806451612903225
2.5513196480938416
2.52297165200391
2.493646138807429
2.462365591397849
2.429130009775171
2.393939393939394
2.356793743890518
2.318670576735093
2.2795698924731185
2.2404692082111435
2.2023460410557183
2.1652003910068425
2.131964809384164
2.1006842619745845
2.067448680351906
2.034213098729228
2.0019550342130987
1.970674486803519
1.9413489736070384
1.9130009775171064
1.8866080156402736
1.86119257086999
1.835777126099707
1.8103616813294232
1.7849462365591398
1.6901270772238517
1.563049853372434
1.4946236559139785
1.455522971652004
1.4301075268817205
1.4115347018572826
1.3949169110459434
1.3773216031280548
1.3607038123167154
1.3450635386119256
1.3304007820136852
1.3176930596285434
1.3098729227761483
1.3040078201368523
1.2981427174975562
1.2913000977517106
1.2864125122189638
1.2864125122189638
1.295210166177908
1.3157380254154447
1.3509286412512218
1.4007820136852396
1.4652981427174976
1.543499511241447
1.6334310850439884
1.718475073313783
1.8005865102639296
1.8934506353861196
1.989247311827957
2.0821114369501466
2.1700879765395893
2.249266862170088
2.318670576735093
2.378299120234604
2.429130009775171
2.4711632453567938
2.505376344086021
2.5268817204301075
2.539589442815249
2.552297165200391
2.563049853372434
2.5718475073313782
2.5777126099706744
2.5806451612903225
2.5806451612903225
2.576735092864125
2.567937438905181
2.5562072336265884
2.539589442815249
2.517106549364614
2.490713587487781
2.4594330400782014
2.4222873900293256
2.3812316715542523
2.3362658846529816
2.2883675464320627
2.2404692082111435
2.1915933528836757
2.1436950146627565
2.096774193548387
2.050830889540567
2.007820136852395
1.9716520039100685
1.9403714565004888
1.911045943304008
1.8836754643206255
1.858260019550342
1.833822091886608
1.8113391984359728
1.7898338220918866
1.7683284457478006
1.7458455522971652
1.721407624633431
1.696969696969697
1.672531769305963
1.6500488758553276
1.6275659824046922
1.6021505376344083
1.576735092864125
1.5493646138807429
1.52297165200391
1.4975562072336266
1.4721407624633431
1.447702834799609
1.423264907135875
1.3988269794721409
1.3763440860215057
1.359726295210166
1.3470185728250244
1.3333333333333333
1.3196480938416422
1.305962854349951
1.2913000977517106
1.2776148582600195
1.2639296187683284
1.2502443792766371
1.238514173998045
1.2267839687194526
1.2160312805474096
1.206256109481916
1.2003910068426198
1.1974584555229717
1.1925708699902249
1.1867057673509287
1.1798631476050832
1.1730205278592376
1.166177908113392
1.1573802541544478
1.1485826001955035
1.141739980449658
1.1378299120234605
1.13880742913001
1.1456500488758554
1.160312805474096
1.187683284457478
1.227761485826002
1.2825024437927663
1.3509286412512218
1.4330400782013686
1.5249266862170088
1.6256109481915937
1.7302052785923754
1.8347996089931573
1.9345063538611929
2.027370478983382
2.1006842619745845
2.160312805474096
2.219941348973607
2.2737047898338223
2.320625610948192
2.3597262952101663
2.391006842619746
2.41544477028348
2.434017595307918
2.44672531769306
2.455522971652004
2.4594330400782014
2.4565004887585533
2.4486803519061584
2.4389051808406648
2.426197458455523
2.410557184750733
2.3900293255131966
2.366568914956012
2.3391984359726297
2.3069403714565007
2.269794721407625
2.228739002932551
2.1837732160312804
2.1358748778103616
2.090909090909091
2.0498533724340176
2.007820136852395
1.964809384164223
1.9237536656891496
1.8866080156402736
1.8523949169110456
1.822091886608016
1.796676441837732
1.7732160312805474
1.750733137829912
1.729227761485826
1.710654936461388
1.694037145650049
1.6774193548387095
1.6608015640273706
1.6412512218963833
1.6207233626588464
1.6001955034213098
1.5786901270772238
1.5581622678396871
1.5366568914956011
1.5151515151515151
1.4916911045943304
1.469208211143695
1.4506353861192571
1.434017595307918
1.41544477028348
1.396871945259042
1.3782991202346042
1.3616813294232648
1.346041055718475
1.3313782991202343
1.316715542521994
1.3020527859237536
1.2883675464320623
1.2746823069403714
1.2639296187683284
1.2561094819159335
1.24633431085044
1.2375366568914956
1.2297165200391007
1.2228739002932552
1.2179863147605083
1.2121212121212122
1.2052785923753666
1.1964809384164223
1.1867057673509287
1.176930596285435
1.1700879765395895
1.1652003910068427
1.1573802541544478
1.1485826001955035
1.1397849462365592
1.1319648093841643
1.1280547409579669
1.1280547409579669
1.1348973607038124
1.1515151515151516
1.1808406647116323
1.2238514173998043
1.2805474095796676
1.3401759530791788
1.4056695992179864
1.4887585532746823
1.5826001955034212
1.6813294232649072
1.780058651026393
1.87683284457478
1.9696969696969695
2.0547409579667644
2.1280547409579667
2.1915933528836757
2.2453567937438903
2.2854349951124147
2.313782991202346
2.340175953079179
2.3626588465298144
2.380254154447703
2.3949169110459434
2.4056695992179864
2.412512218963832
2.4144672531769307
2.409579667644184
2.39980449657869
2.3851417399804498
2.3655913978494625
2.3421309872922778
2.3167155425219943
2.2873900293255134
2.254154447702835
2.217986314760508
2.176930596285435
2.132942326490713
2.0879765395894427
2.043010752688172
2.0019550342130987
1.963831867057673
1.927663734115347
1.8973607038123168
1.8699902248289344
1.842619745845552
1.8172043010752688
1.793743890518084
1.7712609970674489
1.747800586510264
1.7458455522971652
1.750733137829912
1.737047898338221
1.7116324535679377
1.6793743890518085
1.6422287390029326
1.6109481915933528
1.581622678396872
1.5464320625610948
1.5102639296187683
1.4731182795698925
1.4330400782013686
1.391006842619746
1.348973607038123
1.3088954056695992
1.2697947214076246
1.2316715542521994
1.1945259042033236
1.166177908113392
1.142717497556207
1.115347018572825
1.0869990224828934
1.0596285434995112
1.0342130987292275
1.0087976539589445
0.9843597262952102
0.9618768328445748
0.9403714565004888
0.9188660801564028
0.8973607038123167
0.8778103616813294
0.8660801564027371
0.8572825024437928
0.8435972629521017
0.8250244379276638
0.8064516129032258
0.7869012707722385
0.7653958944281525
0.7438905180840665
0.7262952101661779
0.7096774193548387
0.6920821114369502
0.6744868035190615
0.6656891495601173
0.6627565982404692
0.6578690127077224
0.656891495601173
0.6647116324535679
0.6862170087976539
0.7262952101661779
0.7839687194525904
0.8621700879765396
0.959921798631476
1.0742913000977516
1.1994134897360704
1.3304007820136852
1.447702834799609
1.555229716520039
1.667644183773216
1.7741935483870968
1.870967741935484
1.9550342130987293
2.026392961876833
2.0840664711632453
2.129032258064516
2.161290322580645
2.1818181818181817
2.193548387096774
2.196480938416422
2.193548387096774
2.187683284457478
2.176930596285435
2.1622678396871944
2.1436950146627565
2.121212121212121
2.0948191593352883
2.0625610948191597
2.0234604105571847
1.978494623655914
1.9296187683284456
1.8797653958944285
1.835777126099707
1.793743890518084
1.7487781036168133
1.704789833822092
1.6627565982404693
1.6217008797653958
1.58455522971652
1.552297165200391
1.521016617790811
1.4926686217008798
1.4672531769305963
1.4467253176930597
1.43108504398827
1.4164222873900294
1.396871945259042
1.375366568914956
1.3528836754643203
1.3304007820136852
1.3069403714565004
1.281524926686217
1.2541544477028348
1.2258064516129032
1.198435972629521
1.1730205278592376
1.1466275659824048
1.1251221896383188
1.10752688172043
1.0840664711632453
1.0576735092864125
1.0332355816226784
1.0097751710654936
0.9882697947214076
0.967741935483871
0.9481915933528836
0.9296187683284456
0.9120234604105572
0.8963831867057673
0.8885630498533724
0.884652981427175
0.8778103616813294
0.8680351906158358
0.8582600195503421
0.8514173998044966
0.8455522971652004
0.8406647116324536
0.8357771260997068
0.83088954056696
0.8260019550342131
0.8211143695014663
0.8162267839687195
0.8162267839687195
0.8181818181818182
0.8172043010752689
0.8152492668621701
0.8132942326490714
0.8123167155425219
0.8152492668621701
0.8240469208211144
0.8406647116324536
0.8690127077223851
0.9149560117302052
0.978494623655914
1.0498533724340176
1.1319648093841643
1.2355816226783969
1.3548387096774193
1.4858260019550342
1.624633431085044
1.7624633431085044
1.8944281524926687
2.0205278592375366
2.1378299120234603
2.242424242424242
2.333333333333333
2.40078201368524
2.450635386119257
2.493646138807429
2.527859237536657
2.5542521994134897
2.572825024437928
2.581622678396872
2.5835777126099706
2.581622678396872
2.5747800586510263
2.563049853372434
2.5454545454545454
2.525904203323558
2.505376344086021
2.4819159335288368
2.4565004887585533
2.426197458455523
2.393939393939394
2.3597262952101663
2.321603128054741
2.281524926686217
2.242424242424242
2.207233626588465
2.175953079178885
2.1495601173020527
2.129032258064516
2.114369501466276
2.101661779081134
2.09188660801564
2.0840664711632453
2.075268817204301
2.0664711632453567
2.059628543499511
2.053763440860215
2.043010752688172
2.0303030303030303
2.0205278592375366
2.006842619745845
1.992179863147605
1.9745845552297163
1.95405669599218
1.932551319648094
1.9130009775171064
1.8934506353861196
1.873900293255132
1.8543499511241448
1.833822091886608
1.8132942326490715
1.7917888563049853
1.772238514173998
1.7575757575757576
1.7448680351906158
1.7311827956989247
1.7174975562072337
1.7038123167155426
1.689149560117302
1.6744868035190617
1.6608015640273706
1.64613880742913
1.6314760508308896
1.6187683284457477
1.608993157380254
1.6011730205278591
1.5972629521016617
1.5943304007820136
1.590420332355816
1.5865102639296187
1.581622678396872
1.5777126099706744
1.5747800586510263
1.5718475073313782
1.5698924731182795
1.5669599217986314
1.563049853372434
1.5581622678396871
1.5542521994134897
1.5532746823069403
1.5532746823069403
1.555229716520039
1.5650048875855327
1.587487781036168
1.6285434995112416
1.6911045943304008
1.775171065493646
1.8807429130009776
2.006842619745845
2.147605083088954
2.297165200391007
2.4281524926686218
2.549364613880743
2.684261974584555
2.820136852394917
2.948191593352884
3.0635386119257086
3.166177908113392
3.257086999022483
3.335288367546432
3.4027370478983383
3.4604105571847508
3.50733137829912
3.533724340175953
3.407624633431085
3.2111436950146626
3.118279569892473
3.074291300097752
3.0547409579667644
3.0439882697947214
3.0361681329423265
3.026392961876833
3.0127077223851417
2.994134897360704
2.970674486803519
2.941348973607038
2.90811339198436
2.870967741935484
2.8289345063538613
2.782991202346041
2.7331378299120237
2.679374389051808
2.6236559139784945
2.567937438905181
2.5141739980449658
2.463343108504399
2.41544477028348
2.3704789833822093
2.3304007820136854
2.2952101661779083
2.2629521016617797
2.233626588465298
2.207233626588465
2.1808406647116323
2.15347018572825
2.126099706744868
2.0977517106549364
2.070381231671554
2.0439882697947214
2.016617790811339
1.988269794721408
1.9618768328445748
1.9374389051808407
1.911045943304008
1.8836754643206255
1.8563049853372435
1.8299120234604105
1.8035190615835777
1.7781036168132942
1.75366568914956
1.7302052785923754
1.7067448680351909
1.6842619745845553
1.6666666666666667
1.651026392961877
1.635386119257087
1.6207233626588464
1.607038123167155
1.5933528836754642
1.5796676441837731
1.565982404692082
1.5532746823069403
1.541544477028348
1.530791788856305
1.520039100684262
1.5102639296187683
1.5024437927663734
1.4965786901270772
1.487781036168133
1.47702834799609
1.4672531769305963
1.458455522971652
1.4496578690127078
1.4408602150537635
1.4320625610948192
1.423264907135875
1.4173998044965788
1.4173998044965788
1.423264907135875
1.435972629521017
1.4594330400782014
1.4965786901270772
1.5493646138807429
1.616813294232649
1.696969696969697
1.7869012707722385
1.881720430107527
1.978494623655914
2.072336265884653
2.161290322580645
2.244379276637341
2.3088954056695994
2.3597262952101663
2.410557184750733
2.4574780058651027
2.498533724340176
2.5317693059628543
2.558162267839687
2.578690127077224
2.5943304007820136
2.6050830889540566
2.6129032258064515
2.6177908113391983
2.616813294232649
2.611925708699902
2.6050830889540566
2.595307917888563
2.581622678396872
2.565982404692082
2.5386119257087
2.5102639296187683
2.486803519061584
2.455522971652004
2.418377321603128
2.376344086021505
2.3313782991202348
2.290322580645161
2.251221896383187
2.209188660801564
2.167155425219941
2.1251221896383186
2.086021505376344
2.0498533724340176
2.01564027370479
1.9843597262952104
1.956989247311828
1.9257086999022484
1.8993157380254155
1.8836754643206255
1.868035190615836
1.8504398826979471
1.8299120234604105
1.8074291300097751
1.7859237536656891
1.7644183773216031
1.7419354838709675
1.7194525904203324
1.696969696969697
1.6735092864125125
1.6500488758553276
1.629521016617791
1.6099706744868034
1.587487781036168
1.5650048875855327
1.542521994134897
1.5190615835777126
1.4965786901270772
1.47702834799609
1.4613880742913
1.4467253176930597
1.4330400782013686
1.4193548387096775
1.4056695992179864
1.3958944281524928
1.388074291300098
1.3773216031280548
1.3655913978494625
1.3548387096774193
1.346041055718475
1.3372434017595307
1.327468230694037
1.3186705767350928
1.3118279569892473
1.3040078201368523
1.2971652003910068
1.2942326490713587
1.2903225806451613
1.2834799608993157
1.273704789833822
1.2658846529814272
1.2609970674486803
1.2609970674486803
1.2697947214076246
1.2805474095796676
1.295210166177908
1.3421309872922775
1.41544477028348
1.4711632453567938
1.533724340175953
1.624633431085044
1.7194525904203324
1.8162267839687196
1.9120234604105573
2.003910068426197
2.089931573802541
2.166177908113392
2.233626588465298
2.291300097751711
2.340175953079179
2.3743890518084068
2.39980449657869
2.419354838709677
2.4379276637341154
2.4574780058651027
2.4701857282502444
2.4780058651026398
2.4809384164222874
2.4789833822091887
2.4750733137829912
2.469208211143695
2.4604105571847508
2.44672531769306
2.429130009775171
2.407624633431085
2.3822091886608017
2.3519061583577714
2.317693059628544
2.2795698924731185
2.2375366568914954
2.1945259042033234
2.1495601173020527
2.103616813294233
2.060606060606061
2.0195503421309877
1.9853372434017595
1.9560117302052784
1.9266862170087975
1.900293255131965
1.87683284457478
1.857282502443793
1.8387096774193548
1.8211143695014664
1.8025415444770283
1.7839687194525904
1.7663734115347018
1.7487781036168133
1.729227761485826
1.7116324535679377
1.694037145650049
1.675464320625611
1.6549364613880744
1.632453567937439
1.6080156402737047
1.58455522971652
1.563049853372434
1.541544477028348
1.520039100684262
1.501466275659824
1.482893450635386
1.469208211143695
1.458455522971652
1.4457478005865103
1.43108504398827
1.4164222873900294
1.4027370478983383
1.3890518084066472
1.3763440860215057
1.3636363636363635
1.3528836754643203
1.3421309872922775
1.332355816226784
1.3225806451612905
1.316715542521994
1.313782991202346
1.3098729227761483
1.3049853372434017
1.300097751710655
1.2942326490713587
1.2864125122189638
1.2150537634408602
1.110459433040078
1.053763440860215
1.021505376344086
1.0039100684261977
0.9980449657869012
0.9980449657869012
0.9990224828934506
1.0068426197458455
1.0263929618768328
1.056695992179863
1.1016617790811338
1.163245356793744
1.2404692082111437
1.3313782991202343
1.4320625610948192
1.5386119257087
1.6480938416422288
1.7409579667644184
1.8240469208211143
1.9100684261974583
1.9931573802541545
2.0684261974584555
2.133919843597263
2.189638318670577
2.2355816226783967
2.272727272727273
2.3010752688172045
2.3225806451612905
2.3382209188660803
2.346041055718475
2.347996089931574
2.3489736070381237
2.347996089931574
2.343108504398827
2.333333333333333
2.3196480938416424
2.300097751710655
2.275659824046921
2.24633431085044
2.212121212121212
2.1739980449657867
2.131964809384164
2.090909090909091
2.0498533724340176
2.004887585532747
1.9589442815249267
1.913978494623656
1.869012707722385
1.8269794721407624
1.7878787878787878
1.7517106549364614
1.7194525904203324
1.6930596285434996
1.6686217008797657
1.6480938416422288
1.629521016617791
1.608993157380254
1.5884652981427174
1.5679374389051808
1.5464320625610948
1.521994134897361
1.4965786901270772
1.469208211143695
1.4408602150537635
1.4115347018572826
1.383186705767351
1.3558162267839686
1.3333333333333333
1.3128054740957966
1.2873900293255132
1.2590420332355816
1.2297165200391007
1.2003910068426198
1.1710654936461389
1.142717497556207
1.1163245356793745
1.0918866080156402
1.0694037145650048
1.0488758553274682
1.0332355816226784
1.0195503421309873
1.0039100684261977
0.9872922776148584
0.9706744868035192
0.95405669599218
0.93841642228739
0.9227761485826002
0.9081133919843596
0.8944281524926686
0.8817204301075269
0.8699902248289345
0.8582600195503421
0.8514173998044966
0.8435972629521017
0.8328445747800587
0.8191593352883676
0.8035190615835777
0.7869012707722385
0.772238514173998
0.7605083088954057
0.750733137829912
0.7448680351906158
0.7438905180840665
0.750733137829912
0.7663734115347018
0.793743890518084
0.8357771260997068
0.8934506353861192
0.9657869012707724
1.0488758553274682
1.142717497556207
1.2424242424242424
1.343108504398827
1.4408602150537635
1.533724340175953
1.619745845552297
1.689149560117302
1.7438905180840665
1.7947214076246334
1.8387096774193548
1.8729227761485825
1.8983382209188664
1.9159335288367547
1.9266862170087975
1.9315738025415443
1.9286412512218964
1.9227761485826005
1.9159335288367547
1.905180840664712
1.8934506353861196
1.8797653958944285
1.8602150537634408
1.836754643206256
1.8093841642228736
1.7781036168132942
1.7429130009775171
1.7067448680351909
1.6695992179863148
1.6314760508308896
1.5943304007820136
1.5591397849462365
1.5298142717497556
1.5034213098729228
1.4750733137829912
1.4486803519061584
1.4242424242424243
1.4007820136852396
1.3782991202346042
1.3577712609970674
1.3391984359726294
1.3206256109481915
1.3020527859237536
1.2834799608993157
1.2649071358748778
1.249266862170088
1.2346041055718475
1.2179863147605083
1.198435972629521
1.176930596285435
1.1544477028347997
1.1300097751710656
1.1055718475073313
1.0811339198435972
1.0576735092864125
1.035190615835777
1.0146627565982405
1.0009775171065494
0.9912023460410556
0.9794721407624634
0.9657869012707724
0.9521016617790812
0.9374389051808406
0.9227761485826002
0.9100684261974584
0.9002932551319648
0.8924731182795699
0.8866080156402737
0.8817204301075269
0.8778103616813294
0.8768328445747801
0.8787878787878788
0.8778103616813294
0.8758553274682307
0.8719452590420332
0.8660801564027371
0.8602150537634409
0.855327468230694
0.8514173998044966
0.8475073313782991
0.8435972629521017
0.8396871945259042
0.8396871945259042
0.841642228739003
0.8426197458455523
0.8465298142717498
0.8572825024437928
