ppg
1.1358748778103618
1.1251221896383188
1.1143695014662756
1.104594330400782
1.0957966764418376
1.0869990224828934
1.0791788856304985
1.0713587487781036
1.064516129032258
1.0576735092864125
1.0518084066471165
1.0498533724340176
1.0498533724340176
1.0469208211143697
1.0439882697947214
1.040078201368524
1.035190615835777
1.0312805474095796
1.0273704789833822
1.024437927663734
1.021505376344086
1.0195503421309873
1.0175953079178883
1.018572825024438
1.021505376344086
1.021505376344086
1.0205278592375366
1.0195503421309873
1.018572825024438
1.0175953079178883
1.018572825024438
1.0224828934506354
1.032258064516129
1.0547409579667644
1.093841642228739
1.1564027370478984
1.2297165200391007
1.3186705767350928
1.4379276637341154
1.581622678396872
1.739980449657869
1.905180840664712
2.067448680351906
2.219941348973607
2.357771260997068
2.4789833822091887
2.593352883675464
2.697947214076246
2.768328445747801
2.817204301075269
2.863147605083089
2.9042033235581624
2.9393939393939394
2.9687194525904204
2.992179863147605
3.0087976539589443
3.018572825024438
3.0195503421309877
3.0117302052785924
2.994134897360704
2.967741935483871
2.932551319648094
2.8905180840664717
2.8377321603128056
2.7751710654936463
2.7038123167155423
2.624633431085044
2.5405669599217986
2.453567937438905
2.367546432062561
2.283479960899316
2.2052785923753664
2.134897360703812
2.0772238514174
2.029325513196481
1.9833822091886608
1.9423264907135875
1.905180840664712
1.870967741935484
1.8387096774193548
1.8074291300097751
1.7761485826001957
1.7438905180840665
1.7116324535679377
1.6774193548387095
1.643206256109482
1.6129032258064515
1.5865102639296187
1.5571847507331378
1.5268817204301075
1.495601173020528
1.4643206256109482
1.434017595307918
1.404692082111437
1.375366568914956
1.3479960899315735
1.321603128054741
1.2971652003910068
1.2776148582600195
1.2619745845552297
1.2443792766373412
1.2267839687194526
1.209188660801564
1.1925708699902249
1.176930596285435
1.1612903225806452
1.1466275659824048
1.1329423264907137
1.121212121212121
1.110459433040078
1.1006842619745845
1.0957966764418376
1.0928641251221896
1.088954056695992
1.0840664711632453
1.078201368523949
1.072336265884653
1.067448680351906
1.0625610948191593
1.0576735092864125
1.0527859237536656
1.0478983382209188
1.043010752688172
1.043010752688172
1.0449657869012707
1.0439882697947214
1.043010752688172
1.0420332355816226
1.0420332355816226
1.0420332355816226
1.0420332355816226
1.0410557184750733
1.0391006842619743
1.0371456500488758
1.035190615835777
1.0332355816226784
1.0342130987292275
1.0391006842619743
1.0488758553274682
1.0684261974584557
1.1055718475073313
1.164222873900293
1.249266862170088
1.3616813294232648
1.498533724340176
1.653958944281525
1.8201368523949168
1.989247311827957
2.132942326490713
2.257086999022483
2.3851417399804498
2.504398826979472
2.608993157380254
2.6989247311827955
2.774193548387097
2.8367546432062563
2.8885630498533725
2.930596285434995
2.9657869012707723
2.994134897360704
3.0087976539589443
3.0146627565982405
3.0195503421309877
3.018572825024438
3.010752688172043
2.995112414467253
2.970674486803519
2.935483870967742
2.889540566959922
2.833822091886608
2.768328445747801
2.6940371456500487
2.6129032258064515
2.535679374389052
2.4594330400782014
2.377321603128055
2.2952101661779083
2.2170087976539588
2.144672531769306
2.078201368523949
2.0195503421309877
1.967741935483871
1.9227761485826005
1.8826979472140764
1.8465298142717497
1.8162267839687196
1.7898338220918866
1.761485826001955
1.7331378299120237
1.7028347996089932
1.6715542521994136
1.6392961876832846
1.607038123167155
1.573802541544477
1.5395894428152492
1.5063538611925709
1.474095796676442
1.4418377321603129
1.4164222873900294
1.393939393939394
1.3685239491691104
1.3421309872922775
1.316715542521994
1.29227761485826
1.267839687194526
1.2453567937438903
1.2238514173998043
1.2043010752688172
1.1857282502443791
1.1691104594330402
1.1573802541544478
1.1495601173020529
1.1397849462365592
1.1290322580645162
1.1173020527859236
1.1065493646138806
1.096774193548387
1.0869990224828934
1.078201368523949
1.0703812316715542
1.0635386119257086
1.056695992179863
1.050830889540567
1.0488758553274682
1.0488758553274682
1.04594330400782
1.0420332355816226
1.0381231671554252
1.0332355816226784
1.0283479960899315
1.0234604105571847
1.0195503421309873
1.0156402737047898
1.0117302052785924
1.0068426197458455
1.0048875855327468
1.0048875855327468
1.0009775171065494
0.9951124144672532
0.9882697947214076
0.981427174975562
0.9736070381231672
0.9648093841642228
0.9560117302052786
0.9511241446725318
0.9530791788856304
0.9657869012707724
0.9980449657869012
1.043010752688172
1.1055718475073313
1.1974584555229717
1.3157380254154447
1.456500488758553
1.6109481915933528
1.7732160312805474
1.935483870967742
2.090909090909091
2.232649071358749
2.3597262952101663
2.472140762463343
2.5562072336265884
2.6207233626588464
2.6852394916911044
2.744868035190616
2.798631476050831
2.8484848484848486
2.89247311827957
2.930596285434995
2.961876832844575
2.986314760508309
3.002932551319648
3.0097751710654936
3.005865102639296
2.991202346041056
2.9657869012707723
2.9315738025415445
2.8856304985337244
2.8289345063538613
2.7614858260019552
2.684261974584555
2.5992179863147604
2.5102639296187683
2.418377321603128
2.3274682306940373
2.2404692082111435
2.167155425219941
2.103616813294233
2.042033235581622
1.9872922776148585
1.9403714565004888
1.900293255131965
1.8670576735092863
1.8387096774193548
1.8142717497556209
1.790811339198436
1.7683284457478006
1.7458455522971652
1.7223851417399805
1.7018572825024438
1.6813294232649072
1.6578690127077225
1.6314760508308896
1.6109481915933528
1.5943304007820136
1.5718475073313782
1.547409579667644
1.521016617790811
1.4936461388074291
1.466275659824047
1.4389051808406648
1.4164222873900294
1.396871945259042
1.3724340175953078
1.346041055718475
1.3186705767350928
1.29227761485826
1.267839687194526
1.2443792766373412
1.2228739002932552
1.2023460410557183
1.18475073313783
1.1691104594330402
1.1564027370478984
1.1495601173020529
1.144672531769306
1.13880742913001
1.1329423264907137
1.1280547409579669
1.1241446725317692
1.1202346041055715
1.1173020527859236
1.115347018572825
1.1143695014662756
1.1143695014662756
1.115347018572825
1.1192570869990224
1.1251221896383188
1.1290322580645162
1.1329423264907137
1.1358748778103618
1.1378299120234605
1.1397849462365592
1.1397849462365592
1.1378299120234605
1.1348973607038124
1.1300097751710656
1.121212121212121
1.118279569892473
1.118279569892473
1.118279569892473
1.1241446725317692
1.141739980449658
1.1779081133919844
1.2355816226783969
1.3196480938416422
1.4301075268817205
1.563049853372434
1.7135874877810362
1.873900293255132
2.01564027370479
2.142717497556207
2.2766373411534704
2.404692082111437
2.520039100684262
2.619745845552297
2.7038123167155423
2.7751710654936463
2.833822091886608
2.881720430107527
2.921798631476051
2.9550342130987293
2.981427174975562
2.9960899315738025
3.0009775171065494
3.003910068426197
3.0019550342130987
2.9931573802541545
2.9765395894428157
2.9501466275659824
2.913978494623656
2.8670576735092865
2.809384164222874
2.742913000977517
2.668621700879765
2.595307917888563
2.52297165200391
2.442815249266862
2.3597262952101663
2.27761485826002
2.19941348973607
2.1280547409579667
2.064516129032258
2.0087976539589443
1.9608993157380252
1.919843597262952
1.8836754643206255
1.8543499511241448
1.828934506353861
1.8025415444770283
1.775171065493646
1.747800586510264
1.7194525904203324
1.6911045943304008
1.66177908113392
1.6314760508308896
1.6001955034213098
1.56891495601173
1.5376344086021505
1.5063538611925709
1.479960899315738
1.457478005865103
1.4320625610948192
1.4056695992179864
1.3782991202346042
1.3528836754643203
1.3284457478005864
1.3049853372434017
1.2834799608993157
1.262952101661779
1.2443792766373412
1.2258064516129032
1.2121212121212122
1.2013685239491692
1.1896383186705768
1.1759530791788857
1.163245356793744
1.1515151515151516
1.141739980449658
1.1329423264907137
1.1241446725317692
1.1173020527859236
1.1114369501466277
1.1065493646138806
1.1026392961876832
1.1016617790811338
1.1026392961876832
1.1006842619745845
1.0987292277614855
1.0957966764418376
1.093841642228739
1.0918866080156402
1.088954056695992
1.0869990224828934
1.0850439882697946
1.083088954056696
1.0811339198435972
1.0811339198435972
1.083088954056696
1.083088954056696
1.0821114369501466
1.0801564027370478
1.0772238514173995
1.0742913000977516
1.0713587487781036
1.0694037145650048
1.072336265884653
1.083088954056696
1.10752688172043
1.1515151515151516
1.2072336265884651
1.2805474095796676
1.383186705767351
1.5112414467253177
1.6598240469208212
1.8201368523949168
1.9843597262952104
2.1436950146627565
2.29227761485826
2.426197458455523
2.5425219941348973
2.6402737047898337
2.710654936461388
2.763440860215054
2.814271749755621
2.860215053763441
2.900293255131965
2.9335288367546437
2.959921798631476
2.979472140762464
2.9931573802541545
2.99902248289345
2.9960899315738025
2.9853372434017595
2.9657869012707723
2.9374389051808407
2.900293255131965
2.855327468230694
2.80058651026393
2.73802541544477
2.6666666666666665
2.5884652981427174
2.505376344086021
2.418377321603128
2.3313782991202348
2.247311827956989
2.167155425219941
2.1006842619745845
2.0439882697947214
1.989247311827957
1.9393939393939397
1.895405669599218
1.8563049853372435
1.822091886608016
1.790811339198436
1.761485826001955
1.7341153470185728
1.7067448680351909
1.6793743890518085
1.651026392961877
1.6265884652981428
1.6041055718475072
1.5786901270772238
1.5513196480938416
1.52297165200391
1.4946236559139785
1.466275659824047
1.4379276637341154
1.4115347018572826
1.3851417399804498
1.3607038123167154
1.3362658846529814
1.3176930596285434
1.3010752688172045
1.2825024437927663
1.2649071358748778
1.2473118279569892
1.23069403714565
1.2150537634408602
1.2013685239491692
1.1886608015640274
1.176930596285435
1.1652003910068427
1.1534701857282503
1.142717497556207
1.1368523949169111
1.133919843597263
1.1290322580645162
1.1231671554252198
1.1173020527859236
1.1124144672531768
1.10752688172043
1.1036168132942326
1.1006842619745845
1.0977517106549364
1.0948191593352885
1.0928641251221896
1.093841642228739
1.0957966764418376
1.096774193548387
1.096774193548387
1.0957966764418376
1.0957966764418376
1.0948191593352885
1.093841642228739
1.0928641251221896
1.0918866080156402
1.0909090909090908
1.072336265884653
1.04594330400782
1.0342130987292275
1.0303030303030305
1.0303030303030305
1.035190615835777
1.050830889540567
1.083088954056696
1.1358748778103618
1.2140762463343109
1.3186705767350928
1.4486803519061584
1.6001955034213098
1.7644183773216031
1.9120234604105573
2.047898338220919
2.1955034213098727
2.3382209188660803
2.4682306940371457
2.581622678396872
2.677419354838709
2.757575757575758
2.823069403714565
2.87683284457478
2.919843597262952
2.95405669599218
2.981427174975562
2.995112414467253
2.99902248289345
3.0009775171065494
2.997067448680352
2.9853372434017595
2.9530791788856305
2.919843597262952
2.875855327468231
2.8211143695014664
2.757575757575758
2.684261974584555
2.611925708699902
2.539589442815249
2.458455522971652
2.3743890518084068
2.290322580645161
2.210166177908113
2.136852394916911
2.071358748778104
2.013685239491691
1.963831867057673
1.919843597262952
1.881720430107527
1.8504398826979471
1.823069403714565
1.7947214076246334
1.7653958944281525
1.7350928641251222
1.7038123167155426
1.672531769305963
1.6392961876832846
1.606060606060606
1.5728250244379276
1.5405669599217986
1.5073313782991202
1.474095796676442
1.4467253176930597
1.423264907135875
1.3958944281524928
1.3685239491691104
1.3411534701857282
1.3147605083088951
1.289345063538612
1.2658846529814272
1.2443792766373412
1.2238514173998043
1.2043010752688172
1.1857282502443791
1.1720430107526882
1.1612903225806452
1.1485826001955035
1.1358748778103618
1.1231671554252198
1.104594330400782
1.0948191593352885
1.0850439882697946
1.072336265884653
1.064516129032258
1.056695992179863
1.0488758553274682
1.0449657869012707
1.043010752688172
1.0381231671554252
1.032258064516129
1.0263929618768328
1.0205278592375366
1.0156402737047898
1.0117302052785924
1.007820136852395
1.0048875855327468
1.002932551319648
1.0009775171065494
1.002932551319648
1.0058651026392962
1.0068426197458455
1.0068426197458455
1.0058651026392962
1.0048875855327468
1.0039100684261977
1.0039100684261977
1.0058651026392962
1.013685239491691
1.0332355816226784
1.0703812316715542
1.118279569892473
1.1827956989247312
1.2766373411534702
1.3978494623655917
1.541544477028348
1.699902248289345
1.866080156402737
2.0303030303030303
2.1867057673509285
2.329423264907136
2.4545454545454546
2.5620723362658846
2.6402737047898337
2.697947214076246
2.7536656891495603
2.803519061583578
2.8475073313782997
2.884652981427175
2.9149560117302054
2.940371456500489
2.9589442815249267
2.970674486803519
2.973607038123167
2.967741935483871
2.952101661779081
2.9286412512218964
2.8963831867057674
2.854349951124145
2.803519061583578
2.742913000977517
2.673509286412512
2.5962854349951123
2.5131964809384164
2.4271749755620724
2.3411534701857284
2.257086999022483
2.177908113391984
2.1114369501466275
2.0547409579667644
2.0
1.951124144672532
1.90811339198436
1.8699902248289344
1.835777126099707
1.804496578690127
1.7732160312805474
1.7429130009775171
1.7126099706744868
1.6823069403714566
1.6500488758553276
1.6217008797653958
1.595307917888563
1.565982404692082
1.5347018572825024
1.5024437927663734
1.4701857282502444
1.4379276637341154
1.4066471163245358
1.3763440860215057
1.3479960899315735
1.3196480938416422
1.2932551319648091
1.2727272727272727
1.2551319648093842
1.2355816226783969
1.217008797653959
1.1994134897360704
1.1837732160312806
1.1691104594330402
1.1544477028347997
1.141739980449658
1.1290322580645162
1.1163245356793745
1.104594330400782
1.0928641251221896
1.086021505376344
1.0821114369501466
1.0762463343108504
1.0694037145650048
1.0625610948191593
1.056695992179863
1.050830889540567
1.04594330400782
1.0410557184750733
1.0361681329423265
1.0312805474095796
1.0273704789833822
1.0263929618768328
1.0273704789833822
1.0263929618768328
1.024437927663734
1.0224828934506354
1.0205278592375366
1.018572825024438
1.0166177908113392
1.0146627565982405
1.0127077223851415
1.010752688172043
1.0097751710654936
1.007820136852395
1.0087976539589445
1.010752688172043
1.013685239491691
1.021505376344086
1.040078201368524
1.0733137829912025
1.1280547409579669
1.2072336265884651
1.3118279569892473
1.439882697947214
1.587487781036168
1.7487781036168133
1.8934506353861196
2.0254154447702835
2.167155425219941
2.304985337243402
2.43108504398827
2.5405669599217986
2.634408602150537
2.7126099706744866
2.776148582600196
2.827956989247312
2.870967741935484
2.906158357771261
2.9335288367546437
2.948191593352884
2.95405669599218
2.959921798631476
2.960899315738025
2.956011730205278
2.943304007820137
2.921798631476051
2.889540566959922
2.8475073313782997
2.7947214076246336
2.7311827956989245
2.659824046920821
2.5884652981427174
2.517106549364614
2.436950146627566
2.3548387096774195
2.272727272727273
2.1925708699902247
2.117302052785924
2.050830889540567
1.992179863147605
1.9413489736070384
1.8973607038123168
1.858260019550342
1.823069403714565
1.793743890518084
1.7673509286412512
1.739980449657869
1.7116324535679377
1.6823069403714566
1.6520039100684265
1.619745845552297
1.587487781036168
1.5542521994134897
1.521016617790811
1.4887585532746823
1.456500488758553
1.4301075268817205
1.4066471163245358
1.3792766373411536
1.3519061583577712
1.324535679374389
1.2991202346041055
1.2746823069403714
1.252199413489736
1.23069403714565
1.2101661779081134
1.1906158357771262
1.1720430107526882
1.1583577712609971
1.147605083088954
1.1348973607038124
1.121212121212121
1.10752688172043
1.0948191593352885
1.083088954056696
1.072336265884653
1.0625610948191593
1.053763440860215
1.04594330400782
1.0391006842619743
1.0332355816226784
1.0312805474095796
1.0312805474095796
1.029325513196481
1.0263929618768328
1.0224828934506354
1.018572825024438
1.0156402737047898
1.0127077223851415
1.0097751710654936
1.007820136852395
1.0068426197458455
1.0058651026392962
1.007820136852395
1.0117302052785924
1.013685239491691
1.0146627565982405
1.0156402737047898
1.0156402737047898
1.0146627565982405
1.013685239491691
1.0117302052785924
1.010752688172043
1.010752688172043
1.0166177908113392
1.0312805474095796
1.0557184750733135
1.093841642228739
1.155425219941349
1.241446725317693
1.35386119257087
1.4887585532746823
1.6412512218963833
1.8035190615835777
1.9687194525904204
2.1280547409579667
2.274682306940372
2.4056695992179864
2.505376344086021
2.582600195503421
2.6559139784946235
2.721407624633431
2.777126099706745
2.8240469208211145
2.86217008797654
2.89247311827957
2.916911045943304
2.935483870967742
2.946236559139785
2.951124144672532
2.948191593352884
2.935483870967742
2.913978494623656
2.8856304985337244
2.849462365591398
2.803519061583578
2.7468230694037143
2.681329423264907
2.6080156402737047
2.527859237536657
2.443792766373412
2.358748778103617
2.274682306940372
2.2023460410557183
2.1388074291300097
2.0772238514174
2.0195503421309877
1.967741935483871
1.921798631476051
1.881720430107527
1.8455522971652003
1.8132942326490715
1.782991202346041
1.7546432062561097
1.7253176930596286
1.6959921798631477
1.6695992179863148
1.6441837732160314
1.6148582600195502
1.5835777126099706
1.5513196480938416
1.520039100684262
1.487781036168133
1.456500488758553
1.4271749755620724
1.3988269794721409
1.3714565004887584
1.3450635386119256
1.3235581622678396
1.305962854349951
1.2854349951124144
1.2658846529814272
1.24633431085044
1.227761485826002
1.2101661779081134
1.1935483870967742
1.1788856304985338
1.164222873900293
1.1505376344086022
1.1378299120234605
1.126099706744868
1.118279569892473
1.1133919843597262
1.1055718475073313
1.0977517106549364
1.0899315738025417
1.083088954056696
1.0772238514173995
1.0713587487781036
1.0654936461388074
1.0586510263929618
1.0518084066471165
1.04594330400782
1.043010752688172
1.043010752688172
1.0410557184750733
1.0381231671554252
1.0361681329423265
1.035190615835777
1.0332355816226784
1.0312805474095796
1.0303030303030305
1.029325513196481
1.0283479960899315
1.0263929618768328
1.024437927663734
1.0254154447702837
1.0273704789833822
1.0273704789833822
1.0283479960899315
1.0312805474095796
1.0420332355816226
1.064516129032258
1.104594330400782
1.1671554252199414
1.2551319648093842
1.3695014662756595
1.5063538611925709
1.6383186705767352
1.76930596285435
1.919843597262952
2.075268817204301
2.2238514173998043
2.3597262952101663
2.479960899315738
2.582600195503421
2.668621700879765
2.739980449657869
2.798631476050831
2.84652981427175
2.8856304985337244
2.9100684261974585
2.9237536656891496
2.9374389051808407
2.9472140762463344
2.9501466275659824
2.946236559139785
2.9335288367546437
2.911045943304008
2.877810361681329
2.832844574780059
2.7781036168132944
2.7126099706744866
2.64613880742913
2.575757575757576
2.495601173020528
2.410557184750733
2.32355816226784
2.2385141739980448
2.1593352883675463
2.0879765395894427
2.024437927663734
1.9696969696969695
1.9237536656891496
1.884652981427175
1.8514173998044965
1.825024437927664
1.8025415444770283
1.780058651026393
1.7565982404692082
1.7331378299120237
1.7096774193548387
1.686217008797654
1.66177908113392
1.6373411534701858
1.611925708699902
1.5865102639296187
1.5610948191593352
1.5386119257087
1.517106549364614
1.4916911045943304
1.4643206256109482
1.435972629521017
1.4066471163245358
1.3773216031280548
1.348973607038123
1.321603128054741
1.2961876832844574
1.2717497556207231
1.2473118279569892
1.224828934506354
1.2082111436950147
1.1945259042033236
1.1788856304985338
1.1622678396871946
1.1466275659824048
1.130987292277615
1.1173020527859236
1.104594330400782
1.093841642228739
1.086021505376344
1.0791788856304985
1.0742913000977516
1.0733137829912025
1.075268817204301
1.0762463343108504
1.0772238514173995
1.078201368523949
1.0791788856304985
1.0791788856304985
1.078201368523949
1.0772238514173995
1.075268817204301
1.072336265884653
1.0694037145650048
1.0694037145650048
1.0703812316715542
1.0694037145650048
1.0664711632453567
1.0625610948191593
1.0576735092864125
1.0518084066471165
1.0449657869012707
1.0371456500488758
1.0283479960899315
1.021505376344086
1.0205278592375366
1.0303030303030305
1.0498533724340176
1.0850439882697946
1.1436950146627567
1.2297165200391007
1.3440860215053765
1.4819159335288368
1.6392961876832846
1.8084066471163245
1.9794721407624636
2.145650048875855
2.2981427174975564
2.4349951124144678
2.5386119257087
2.619745845552297
2.696969696969697
2.766373411534702
2.8260019550342133
2.87683284457478
2.918866080156403
2.95405669599218
2.9824046920821115
3.003910068426197
3.018572825024438
3.0254154447702835
3.024437927663734
3.0117302052785924
2.9902248289345064
2.961876832844575
2.924731182795699
2.877810361681329
2.8211143695014664
2.7536656891495603
2.677419354838709
2.595307917888563
2.5083088954056696
2.420332355816227
2.333333333333333
2.2580645161290325
2.190615835777126
2.12316715542522
2.060606060606061
2.004887585532747
1.9550342130987293
1.911045943304008
1.871945259042033
1.836754643206256
1.804496578690127
1.7741935483870968
1.7448680351906158
1.7165200391006843
1.6911045943304008
1.667644183773216
1.6392961876832846
1.608993157380254
1.5777126099706744
1.5464320625610948
1.5141739980449658
1.4819159335288368
1.4506353861192571
1.4193548387096775
1.3890518084066472
1.359726295210166
1.3362658846529814
1.3157380254154447
1.2932551319648091
1.2697947214076246
1.2473118279569892
1.2258064516129032
1.2052785923753666
1.1857282502443791
1.1681329423264908
1.1515151515151516
1.1368523949169111
1.1241446725317692
1.1114369501466277
1.1026392961876832
1.096774193548387
1.088954056695992
1.0801564027370478
1.072336265884653
1.064516129032258
1.0576735092864125
1.0518084066471165
1.0478983382209188
1.04594330400782
1.0439882697947214
1.0420332355816226
1.043010752688172
1.0449657869012707
1.0449657869012707
1.0439882697947214
1.0420332355816226
1.0410557184750733
1.0391006842619743
1.0381231671554252
1.0371456500488758
1.0361681329423265
1.0342130987292275
1.032258064516129
1.0303030303030305
1.0303030303030305
1.0312805474095796
1.0303030303030305
1.0283479960899315
1.029325513196481
1.0371456500488758
1.0586510263929618
1.0977517106549364
1.1612903225806452
1.2502443792766371
1.3665689149560116
1.5063538611925709
1.6412512218963833
1.775171065493646
1.9305962854349952
2.089931573802541
2.244379276637341
2.386119257086999
2.5102639296187683
2.6177908113391983
2.70772238514174
2.782013685239492
2.8426197458455524
2.89247311827957
2.9335288367546437
2.9589442815249267
2.9745845552297165
2.9902248289345064
3.0019550342130987
3.007820136852395
3.007820136852395
3.0
2.98435972629521
2.9589442815249267
2.9237536656891496
2.8797653958944283
2.825024437927664
2.766373411534702
2.702834799608993
2.6285434995112413
2.5464320625610948
2.4594330400782014
2.3714565004887587
2.2844574780058653
2.2023460410557183
2.126099706744868
2.0576735092864125
1.9980449657869013
1.9472140762463344
1.903225806451613
1.869012707722385
1.8406647116324533
1.812316715542522
1.7839687194525904
1.7565982404692082
1.7282502443792769
1.699902248289345
1.6705767350928642
