ppg
1.6813294232649072
1.651026392961877
1.6226783968719452
1.5943304007820136
1.5669599217986314
1.543499511241447
1.521016617790811
1.498533724340176
1.4750733137829912
1.455522971652004
1.4379276637341154
1.4173998044965788
1.3958944281524928
1.3734115347018572
1.3519061583577712
1.3313782991202343
1.3118279569892473
1.2932551319648091
1.2766373411534702
1.2609970674486803
1.24633431085044
1.2336265884652982
1.2267839687194526
1.2228739002932552
1.2189638318670577
1.2140762463343109
1.209188660801564
1.203323558162268
1.195503421309873
1.1867057673509287
1.176930596285435
1.1671554252199414
1.1564027370478984
1.1456500488758554
1.13880742913001
1.1358748778103618
1.130987292277615
1.126099706744868
1.1221896383186705
1.118279569892473
1.1143695014662756
1.1124144672531768
1.1114369501466277
1.110459433040078
1.110459433040078
1.110459433040078
1.110459433040078
1.1114369501466277
1.1133919843597262
1.1124144672531768
1.1114369501466277
1.110459433040078
1.1094819159335287
1.1055718475073313
1.1006842619745845
1.096774193548387
1.0928641251221896
1.0869990224828934
1.0801564027370478
1.078201368523949
1.0801564027370478
1.0811339198435972
1.0840664711632453
1.093841642228739
1.1163245356793745
1.1583577712609971
1.224828934506354
1.3176930596285434
1.4349951124144673
1.5708699902248289
1.718475073313783
1.869012707722385
1.997067448680352
2.10850439882698
2.2238514173998043
2.333333333333333
2.432062561094819
2.5180840664711632
2.591397849462365
2.653958944281525
2.705767350928641
2.7497556207233624
2.78494623655914
2.8132942326490715
2.8299120234604107
2.8396871945259043
2.8484848484848486
2.855327468230694
2.860215053763441
2.860215053763441
2.8563049853372435
2.8484848484848486
2.8367546432062563
2.820136852394917
2.7976539589442817
2.7702834799608995
2.735092864125122
2.6940371456500487
2.64613880742913
2.589442815249267
2.5219941348973607
2.44672531769306
2.367546432062561
2.2883675464320627
2.2111436950146626
2.1378299120234603
2.071358748778104
2.013685239491691
1.964809384164223
1.9257086999022484
1.8934506353861196
1.86119257086999
1.828934506353861
1.7996089931573802
1.7732160312805474
1.7458455522971652
1.718475073313783
1.6911045943304008
1.6666666666666667
1.6441837732160314
1.6207233626588464
1.6011730205278591
1.58455522971652
1.565982404692082
1.547409579667644
1.5278592375366569
1.5083088954056696
1.487781036168133
1.4672531769305963
1.4467253176930597
1.4281524926686218
1.409579667644184
1.3919843597262953
1.375366568914956
1.3636363636363635
1.3548387096774193
1.3450635386119256
1.3362658846529814
1.327468230694037
1.3196480938416422
1.3128054740957966
1.305962854349951
1.2991202346041055
1.2913000977517106
1.284457478005865
1.2776148582600195
1.273704789833822
1.270772238514174
1.2658846529814272
1.2619745845552297
1.2570869990224829
1.252199413489736
1.2482893450635386
1.2434017595307918
1.2375366568914956
1.2336265884652982
1.23069403714565
1.2267839687194526
1.2238514173998043
1.224828934506354
1.2267839687194526
1.227761485826002
1.227761485826002
1.2258064516129032
1.2228739002932552
1.2209188660801564
1.219941348973607
1.2189638318670577
1.2189638318670577
1.2189638318670577
1.2189638318670577
1.219941348973607
1.2218963831867058
1.2209188660801564
1.2189638318670577
1.2160312805474096
1.2130987292277615
1.209188660801564
1.2052785923753666
1.2043010752688172
1.2101661779081134
1.2267839687194526
1.2619745845552297
1.3196480938416422
1.388074291300098
1.4721407624633431
1.585532746823069
1.7204301075268815
1.8670576735092863
2.016617790811339
2.163245356793744
2.3010752688172045
2.426197458455523
2.536656891495601
2.633431085043988
2.7145650048875853
2.773216031280548
2.81622678396872
2.859237536656892
2.898338220918866
2.9315738025415445
2.9589442815249267
2.9804496578690127
2.9960899315738025
3.006842619745845
3.0127077223851417
3.01564027370479
3.01564027370479
3.010752688172043
2.997067448680352
2.9765395894428157
2.95405669599218
2.9257086999022484
2.8905180840664717
2.8475073313782997
2.7966764418377323
2.736070381231672
2.6666666666666665
2.591397849462365
2.512218963831867
2.432062561094819
2.3597262952101663
2.2844574780058653
2.204301075268817
2.136852394916911
2.0791788856304985
2.0303030303030303
1.986314760508309
1.9472140762463344
1.911045943304008
1.8748778103616808
1.839687194525904
1.8054740957966764
1.772238514173998
1.7438905180840665
1.7194525904203324
1.6920821114369502
1.664711632453568
1.6373411534701858
1.6109481915933528
1.585532746823069
1.5610948191593352
1.5386119257087
1.5161290322580645
1.4946236559139785
1.4721407624633431
1.4535679374389052
1.4379276637341154
1.4193548387096775
1.3998044965786902
1.380254154447703
1.3587487781036167
1.3372434017595307
1.316715542521994
1.295210166177908
1.2756598240469208
1.2580645161290325
1.2424242424242424
1.227761485826002
1.217008797653959
1.2072336265884651
1.195503421309873
1.1827956989247312
1.1700879765395895
1.1583577712609971
1.1466275659824048
1.1358748778103618
1.126099706744868
1.1163245356793745
1.1065493646138806
1.0987292277614855
1.093841642228739
1.088954056695992
1.083088954056696
1.0762463343108504
1.0684261974584557
1.06158357771261
1.0547409579667644
1.0478983382209188
1.0420332355816226
1.035190615835777
1.029325513196481
1.024437927663734
1.0195503421309873
1.0166177908113392
1.0156402737047898
1.0117302052785924
1.0058651026392962
0.9990224828934506
0.9951124144672532
0.9980449657869012
1.010752688172043
1.0420332355816226
1.0977517106549364
1.1808406647116323
1.29227761485826
1.4066471163245358
1.5239491691104594
1.6608015640273706
1.8035190615835777
1.943304007820137
2.0733137829912023
2.190615835777126
2.2932551319648096
2.380254154447703
2.4516129032258065
2.5102639296187683
2.558162267839687
2.595307917888563
2.618768328445748
2.634408602150537
2.6510263929618767
2.667644183773216
2.6823069403714563
2.695014662756598
2.7038123167155423
2.70772238514174
2.7067448680351904
2.701857282502444
2.69208211143695
2.677419354838709
2.656891495601173
2.63049853372434
2.598240469208211
2.557184750733138
2.50733137829912
2.447702834799609
2.378299120234604
2.300097751710655
2.2170087976539588
2.131964809384164
2.047898338220919
1.9687194525904204
1.8963831867057677
1.8387096774193548
1.790811339198436
1.7458455522971652
1.7057673509286413
1.6695992179863148
1.6383186705767352
1.6080156402737047
1.5777126099706744
1.547409579667644
1.5180840664711632
1.4897360703812317
1.4613880742913
1.4379276637341154
1.4173998044965788
1.392961876832845
1.3685239491691104
1.3450635386119256
1.321603128054741
1.2981427174975562
1.2756598240469208
1.2531769305962854
1.2316715542521994
1.2101661779081134
1.187683284457478
1.1700879765395895
1.1544477028347997
1.1348973607038124
1.115347018572825
1.096774193548387
1.078201368523949
1.0606060606060606
1.04594330400782
1.0342130987292275
1.024437927663734
1.0156402737047898
1.007820136852395
1.0
0.9960899315738024
0.9941348973607038
0.9902248289345064
0.9843597262952102
0.9775171065493646
0.9706744868035192
0.9638318670576737
0.956989247311828
0.9501466275659824
0.9433040078201368
0.9393939393939394
0.9374389051808406
0.93841642228739
0.9403714565004888
0.9403714565004888
0.93841642228739
0.935483870967742
0.9315738025415444
0.9296187683284456
0.9286412512218964
0.9286412512218964
0.9286412512218964
0.9286412512218964
0.9286412512218964
0.9286412512218964
0.9305962854349952
0.9315738025415444
0.9286412512218964
0.9257086999022482
0.9227761485826002
0.9178885630498532
0.9130009775171064
0.9100684261974584
0.9110459433040078
0.9217986314760508
0.9481915933528836
0.9980449657869012
1.0596285434995112
1.1368523949169111
1.2453567937438903
1.3782991202346042
1.5288367546432062
1.6852394916911049
1.839687194525904
1.986314760508309
2.120234604105572
2.2385141739980448
2.343108504398827
2.434017595307918
2.509286412512219
2.563049853372434
2.6050830889540566
2.6471163245356792
2.6852394916911044
2.718475073313783
2.7468230694037143
2.7702834799608995
2.789833822091887
2.8054740957966766
2.8152492668621703
2.820136852394917
2.8211143695014664
2.8132942326490715
2.7996089931573804
2.7839687194525906
2.7624633431085046
2.7341153470185726
2.699902248289345
2.658846529814272
2.6080156402737047
2.5454545454545454
2.4731182795698925
2.393939393939394
2.3098729227761488
2.2238514173998043
2.147605083088954
2.078201368523949
2.0097751710654936
1.946236559139785
1.8905180840664717
1.842619745845552
1.801564027370479
1.7653958944281525
1.7311827956989247
1.699902248289345
1.6686217008797657
1.6373411534701858
1.6109481915933528
1.587487781036168
1.560117302052786
1.530791788856305
1.501466275659824
1.4721407624633431
1.4428152492668622
1.41544477028348
1.3890518084066472
1.3626588465298142
1.3372434017595307
1.3118279569892473
1.2873900293255132
1.2688172043010753
1.2531769305962854
1.2346041055718475
1.2150537634408602
1.195503421309873
1.1788856304985338
1.164222873900293
1.176930596285435
1.2043010752688172
1.2101661779081134
1.2052785923753666
1.1974584555229717
1.1915933528836755
1.1867057673509287
1.1788856304985338
1.1691104594330402
1.1583577712609971
1.1485826001955035
1.1378299120234605
1.1270772238514175
1.1173020527859236
1.1065493646138806
1.096774193548387
1.0879765395894427
1.0801564027370478
1.0762463343108504
1.0742913000977516
1.0694037145650048
1.0625610948191593
1.0557184750733135
1.0488758553274682
1.0410557184750733
1.0342130987292275
1.0283479960899315
1.0254154447702837
1.024437927663734
1.0234604105571847
1.0254154447702837
1.0283479960899315
1.029325513196481
1.029325513196481
1.0283479960899315
1.0263929618768328
1.024437927663734
1.0234604105571847
1.0234604105571847
1.0234604105571847
1.0234604105571847
1.0224828934506354
1.0195503421309873
1.0195503421309873
1.021505376344086
1.0224828934506354
1.0254154447702837
1.0371456500488758
1.0635386119257086
1.1114369501466277
1.1857282502443791
1.2883675464320623
1.41544477028348
1.5620723362658846
1.7204301075268815
1.8621700879765395
1.991202346041056
2.1280547409579667
2.260019550342131
2.3822091886608017
2.49266862170088
2.5884652981427174
2.668621700879765
2.7370478983382207
2.795698924731183
2.844574780058651
2.8856304985337244
2.918866080156403
2.9393939393939394
2.952101661779081
2.9667644183773216
2.981427174975562
2.992179863147605
2.9980449657869013
2.99902248289345
2.9960899315738025
2.989247311827957
2.9765395894428157
2.956989247311828
2.930596285434995
2.898338220918866
2.859237536656892
2.8103616813294234
2.750733137829912
2.679374389051808
2.60019550342131
2.5161290322580645
2.43108504398827
2.347018572825025
2.2688172043010755
2.19941348973607
2.1378299120234603
2.0869990224828934
2.04594330400782
2.0127077223851417
1.981427174975562
1.9521016617790807
1.921798631476051
1.889540566959922
1.858260019550342
1.8299120234604105
1.801564027370479
1.7732160312805474
1.7468230694037146
1.7233626588465298
1.704789833822092
1.686217008797654
1.6656891495601174
1.6441837732160314
1.6236559139784943
1.603128054740958
1.581622678396872
1.5591397849462365
1.5366568914956011
1.5151515151515151
1.4946236559139785
1.4750733137829912
1.4604105571847508
1.447702834799609
1.434017595307918
1.4193548387096775
1.4056695992179864
1.393939393939394
1.383186705767351
1.3734115347018572
1.3655913978494625
1.3577712609970674
1.3509286412512218
1.3450635386119256
1.3411534701857282
1.3391984359726294
1.33822091886608
1.3343108504398826
1.3294232649071358
1.324535679374389
1.3186705767350928
1.3128054740957966
1.3069403714565004
1.300097751710655
1.2942326490713587
1.289345063538612
1.2834799608993157
1.2805474095796676
1.281524926686217
1.281524926686217
1.281524926686217
1.281524926686217
1.281524926686217
1.281524926686217
1.2825024437927663
1.284457478005865
1.2854349951124144
1.2854349951124144
1.284457478005865
1.2825024437927663
1.281524926686217
1.281524926686217
1.2805474095796676
1.278592375366569
1.2756598240469208
1.270772238514174
1.2649071358748778
1.2590420332355816
1.2541544477028348
1.252199413489736
1.2531769305962854
1.260019550342131
1.2766373411534702
1.3069403714565004
1.3607038123167154
1.4408602150537635
1.547409579667644
1.678396871945259
1.828934506353861
1.988269794721408
2.1485826001955037
2.303030303030303
2.44672531769306
2.5747800586510263
2.686217008797654
2.7702834799608995
2.833822091886608
2.895405669599218
2.952101661779081
3.0009775171065494
3.0410557184750733
3.0733137829912023
3.0987292277614857
3.117302052785924
3.1309872922776147
3.139784946236559
3.142717497556207
3.136852394916911
3.1251221896383186
3.114369501466276
3.102639296187683
3.0869990224828934
3.0664711632453567
3.040078201368524
3.006842619745845
2.961876832844575
2.905180840664712
2.8396871945259043
2.764418377321604
2.6803519061583576
2.598240469208211
2.5210166177908118
2.4389051808406648
2.357771260997068
2.283479960899316
2.2170087976539588
2.158357771260997
2.10850439882698
2.064516129032258
2.024437927663734
1.988269794721408
1.9530791788856303
1.921798631476051
1.8934506353861196
1.8631476050830889
1.8328445747800584
1.8025415444770283
1.7732160312805474
1.7468230694037146
1.721407624633431
1.6959921798631477
1.6695992179863148
1.643206256109482
1.6177908113391983
1.5943304007820136
1.573802541544477
1.555229716520039
1.5327468230694037
1.5083088954056696
1.4848484848484849
1.4623655913978495
1.439882697947214
1.4164222873900294
1.3919843597262953
1.3685239491691104
1.346041055718475
1.324535679374389
1.3079178885630498
1.295210166177908
1.2805474095796676
1.2668621700879763
1.2541544477028348
1.2424242424242424
1.23069403714565
1.219941348973607
1.2082111436950147
1.1974584555229717
1.1867057673509287
1.1788856304985338
1.1730205278592376
1.1700879765395895
1.1622678396871946
1.1495601173020529
1.1397849462365592
1.1319648093841643
1.126099706744868
1.1192570869990224
1.1133919843597262
1.1085043988269794
1.1036168132942326
1.0977517106549364
1.0909090909090908
1.0879765395894427
1.086021505376344
1.0821114369501466
1.0762463343108504
1.0694037145650048
1.06158357771261
1.053763440860215
1.04594330400782
1.0391006842619743
1.0332355816226784
1.0312805474095796
1.0410557184750733
1.0684261974584557
1.1085043988269794
1.1652003910068427
1.2512218963831867
1.3636363636363635
1.4946236559139785
1.635386119257087
1.7790811339198436
1.9188660801564028
2.047898338220919
2.160312805474096
2.259042033235582
2.3440860215053765
2.406647116324536
2.453567937438905
2.4995112414467253
2.5405669599217986
2.576735092864125
2.6080156402737047
2.635386119257087
2.658846529814272
2.678396871945259
2.6940371456500487
2.705767350928641
2.7126099706744866
2.713587487781036
2.70772238514174
2.6959921798631474
2.6832844574780057
2.667644183773216
2.6480938416422286
2.624633431085044
2.593352883675464
2.5532746823069403
2.504398826979472
2.44672531769306
2.3792766373411536
2.304007820136853
2.232649071358749
2.164222873900293
2.09188660801564
2.0205278592375366
1.9550342130987293
1.8973607038123168
1.8484848484848484
1.8074291300097751
1.7732160312805474
1.7419354838709675
1.7126099706744868
1.6842619745845553
1.6588465298142718
1.6363636363636365
1.6109481915933528
1.5835777126099706
1.5581622678396871
1.5327468230694037
1.5063538611925709
1.4809384164222874
1.456500488758553
1.4320625610948192
1.4066471163245358
1.3822091886608017
1.3587487781036167
1.3401759530791788
1.3255131964809383
1.3069403714565004
1.2873900293255132
1.2668621700879763
1.2473118279569892
1.2287390029325511
1.2121212121212122
1.198435972629521
1.1867057673509287
1.1749755620723363
1.164222873900293
1.1573802541544478
1.1534701857282503
1.1466275659824048
1.1397849462365592
1.1319648093841643
1.1241446725317692
1.1163245356793745
1.1094819159335287
1.1026392961876832
1.0948191593352885
1.0879765395894427
1.0821114369501466
1.0772238514173995
1.075268817204301
1.075268817204301
1.0733137829912025
1.0713587487781036
1.0684261974584557
1.0664711632453567
1.064516129032258
1.0625610948191593
1.0606060606060606
1.0576735092864125
1.0547409579667644
1.0498533724340176
1.0478983382209188
1.0488758553274682
1.0469208211143697
1.043010752688172
1.0371456500488758
1.0312805474095796
1.0234604105571847
1.0146627565982405
1.0068426197458455
1.0
0.9931573802541545
0.9872922776148584
0.9824046920821116
0.981427174975562
0.9853372434017597
0.9931573802541545
1.010752688172043
1.0449657869012707
1.1026392961876832
1.1867057673509287
1.2961876832844574
1.4242424242424243
1.5669599217986314
1.7165200391006843
1.865102639296188
1.989247311827957
2.093841642228739
2.20039100684262
2.2991202346041058
2.388074291300098
2.4672531769305963
2.536656891495601
2.5972629521016617
2.6480938416422286
2.69208211143695
2.729227761485826
2.7595307917888565
2.782991202346041
2.795698924731183
2.801564027370479
2.807429130009776
2.812316715542522
2.8152492668621703
2.814271749755621
2.8084066471163247
2.7966764418377323
2.7810361681329425
2.7595307917888565
2.730205278592375
2.69208211143695
2.649071358748778
2.5992179863147604
2.5376344086021505
2.4652981427174976
2.3841642228739004
2.2991202346041058
2.2140762463343107
2.131964809384164
2.0557184750733137
1.988269794721408
1.9305962854349952
1.881720430107527
1.839687194525904
1.8074291300097751
1.780058651026393
1.7517106549364614
1.721407624633431
1.6911045943304008
1.6598240469208212
1.6285434995112416
1.5992179863147604
1.5708699902248289
1.544477028347996
1.5190615835777126
1.4936461388074291
1.4731182795698925
1.455522971652004
1.435972629521017
1.41544477028348
1.393939393939394
1.3714565004887584
1.3499511241446724
1.3284457478005864
1.3069403714565004
1.2854349951124144
1.2639296187683284
1.2443792766373412
1.2258064516129032
1.2140762463343109
1.206256109481916
1.1974584555229717
1.187683284457478
1.1779081133919844
1.1671554252199414
1.1564027370478984
1.1456500488758554
1.1348973607038124
1.1251221896383188
1.1173020527859236
1.1094819159335287
1.1055718475073313
1.104594330400782
1.1016617790811338
1.0977517106549364
1.093841642228739
1.088954056695992
1.083088954056696
1.0762463343108504
1.0694037145650048
1.0381231671554252
1.0371456500488758
1.0361681329423265
1.0371456500488758
1.0449657869012707
1.0654936461388074
1.1036168132942326
1.1652003910068427
1.2541544477028348
1.3714565004887584
1.512218963831867
1.6695992179863148
1.8347996089931573
2.0
2.157380254154448
2.302052785923754
2.4164222873900294
2.5102639296187683
2.6021505376344085
2.686217008797654
2.7614858260019552
2.827956989247312
2.8856304985337244
2.935483870967742
2.978494623655914
3.0146627565982405
3.043010752688172
3.0664711632453567
3.085043988269794
3.09188660801564
3.09188660801564
3.09188660801564
3.089931573802541
3.085043988269794
3.074291300097752
3.058651026392962
3.037145650048876
3.0087976539589443
2.970674486803519
2.920821114369501
2.859237536656892
2.7947214076246336
2.7262952101661777
2.6471163245356792
2.563049853372434
2.47702834799609
2.3929618768328447
2.314760508308896
2.24633431085044
2.1867057673509285
2.134897360703812
2.089931573802541
2.047898338220919
2.0127077223851417
1.9833822091886608
1.9530791788856303
1.9227761485826005
1.895405669599218
1.8699902248289344
1.8465298142717497
1.822091886608016
1.796676441837732
1.7702834799608993
1.7458455522971652
1.7223851417399805
1.6989247311827955
1.6793743890518085
1.6608015640273706
1.6383186705767352
1.6177908113391983
1.598240469208211
1.576735092864125
1.5542521994134897
1.5327468230694037
1.5131964809384164
1.495601173020528
1.479960899315738
1.4643206256109482
1.4516129032258065
1.4408602150537635
1.4301075268817205
1.4193548387096775
1.4076246334310851
1.396871945259042
1.388074291300098
1.3812316715542523
1.3743890518084063
1.3685239491691104
1.3626588465298142
1.3558162267839686
1.3479960899315735
1.343108504398827
1.3401759530791788
1.335288367546432
1.3284457478005864
1.321603128054741
1.3147605083088951
1.310850439882698
1.3079178885630498
1.3040078201368523
1.3010752688172045
1.300097751710655
1.2991202346041055
1.3010752688172045
1.3040078201368523
1.3049853372434017
1.305962854349951
1.3049853372434017
1.303030303030303
1.3010752688172045
1.2981427174975562
1.295210166177908
1.2913000977517106
1.2873900293255132
1.2854349951124144
1.2825024437927663
1.281524926686217
1.281524926686217
1.2795698924731185
1.2766373411534702
1.273704789833822
1.2697947214076246
1.2668621700879763
1.267839687194526
1.273704789833822
1.2903225806451613
1.324535679374389
1.3822091886608017
1.452590420332356
1.5395894428152492
1.6578690127077225
1.7986314760508308
1.951124144672532
2.1065493646138806
2.2580645161290325
2.39980449657869
2.5268817204301075
2.638318670576735
2.7341153470185726
2.817204301075269
2.887585532746823
2.9374389051808407
2.973607038123167
3.010752688172043
3.0449657869012707
3.074291300097752
3.0987292277614857
3.117302052785924
3.129032258064516
3.134897360703812
3.134897360703812
3.1300097751710654
3.121212121212121
3.1055718475073317
3.0840664711632453
3.060606060606061
3.0332355816226784
2.99902248289345
2.956011730205278
2.9042033235581624
2.8406647116324537
2.768328445747801
2.6881720430107525
2.603128054740958
2.5180840664711632
2.4359726295210167
2.3655913978494625
2.304007820136853
2.244379276637341
2.189638318670577
2.1417399804496577
2.099706744868035
2.06158357771261
2.026392961876833
1.992179863147605
1.9579667644183771
1.9237536656891496
1.8905180840664717
1.8621700879765395
1.836754643206256
1.8084066471163245
1.780058651026393
1.7526881720430108
1.7253176930596286
1.6989247311827955
1.6715542521994136
1.6451612903225807
1.6187683284457477
1.5913978494623655
1.564027370478983
1.5356793743890518
1.5141739980449658
1.495601173020528
1.4731182795698925
1.447702834799609
1.423264907135875
1.4007820136852396
1.3822091886608017
1.3655913978494625
1.348973607038123
1.3333333333333333
1.3176930596285434
1.3020527859237536
1.2913000977517106
1.2825024437927663
1.2727272727272727
1.2619745845552297
1.252199413489736
1.2424242424242424
1.2316715542521994
1.2209188660801564
1.2121212121212122
1.2052785923753666
1.1994134897360704
1.1945259042033236
1.1906158357771262
1.1896383186705768
1.1896383186705768
1.187683284457478
1.1837732160312806
1.1788856304985338
1.1730205278592376
1.166177908113392
1.1593352883675463
1.152492668621701
1.1456500488758554
1.1378299120234605
1.1300097751710656
1.126099706744868
1.1241446725317692
1.118279569892473
1.1114369501466277
1.1036168132942326
1.0977517106549364
1.0977517106549364
1.1094819159335287
1.1378299120234605
1.187683284457478
1.2619745845552297
1.3626588465298142
1.4868035190615836
1.6080156402737047
1.729227761485826
1.8699902248289344
2.0146627565982405
2.150537634408602
2.275659824046921
2.3870967741935485
2.4819159335288368
2.560117302052786
2.625610948191593
2.679374389051808
2.724340175953079
2.755620723362659
2.7781036168132944
2.76930596285435
2.742913000977517
2.7370478983382207
2.7390029325513194
2.744868035190616
2.750733137829912
2.7536656891495603
2.752688172043011
2.748778103616813
2.740957966764418
2.727272727272727
2.70772238514174
2.684261974584555
2.6529814271749754
2.611925708699902
2.5610948191593352
2.5004887585532747
2.429130009775171
2.3499511241446727
2.2668621700879767
2.182795698924731
2.101661779081134
2.026392961876833
1.9657869012707725
1.9159335288367547
1.868035190615836
1.8240469208211143
1.7849462365591398
1.7497556207233629
