ppg
1.839687194525904
1.8103616813294232
1.7781036168132942
1.7429130009775171
1.7057673509286413
1.6686217008797657
1.632453567937439
1.598240469208211
1.5650048875855327
1.533724340175953
1.5053763440860215
1.478983382209189
1.4545454545454546
1.4349951124144673
1.418377321603128
1.3998044965786902
1.3812316715542523
1.3626588465298142
1.3450635386119256
1.3294232649071358
1.3157380254154447
1.303030303030303
1.2903225806451613
1.278592375366569
1.267839687194526
1.2590420332355816
1.252199413489736
1.2443792766373412
1.2336265884652982
1.2218963831867058
1.209188660801564
1.1974584555229717
1.1857282502443791
1.1749755620723363
1.164222873900293
1.1544477028347997
1.144672531769306
1.13880742913001
1.1348973607038124
1.1300097751710656
1.1251221896383188
1.1202346041055715
1.1143695014662756
1.1085043988269794
1.1036168132942326
1.099706744868035
1.0948191593352885
1.0899315738025417
1.0869990224828934
1.0840664711632453
1.0840664711632453
1.086021505376344
1.086021505376344
1.0850439882697946
1.083088954056696
1.0811339198435972
1.0772238514173995
1.0733137829912025
1.0703812316715542
1.0684261974584557
1.0664711632453567
1.0654936461388074
1.0664711632453567
1.0684261974584557
1.0694037145650048
1.072336265884653
1.0821114369501466
1.1016617790811338
1.1368523949169111
1.1935483870967742
1.2756598240469208
1.3841642228739004
1.5161290322580645
1.6686217008797657
1.833822091886608
1.9804496578690127
2.113391984359726
2.2561094819159337
2.3929618768328447
2.517106549364614
2.624633431085044
2.713587487781036
2.78494623655914
2.841642228739003
2.8836754643206257
2.913000977517106
2.9315738025415445
2.935483870967742
2.9286412512218964
2.916911045943304
2.897360703812317
2.868035190615836
2.8269794721407626
2.773216031280548
2.7096774193548385
2.636363636363636
2.555229716520039
2.4711632453567938
2.3870967741935485
2.30791788856305
2.239491691104594
2.1818181818181817
2.1270772238514173
2.0791788856304985
2.038123167155425
2.004887585532747
1.9765395894428155
1.9521016617790807
1.927663734115347
1.903225806451613
1.87683284457478
1.8465298142717497
1.818181818181818
1.7888563049853372
1.75366568914956
1.7165200391006843
1.6813294232649072
1.6480938416422288
1.6207233626588464
1.6001955034213098
1.587487781036168
1.5835777126099706
1.5884652981427174
1.6001955034213098
1.6158357771260996
1.6304985337243405
1.6441837732160314
1.6559139784946235
1.6627565982404693
1.6627565982404693
1.656891495601173
1.6441837732160314
1.6265884652981428
1.6050830889540566
1.5806451612903225
1.5532746823069403
1.5239491691104594
1.498533724340176
1.4750733137829912
1.447702834799609
1.418377321603128
1.388074291300098
1.356793743890518
1.3255131964809383
1.2942326490713587
1.262952101661779
1.23069403714565
1.1974584555229717
1.163245356793744
1.1290322580645162
1.1016617790811338
1.078201368523949
1.050830889540567
1.0234604105571847
0.9990224828934506
0.978494623655914
0.9648093841642228
0.9579667644183774
0.9579667644183774
0.9667644183773216
0.9833822091886608
1.0068426197458455
1.0342130987292275
1.064516129032258
1.0987292277614855
1.133919843597263
1.1681329423264908
1.1974584555229717
1.2209188660801564
1.238514173998045
1.2502443792766371
1.2580645161290325
1.2619745845552297
1.2639296187683284
1.2649071358748778
1.2668621700879763
1.2688172043010753
1.2697947214076246
1.273704789833822
1.284457478005865
1.305962854349951
1.3421309872922775
1.3978494623655917
1.474095796676442
1.5718475073313782
1.6871945259042034
1.8162267839687196
1.9335288367546437
2.043010752688172
2.1622678396871944
2.278592375366569
2.3851417399804498
2.4780058651026398
2.5542521994134897
2.6158357771261
2.6637341153470184
2.7008797653958942
2.7282502443792764
2.7468230694037143
2.757575757575758
2.7565982404692084
2.745845552297165
2.730205278592375
2.7067448680351904
2.673509286412512
2.63049853372434
2.578690127077224
2.520039100684262
2.4574780058651027
2.393939393939394
2.3313782991202348
2.271749755620724
2.220918866080156
2.176930596285435
2.136852394916911
2.099706744868035
2.065493646138808
2.034213098729228
2.003910068426197
1.9736070381231672
1.9423264907135875
1.9090909090909087
1.873900293255132
1.835777126099707
1.7947214076246334
1.7575757575757576
1.7204301075268815
1.6793743890518085
1.635386119257087
1.5913978494623655
1.547409579667644
1.5053763440860215
1.4643206256109482
1.4271749755620724
1.392961876832845
1.3607038123167154
1.3313782991202343
1.3088954056695992
1.2913000977517106
1.2727272727272727
1.2561094819159335
1.241446725317693
1.227761485826002
1.217008797653959
1.209188660801564
1.2023460410557183
1.1964809384164223
1.1915933528836755
1.1867057673509287
1.18475073313783
1.18475073313783
1.181818181818182
1.1759530791788857
1.1691104594330402
1.1612903225806452
1.1515151515151516
1.141739980449658
1.1300097751710656
1.1173020527859236
1.104594330400782
1.0909090909090908
1.078201368523949
1.0703812316715542
1.0654936461388074
1.0586510263929618
1.0527859237536656
1.0478983382209188
1.043010752688172
1.0391006842619743
1.0332355816226784
1.0273704789833822
1.0224828934506354
1.018572825024438
1.0166177908113392
1.0175953079178883
1.0205278592375366
1.0224828934506354
1.024437927663734
1.0263929618768328
1.0283479960899315
1.029325513196481
1.0303030303030305
1.0303030303030305
1.0303030303030305
1.0303030303030305
1.0303030303030305
1.0303030303030305
1.0332355816226784
1.0381231671554252
1.0439882697947214
1.053763440860215
1.0733137829912025
1.10752688172043
1.1612903225806452
1.2375366568914956
1.3391984359726294
1.466275659824047
1.6158357771260996
1.7810361681329423
1.9296187683284456
2.0684261974584555
2.219941348973607
2.366568914956012
2.5004887585532747
2.616813294232649
2.7145650048875853
2.7966764418377323
2.863147605083089
2.9159335288367547
2.956989247311828
2.988269794721408
3.0097751710654936
3.016617790811339
3.0127077223851417
2.995112414467253
2.964809384164223
2.9315738025415445
2.889540566959922
2.8367546432062563
2.773216031280548
2.7008797653958942
2.6207233626588464
2.535679374389052
2.450635386119257
2.3743890518084068
2.3059628543499517
2.2375366568914954
2.1739980449657867
2.117302052785924
2.067448680351906
2.024437927663734
1.9872922776148585
1.9530791788856303
1.920821114369501
1.889540566959922
1.857282502443793
1.823069403714565
1.7917888563049853
1.7605083088954057
1.7243401759530792
1.686217008797654
1.6471163245356797
1.6080156402737047
1.5708699902248289
1.5347018572825024
1.501466275659824
1.4701857282502444
1.4418377321603129
1.4173998044965788
1.3998044965786902
1.3870967741935485
1.3782991202346042
1.3763440860215057
1.3822091886608017
1.3958944281524928
1.418377321603128
1.447702834799609
1.4819159335288368
1.5180840664711632
1.555229716520039
1.5913978494623655
1.6256109481915937
1.653958944281525
1.6764418377321604
1.6950146627565983
1.7057673509286413
1.70772238514174
1.699902248289345
1.6823069403714566
1.656891495601173
1.6265884652981428
1.5933528836754642
1.5581622678396871
1.521994134897361
1.4916911045943304
1.4643206256109482
1.434017595307918
1.401759530791789
1.367546432062561
1.3333333333333333
1.2991202346041055
1.2649071358748778
1.2326490713587488
1.2013685239491692
1.1710654936461389
1.142717497556207
1.1173020527859236
1.0987292277614855
1.0850439882697946
1.0694037145650048
1.053763440860215
1.0391006842619743
1.0254154447702837
1.0127077223851415
1.0019550342130987
0.9921798631476052
0.9843597262952102
0.978494623655914
0.9736070381231672
0.9726295210166178
0.9745845552297164
0.9775171065493646
0.9843597262952102
0.9990224828934506
1.0283479960899315
1.0772238514173995
1.1495601173020529
1.2453567937438903
1.3655913978494625
1.5063538611925709
1.6608015640273706
1.823069403714565
1.963831867057673
2.089931573802541
2.2218963831867056
2.347996089931574
2.4613880742913
2.558162267839687
2.6392961876832843
2.7038123167155423
2.755620723362659
2.795698924731183
2.8240469208211145
2.843597262952102
2.849462365591398
2.843597262952102
2.832844574780059
2.814271749755621
2.78494623655914
2.744868035190616
2.6940371456500487
2.633431085043988
2.5640273704789838
2.4887585532746823
2.409579667644184
2.3313782991202348
2.2561094819159337
2.1925708699902247
2.1388074291300097
2.0869990224828934
2.040078201368524
1.9990224828934504
1.962854349951124
1.9305962854349952
1.900293255131965
1.870967741935484
1.842619745845552
1.8132942326490715
1.782991202346041
1.7556207233626588
1.729227761485826
1.699902248289345
1.6686217008797657
1.6363636363636365
1.6050830889540566
1.573802541544477
1.542521994134897
1.512218963831867
1.482893450635386
1.455522971652004
1.4301075268817205
1.4086021505376345
1.3919843597262953
1.3782991202346042
1.3636363636363635
1.348973607038123
1.335288367546432
1.3225806451612905
1.310850439882698
1.300097751710655
1.289345063538612
1.2795698924731185
1.270772238514174
1.2619745845552297
1.2551319648093842
1.2502443792766371
1.2424242424242424
1.2336265884652982
1.2228739002932552
1.2130987292277615
1.2023460410557183
1.1915933528836755
1.181818181818182
1.1730205278592376
1.164222873900293
1.1564027370478984
1.152492668621701
1.1505376344086022
1.1466275659824048
1.141739980449658
1.1368523949169111
1.1319648093841643
1.1270772238514175
1.1221896383186705
1.1173020527859236
1.1124144672531768
1.10752688172043
1.1026392961876832
1.099706744868035
1.1006842619745845
1.1036168132942326
1.104594330400782
1.1055718475073313
1.1055718475073313
1.104594330400782
1.1026392961876832
1.1006842619745845
1.099706744868035
1.0977517106549364
1.0957966764418376
1.0948191593352885
1.096774193548387
1.1016617790811338
1.1085043988269794
1.1221896383186705
1.147605083088954
1.1915933528836755
1.2570869990224829
1.3470185728250244
1.4604105571847508
1.5962854349951123
1.7487781036168133
1.9100684261974583
2.072336265884653
2.2082111436950145
2.32355816226784
2.4408602150537635
2.548387096774193
2.6402737047898337
2.716520039100684
2.7781036168132944
2.8260019550342133
2.86217008797654
2.887585532746823
2.9042033235581624
2.911045943304008
2.905180840664712
2.889540566959922
2.868035190615836
2.8367546432062563
2.793743890518084
2.7390029325513194
2.674486803519061
2.601173020527859
2.5210166177908118
2.436950146627566
2.35386119257087
2.2766373411534704
2.207233626588465
2.1495601173020527
2.101661779081134
2.0576735092864125
2.0195503421309877
1.9853372434017595
1.95405669599218
1.924731182795699
1.895405669599218
1.866080156402737
1.835777126099707
1.8035190615835777
1.7702834799608993
1.7409579667644184
1.7126099706744868
1.6813294232649072
1.6480938416422288
1.6138807429130009
1.5796676441837731
1.5464320625610948
1.5151515151515151
1.4858260019550342
1.4672531769305963
1.455522971652004
1.4389051808406648
1.4203323558162269
1.404692082111437
1.3919843597262953
1.3773216031280548
1.3616813294232648
1.3470185728250244
1.332355816226784
1.3186705767350928
1.305962854349951
1.2932551319648091
1.281524926686217
1.270772238514174
1.2590420332355816
1.2512218963831867
1.2443792766373412
1.2355816226783969
1.2267839687194526
1.2179863147605083
1.2101661779081134
1.203323558162268
1.1974584555229717
1.1915933528836755
1.1857282502443791
1.1798631476050832
1.1730205278592376
1.1652003910068427
1.1612903225806452
1.1593352883675463
1.1544477028347997
1.1505376344086022
1.1466275659824048
1.142717497556207
1.1397849462365592
1.1378299120234605
1.1368523949169111
1.1368523949169111
1.1368523949169111
1.1368523949169111
1.13880742913001
1.142717497556207
1.144672531769306
1.1456500488758554
1.1456500488758554
1.144672531769306
1.1436950146627567
1.141739980449658
1.1397849462365592
1.13880742913001
1.13880742913001
1.1407624633431086
1.1456500488758554
1.155425219941349
1.1720430107526882
1.198435972629521
1.2404692082111437
1.3040078201368523
1.3919843597262953
1.5034213098729228
1.6373411534701858
1.7898338220918866
1.95405669599218
2.120234604105572
2.280547409579668
2.409579667644184
2.5161290322580645
2.6207233626588464
2.7126099706744866
2.790811339198436
2.8533724340175954
2.902248289345064
2.940371456500489
2.9687194525904204
2.986314760508309
2.995112414467253
2.995112414467253
2.98435972629521
2.962854349951124
2.9315738025415445
2.8905180840664717
2.8377321603128056
2.774193548387097
2.701857282502444
2.622678396871945
2.539589442815249
2.455522971652004
2.375366568914956
2.3010752688172045
2.236559139784946
2.1837732160312804
2.139784946236559
2.0987292277614857
2.0625610948191597
2.029325513196481
1.9980449657869013
1.967741935483871
1.9364613880742916
1.905180840664712
1.871945259042033
1.8377321603128052
1.8025415444770283
1.7663734115347018
1.7341153470185728
1.704789833822092
1.6735092864125125
1.6412512218963833
1.6099706744868034
1.5806451612903225
1.552297165200391
1.5268817204301075
1.5024437927663734
1.478983382209189
1.457478005865103
1.4379276637341154
1.423264907135875
1.4105571847507332
1.396871945259042
1.383186705767351
1.3695014662756595
1.3558162267839686
1.3421309872922775
1.3284457478005864
1.3157380254154447
1.3049853372434017
1.2942326490713587
1.284457478005865
1.2776148582600195
1.2727272727272727
1.2658846529814272
1.2590420332355816
1.2512218963831867
1.2434017595307918
1.2346041055718475
1.2258064516129032
1.217008797653959
1.209188660801564
1.2023460410557183
1.195503421309873
1.1896383186705768
1.1867057673509287
1.1857282502443791
1.1827956989247312
1.1788856304985338
1.1749755620723363
1.1710654936461389
1.1681329423264908
1.166177908113392
1.164222873900293
1.1622678396871946
1.1612903225806452
1.160312805474096
1.1622678396871946
1.1652003910068427
1.1652003910068427
1.164222873900293
1.163245356793744
1.1612903225806452
1.160312805474096
1.1612903225806452
1.163245356793744
1.1671554252199414
1.1710654936461389
1.1749755620723363
1.1808406647116323
1.1896383186705768
1.2023460410557183
1.2228739002932552
1.2561094819159335
1.3088954056695992
1.3861192570869991
1.487781036168133
1.611925708699902
1.7556207233626588
1.9130009775171064
2.075268817204301
2.2355816226783967
2.367546432062561
2.4780058651026398
2.5884652981427174
2.6881720430107525
2.773216031280548
2.8426197458455524
2.897360703812317
2.93841642228739
2.9687194525904204
2.988269794721408
2.99902248289345
3.0019550342130987
2.995112414467253
2.9775171065493646
2.949169110459433
2.9100684261974585
2.859237536656892
2.7976539589442817
2.7262952101661777
2.6471163245356792
2.563049853372434
2.4780058651026398
2.396871945259042
2.3225806451612905
2.2561094819159337
2.201368523949169
2.156402737047898
2.114369501466276
2.0762463343108504
2.040078201368524
2.006842619745845
1.9736070381231672
1.9403714565004888
1.90811339198436
1.8758553274682308
1.842619745845552
1.8084066471163245
1.7732160312805474
1.7419354838709675
1.7126099706744868
1.6793743890518085
1.6451612903225807
1.6109481915933528
1.5777126099706744
1.5454545454545454
1.5151515151515151
1.4858260019550342
1.4594330400782014
1.434017595307918
1.4115347018572826
1.393939393939394
1.3812316715542523
1.3665689149560116
1.3519061583577712
1.3372434017595307
1.3225806451612905
1.3079178885630498
1.2942326490713587
1.2805474095796676
1.267839687194526
1.2561094819159335
1.2443792766373412
1.2326490713587488
1.224828934506354
1.2189638318670577
1.2111436950146628
1.203323558162268
1.195503421309873
1.187683284457478
1.1788856304985338
1.1691104594330402
1.160312805474096
1.152492668621701
1.144672531769306
1.1368523949169111
1.133919843597263
1.1329423264907137
1.130987292277615
1.0957966764418376
1.0449657869012707
1.0175953079178883
1.0019550342130987
0.9921798631476052
0.9843597262952102
0.978494623655914
0.9736070381231672
0.9696969696969696
0.967741935483871
0.9687194525904204
0.9706744868035192
0.9716520039100685
0.9706744868035192
0.9696969696969696
0.9696969696969696
0.9696969696969696
0.9696969696969696
0.9696969696969696
0.9706744868035192
0.9745845552297164
0.9833822091886608
0.9980449657869012
1.0224828934506354
1.0635386119257086
1.126099706744868
1.2140762463343109
1.327468230694037
1.466275659824047
1.624633431085044
1.796676441837732
1.9716520039100685
2.142717497556207
2.302052785923754
2.444770283479961
2.552297165200391
2.635386119257087
2.7126099706744866
2.779081133919844
2.832844574780059
2.874877810361681
2.906158357771261
2.927663734115347
2.9393939393939394
2.941348973607038
2.9335288367546437
2.913000977517106
2.8826979472140764
2.8426197458455524
2.790811339198436
2.729227761485826
2.658846529814272
2.581622678396872
2.5004887585532747
2.419354838709677
2.3411534701857284
2.267839687194526
2.203323558162268
2.147605083088954
2.1006842619745845
2.064516129032258
2.037145650048876
2.016617790811339
2.002932551319648
1.997067448680352
1.9960899315738023
1.9990224828934504
2.002932551319648
2.005865102639296
2.005865102639296
2.0009775171065494
1.989247311827957
1.9736070381231672
1.9530791788856303
1.9257086999022484
1.8905180840664717
1.8504398826979471
1.8054740957966764
1.7595307917888563
1.7135874877810362
1.667644183773216
1.6236559139784943
1.5835777126099706
1.544477028347996
1.5063538611925709
1.474095796676442
1.444770283479961
1.4105571847507332
1.3734115347018572
1.3343108504398826
1.2942326490713587
1.2541544477028348
1.2160312805474096
1.181818181818182
1.1534701857282503
1.133919843597263
1.1221896383186705
1.118279569892473
1.1221896383186705
1.1300097751710656
1.1407624633431086
1.152492668621701
1.163245356793744
1.1700879765395895
1.1730205278592376
1.1710654936461389
1.166177908113392
1.1573802541544478
1.147605083088954
1.1397849462365592
1.133919843597263
1.126099706744868
1.118279569892473
1.110459433040078
1.1026392961876832
1.0957966764418376
1.088954056695992
1.083088954056696
1.0762463343108504
1.067448680351906
1.0547409579667644
1.0391006842619743
1.0263929618768328
1.013685239491691
0.9951124144672532
0.9745845552297164
0.9530791788856304
0.9305962854349952
0.9090909090909092
0.8885630498533724
0.8690127077223851
0.8533724340175953
0.8435972629521017
0.844574780058651
0.8582600195503421
0.8885630498533724
0.9423264907135877
1.0234604105571847
1.1348973607038124
1.273704789833822
1.435972629521017
1.6148582600195502
1.801564027370479
1.9853372434017595
2.160312805474096
2.3196480938416424
2.4604105571847508
2.565982404692082
2.6471163245356792
2.7233626588465296
2.788856304985337
2.8426197458455524
2.884652981427175
2.913978494623656
2.930596285434995
2.9335288367546437
2.921798631476051
2.8963831867057674
2.8563049853372435
2.807429130009776
2.7497556207233624
2.677419354838709
2.595307917888563
2.506353861192571
2.4134897360703813
2.320625610948192
2.231671554252199
2.150537634408602
2.078201368523949
2.0146627565982405
1.959921798631476
1.9130009775171064
1.8748778103616808
1.8416422287390029
1.8084066471163245
1.775171065493646
1.7429130009775171
1.7116324535679377
1.6813294232649072
1.6520039100684265
1.6226783968719452
1.5933528836754642
1.564027370478983
1.533724340175953
1.5073313782991202
1.482893450635386
1.4545454545454546
1.4271749755620724
1.4007820136852396
1.3763440860215057
1.3528836754643203
1.3294232649071358
1.3069403714565004
1.2854349951124144
1.2649071358748778
1.2443792766373412
1.2238514173998043
1.2082111436950147
1.1945259042033236
1.176930596285435
1.1583577712609971
1.1407624633431086
1.1231671554252198
1.10752688172043
1.093841642228739
1.0821114369501466
1.072336265884653
1.0635386119257086
1.0547409579667644
1.0488758553274682
1.0439882697947214
1.0371456500488758
1.0283479960899315
1.0205278592375366
1.0127077223851415
1.0048875855327468
0.9990224828934506
0.9941348973607038
0.9902248289345064
0.9863147605083088
0.9824046920821116
0.978494623655914
0.9775171065493646
0.978494623655914
0.9765395894428152
0.9726295210166178
0.967741935483871
0.9628543499511242
0.9589442815249268
0.9560117302052786
0.95405669599218
0.9530791788856304
0.9530791788856304
0.9521016617790812
0.9530791788856304
0.9560117302052786
0.9560117302052786
0.9550342130987292
0.9530791788856304
0.9521016617790812
0.9521016617790812
0.9521016617790812
0.9530791788856304
0.95405669599218
0.9560117302052786
0.9608993157380256
0.9716520039100685
0.9902248289345064
1.0195503421309873
1.067448680351906
1.1397849462365592
1.2394916911045943
1.3665689149560116
1.5190615835777126
1.6911045943304008
1.8748778103616808
2.081133919843597
2.290322580645161
2.466275659824047
2.5972629521016617
2.6989247311827955
2.793743890518084
2.875855327468231
2.943304007820137
2.997067448680352
3.040078201368524
3.072336265884653
3.0948191593352883
3.1094819159335287
3.114369501466276
3.1094819159335287
3.0928641251221896
3.065493646138808
3.027370478983382
2.979472140762464
2.919843597262952
2.849462365591398
2.7702834799608995
2.686217008797654
2.5992179863147604
2.5131964809384164
2.43108504398827
2.355816226783969
2.289345063538612
2.2355816226783967
2.190615835777126
2.1485826001955037
2.1094819159335287
2.074291300097752
2.0410557184750733
2.0087976539589443
1.9775171065493649
1.946236559139785
1.9130009775171064
1.878787878787879
1.8435972629521016
1.8074291300097751
1.7741935483870968
1.7448680351906158
1.7135874877810362
1.6813294232649072
1.6500488758553276
1.6187683284457477
1.587487781036168
1.5571847507331378
1.5278592375366569
1.500488758553275
1.4750733137829912
1.452590420332356
1.4349951124144673
1.4213098729227762
1.4056695992179864
1.391006842619746
1.3763440860215057
1.3616813294232648
1.3479960899315735
1.3343108504398826
1.321603128054741
1.3098729227761483
1.300097751710655
1.2903225806451613
1.281524926686217
1.2766373411534702
1.2727272727272727
1.2668621700879763
1.2590420332355816
1.2502443792766371
1.2404692082111437
1.23069403714565
1.2228739002932552
1.2160312805474096
1.209188660801564
1.203323558162268
1.1994134897360704
1.198435972629521
1.1974584555229717
1.1945259042033236
1.1896383186705768
1.18475073313783
1.1808406647116323
1.1779081133919844
1.1759530791788857
1.1749755620723363
1.1759530791788857
1.1779081133919844
1.1788856304985338
1.181818181818182
1.18475073313783
1.18475073313783
1.1837732160312806
1.181818181818182
1.1798631476050832
1.1788856304985338
1.1788856304985338
1.1798631476050832
1.181818181818182
1.1837732160312806
1.187683284457478
1.195503421309873
1.2082111436950147
1.23069403714565
1.2668621700879763
1.3225806451612905
1.401759530791789
1.5073313782991202
1.6363636363636365
1.7859237536656891
1.948191593352884
2.1163245356793743
2.281524926686217
2.4359726295210167
2.558162267839687
2.6559139784946235
2.7497556207233624
2.831867057673509
2.900293255131965
2.956011730205278
2.9980449657869013
3.0303030303030303
3.053763440860215
3.0684261974584555
3.074291300097752
3.0684261974584555
3.0518084066471163
3.024437927663734
2.986314760508309
2.936461388074292
2.875855327468231
2.8054740957966766
2.7282502443792764
2.64613880742913
2.5620723362658846
2.4809384164222874
2.403714565004888
2.333333333333333
2.269794721407625
2.2170087976539588
2.172043010752688
2.1309872922776147
2.0928641251221896
2.058651026392962
2.024437927663734
1.9902248289345064
1.9560117302052784
1.920821114369501
1.8856304985337244
1.8484848484848484
1.8103616813294232
1.7732160312805474
1.7409579667644184
1.7116324535679377
1.678396871945259
1.6451612903225807
1.611925708699902
1.5806451612903225
1.5513196480938416
1.52297165200391
1.4965786901270772
1.4721407624633431
1.4496578690127078
1.4291300097751711
1.412512218963832
1.3988269794721409
1.383186705767351
