ppg
0.9931573802541545
0.997067448680352
1.0019550342130987
1.0097751710654936
1.021505376344086
1.0371456500488758
1.06158357771261
1.0957966764418376
1.141739980449658
1.1935483870967742
1.2551319648093842
1.335288367546432
1.43108504398827
1.5386119257087
1.6529814271749756
1.76930596285435
1.881720430107527
1.989247311827957
2.088954056695992
2.1788856304985336
2.2580645161290325
2.318670576735093
2.3655913978494625
2.412512218963832
2.455522971652004
2.49266862170088
2.5249266862170088
2.552297165200391
2.5718475073313782
2.58455522971652
2.589442815249267
2.5855327468230693
2.573802541544477
2.5542521994134897
2.529814271749756
2.5024437927663734
2.4701857282502444
2.4330400782013686
2.3929618768328447
2.3519061583577714
2.3098729227761488
2.2688172043010755
2.228739002932551
2.190615835777126
2.15347018572825
2.118279569892473
2.0869990224828934
2.0576735092864125
2.026392961876833
1.9931573802541545
1.9589442815249267
1.9227761485826005
1.8856304985337244
1.847507331378299
1.8084066471163245
1.7673509286412512
1.7253176930596286
1.6813294232649072
1.6363636363636365
1.598240469208211
1.563049853372434
1.5249266862170088
1.4848484848484849
1.444770283479961
1.4056695992179864
1.3685239491691104
1.335288367546432
1.3049853372434017
1.2795698924731185
1.2580645161290325
1.2404692082111437
1.2297165200391007
1.2238514173998043
1.217008797653959
1.2121212121212122
1.2101661779081134
1.2121212121212122
1.217008797653959
1.224828934506354
1.2365591397849462
1.2502443792766371
1.2649071358748778
1.2825024437927663
1.303030303030303
1.3235581622678396
1.346041055718475
1.3724340175953078
1.401759530791789
1.434017595307918
1.4672531769305963
1.501466275659824
1.5356793743890518
1.56891495601173
1.5992179863147604
1.6265884652981428
1.6490713587487782
1.6666666666666667
1.6803519061583578
1.694037145650049
1.70772238514174
1.721407624633431
1.7360703812316716
1.7526881720430108
1.7712609970674489
1.7947214076246334
1.8269794721407624
1.868035190615836
1.9188660801564028
1.9804496578690127
2.0391006842619745
2.0977517106549364
2.1700879765395893
2.2482893450635384
2.3284457478005867
2.407624633431085
2.484848484848485
2.557184750733138
2.6236559139784945
2.6832844574780057
2.7341153470185726
2.777126099706745
2.8044965786901277
2.8240469208211145
2.844574780058651
2.863147605083089
2.878787878787879
2.8914956011730206
2.900293255131965
2.905180840664712
2.9042033235581624
2.897360703812317
2.8836754643206257
2.8641251221896384
2.8367546432062563
2.803519061583578
2.7653958944281527
2.720430107526881
2.6695992179863146
2.6158357771261
2.5610948191593352
2.506353861192571
2.453567937438905
2.4027370478983383
2.355816226783969
2.3118279569892475
2.270772238514174
2.2355816226783967
2.203323558162268
2.16911045943304
2.134897360703812
2.099706744868035
2.064516129032258
2.027370478983382
1.988269794721408
1.9472140762463344
1.903225806451613
1.857282502443793
1.8093841642228736
1.7605083088954057
1.7174975562072337
1.678396871945259
1.6363636363636365
1.5913978494623655
1.5464320625610948
1.501466275659824
1.457478005865103
1.414467253176931
1.3724340175953078
1.332355816226784
1.2942326490713587
1.2580645161290325
1.2297165200391007
1.2052785923753666
1.176930596285435
1.1485826001955035
1.121212121212121
1.096774193548387
1.0762463343108504
1.0586510263929618
1.0439882697947214
1.0312805474095796
1.021505376344086
1.013685239491691
1.007820136852395
1.007820136852395
1.0146627565982405
1.024437927663734
1.0439882697947214
1.0742913000977516
1.1192570869990224
1.1788856304985338
1.2551319648093842
1.3470185728250244
1.4516129032258065
1.5620723362658846
1.6735092864125125
1.7702834799608993
1.855327468230694
1.943304007820137
2.0283479960899315
2.1055718475073317
2.1730205278592374
2.23069403714565
2.297165200391007
2.363636363636364
2.410557184750733
2.444770283479961
2.469208211143695
2.4838709677419355
2.487781036168133
2.484848484848485
2.47702834799609
2.464320625610948
2.444770283479961
2.4173998044965788
2.383186705767351
2.3440860215053765
2.303030303030303
2.259042033235582
2.2140762463343107
2.1710654936461387
2.132942326490713
2.0977517106549364
2.06158357771261
2.027370478983382
1.9951124144672527
1.962854349951124
1.9296187683284456
1.895405669599218
1.8602150537634408
1.8240469208211143
1.7859237536656891
1.7458455522971652
1.710654936461388
1.6774193548387095
1.640273704789834
1.6001955034213098
1.5581622678396871
1.5131964809384164
1.4682306940371457
1.4222873900293256
1.3792766373411536
1.3391984359726294
1.3010752688172045
1.2649071358748778
1.23069403714565
1.2052785923753666
1.1857282502443791
1.164222873900293
1.1436950146627567
1.1241446725317692
1.10752688172043
1.0948191593352885
1.0869990224828934
1.083088954056696
1.0850439882697946
1.0948191593352885
1.1124144672531768
1.1378299120234605
1.1720430107526882
1.219941348973607
1.2825024437927663
1.359726295210166
1.4506353861192571
1.552297165200391
1.6578690127077225
1.7653958944281525
1.870967741935484
1.9726295210166176
2.0684261974584555
2.156402737047898
2.2277614858260018
2.286412512218964
2.346041055718475
2.403714565004888
2.4574780058651027
2.506353861192571
2.5513196480938416
2.589442815249267
2.619745845552297
2.6422287390029324
2.6559139784946235
2.66177908113392
2.659824046920821
2.650048875855328
2.635386119257087
2.613880742913001
2.5865102639296187
2.5542521994134897
2.517106549364614
2.47702834799609
2.434017595307918
2.3900293255131966
2.347018572825025
2.3059628543499517
2.2688172043010755
2.236559139784946
2.206256109481916
2.175953079178885
2.146627565982405
2.1163245356793743
2.086021505376344
2.0557184750733137
2.0234604105571847
1.989247311827957
1.95405669599218
1.9188660801564028
1.8826979472140764
1.8514173998044965
1.822091886608016
1.7869012707722385
1.7497556207233629
1.710654936461388
1.6695992179863148
1.6285434995112416
1.587487781036168
1.5483870967741935
1.5102639296187683
1.474095796676442
1.439882697947214
1.4086021505376345
1.3841642228739004
1.3655913978494625
1.346041055718475
1.327468230694037
1.3147605083088951
1.310850439882698
1.316715542521994
1.3372434017595307
1.3734115347018572
1.426197458455523
1.4946236559139785
1.5777126099706744
1.6608015640273706
1.7458455522971652
1.8465298142717497
1.9550342130987293
2.064516129032258
2.1700879765395893
2.267839687194526
2.3548387096774195
2.4281524926686218
2.4887585532746823
2.5386119257087
2.5777126099706744
2.606060606060606
2.622678396871945
2.63049853372434
2.634408602150537
2.633431085043988
2.625610948191593
2.6099706744868034
2.5865102639296187
2.5562072336265884
2.520039100684262
2.4789833822091887
2.4359726295210167
2.3929618768328447
2.3528836754643208
2.315738025415445
2.27761485826002
2.239491691104594
2.2023460410557183
2.16911045943304
2.1378299120234603
2.10752688172043
2.078201368523949
2.048875855327468
2.018572825024438
1.986314760508309
1.9521016617790807
1.920821114369501
1.889540566959922
1.8533724340175952
1.81524926686217
1.775171065493646
1.7341153470185728
1.6911045943304008
1.64613880742913
1.6011730205278591
1.5562072336265884
1.512218963831867
1.4701857282502444
1.4349951124144673
1.404692082111437
1.370478983382209
1.3343108504398826
1.300097751710655
1.267839687194526
1.2375366568914956
1.2082111436950147
1.1808406647116323
1.1573802541544478
1.1358748778103618
1.1163245356793745
1.0987292277614855
1.0879765395894427
1.0801564027370478
1.0703812316715542
1.0606060606060606
1.053763440860215
1.050830889540567
1.0498533724340176
1.050830889540567
1.0547409579667644
1.0625610948191593
1.0742913000977516
1.0918866080156402
1.1143695014662756
1.1436950146627567
1.181818181818182
1.2316715542521994
1.2932551319648091
1.3685239491691104
1.457478005865103
1.5591397849462365
1.6705767350928642
1.7878787878787878
1.90811339198436
2.0283479960899315
2.146627565982405
2.24633431085044
2.333333333333333
2.4242424242424243
2.5131964809384164
2.595307917888563
2.667644183773216
2.729227761485826
2.780058651026393
2.8211143695014664
2.8514173998044967
2.8719452590420333
2.8836754643206257
2.8836754643206257
2.8729227761485827
2.857282502443793
2.835777126099707
2.807429130009776
2.773216031280548
2.7331378299120237
2.6881720430107525
2.6402737047898337
2.589442815249267
2.5376344086021505
2.4858260019550342
2.439882697947214
2.3958944281524928
2.3499511241446727
2.304985337243402
2.2629521016617797
2.220918866080156
2.1788856304985336
2.136852394916911
2.0948191593352883
2.050830889540567
2.004887585532747
1.956989247311828
1.90811339198436
1.8641251221896384
1.826001955034213
1.7810361681329423
1.7282502443792769
1.6715542521994136
1.6129032258064515
1.5532746823069403
1.4926686217008798
1.4330400782013686
1.3763440860215057
1.321603128054741
1.2688172043010753
1.2267839687194526
1.1915933528836755
1.152492668621701
1.1133919843597262
1.0742913000977516
1.0361681329423265
1.0009775171065494
0.967741935483871
0.93841642228739
0.9120234604105572
0.8905180840664711
0.8719452590420332
0.855327468230694
0.8465298142717498
0.8426197458455523
0.8357771260997068
0.8289345063538612
0.823069403714565
0.820136852394917
0.8191593352883676
0.8211143695014663
0.8269794721407625
0.8357771260997068
0.8475073313782991
0.8621700879765396
0.8807429130009775
0.9002932551319648
0.9208211143695014
0.9433040078201368
0.9667644183773216
0.9931573802541545
1.021505376344086
1.0518084066471165
1.0840664711632453
1.118279569892473
1.1544477028347997
1.1915933528836755
1.2287390029325511
1.262952101661779
1.295210166177908
1.3284457478005864
1.3636363636363635
1.3998044965786902
1.4379276637341154
1.479960899315738
1.525904203323558
1.576735092864125
1.6334310850439884
1.699902248289345
1.775171065493646
1.8465298142717497
1.9188660801564028
2.005865102639296
2.102639296187683
2.203323558162268
2.303030303030303
2.39980449657869
2.49266862170088
2.578690127077224
2.658846529814272
2.730205278592375
2.7947214076246336
2.852394916911046
2.895405669599218
2.9266862170087977
2.960899315738025
2.9931573802541545
3.0195503421309877
3.0391006842619745
3.0518084066471163
3.0576735092864125
3.0557184750733137
3.046920821114369
3.03128054740958
3.007820136852395
2.979472140762464
2.946236559139785
2.9071358748778104
2.86217008797654
2.812316715542522
2.757575757575758
2.699902248289345
2.641251221896383
2.581622678396872
2.5239491691104594
2.469208211143695
2.418377321603128
2.3704789833822093
2.3304007820136854
2.2952101661779083
2.260019550342131
2.225806451612903
2.1915933528836757
2.157380254154448
2.1221896383186705
2.0840664711632453
2.042033235581622
1.9980449657869013
1.951124144672532
1.903225806451613
1.86119257086999
1.8211143695014664
1.7771260997067448
1.729227761485826
1.6803519061583578
1.632453567937439
1.585532746823069
1.5395894428152492
1.4946236559139785
1.452590420332356
1.412512218963832
1.3743890518084063
1.33822091886608
1.3098729227761483
1.2873900293255132
1.2619745845552297
1.2375366568914956
1.2160312805474096
1.1964809384164223
1.1808406647116323
1.1671554252199414
1.155425219941349
1.1466275659824048
1.1397849462365592
1.1358748778103618
1.1368523949169111
1.1407624633431086
1.1456500488758554
1.1505376344086022
1.1564027370478984
1.1622678396871946
1.1691104594330402
1.1779081133919844
1.1867057673509287
1.195503421309873
1.2052785923753666
1.217008797653959
1.2297165200391007
1.2453567937438903
1.262952101661779
1.2805474095796676
1.2981427174975562
1.316715542521994
1.3372434017595307
1.3607038123167154
1.3900293255131966
1.4281524926686218
1.4760508308895406
1.5347018572825024
1.6050830889540566
1.6735092864125125
1.7438905180840665
1.827956989247312
1.9227761485826005
2.022482893450636
2.1251221896383186
2.2277614858260018
2.3274682306940373
2.423264907135875
2.555229716520039
2.6373411534701856
2.713587487781036
2.807429130009776
2.854349951124145
2.905180840664712
2.95405669599218
2.99902248289345
3.037145650048876
3.067448680351906
3.0879765395894427
3.0977517106549364
3.089931573802541
3.070381231671554
3.0254154447702835
2.986314760508309
2.9393939393939394
2.887585532746823
2.831867057673509
2.773216031280548
2.7145650048875853
2.6578690127077222
2.603128054740958
2.5513196480938416
2.5024437927663734
2.4565004887585533
2.4134897360703813
2.375366568914956
2.3411534701857284
2.3069403714565007
2.271749755620724
2.236559139784946
2.19941348973607
2.158357771260997
2.090909090909091
2.043010752688172
1.991202346041056
1.9100684261974583
1.8621700879765395
1.8172043010752688
1.7663734115347018
1.7145650048875856
1.66177908113392
1.608993157380254
1.5562072336265884
1.504398826979472
1.4545454545454546
1.4056695992179864
1.3587487781036167
1.3147605083088951
1.2805474095796676
1.2512218963831867
1.2179863147605083
1.18475073313783
1.1505376344086022
1.118279569892473
1.088954056695992
1.0478983382209188
1.024437927663734
1.0039100684261977
0.978494623655914
0.9648093841642228
0.9589442815249268
0.9579667644183774
0.956989247311828
0.9579667644183774
0.9628543499511242
0.9726295210166178
0.9882697947214076
1.0127077223851415
1.0478983382209188
1.0977517106549364
1.164222873900293
1.2482893450635386
1.335288367546432
1.4281524926686218
1.5405669599217986
1.6627565982404693
1.7888563049853372
1.9130009775171064
2.029325513196481
2.134897360703812
2.225806451612903
2.300097751710655
2.361681329423265
2.412512218963832
2.455522971652004
2.4858260019550342
2.50733137829912
2.527859237536657
2.5434995112414467
2.5542521994134897
2.558162267839687
2.5562072336265884
2.5464320625610948
2.529814271749756
2.506353861192571
2.4760508308895406
2.4389051808406648
2.401759530791789
2.363636363636364
2.320625610948192
2.275659824046921
2.231671554252199
2.189638318670577
2.1495601173020527
2.112414467253177
2.0791788856304985
2.047898338220919
2.01564027370479
1.9833822091886608
1.9521016617790807
1.924731182795699
1.8983382209188664
1.868035190615836
1.8347996089931573
1.7996089931573802
1.7634408602150538
1.7253176930596286
1.6852394916911049
1.6451612903225807
2.312805474095797
2.3655913978494625
2.418377321603128
2.4682306940371457
2.5141739980449658
2.5542521994134897
2.5865102639296187
2.610948191593353
2.6265884652981426
2.633431085043988
2.632453567937439
2.622678396871945
2.6070381231671558
2.58455522971652
2.555229716520039
2.5190615835777126
2.4780058651026398
2.434017595307918
2.388074291300098
2.3421309872922778
2.2981427174975564
2.2580645161290325
2.2218963831867056
2.188660801564027
2.161290322580645
2.136852394916911
2.112414467253177
2.089931573802541
2.067448680351906
2.0449657869012707
2.0205278592375366
1.994134897360704
1.963831867057673
1.9286412512218964
1.8914956011730208
1.8523949169110456
1.8113391984359728
1.775171065493646
1.7409579667644184
1.7018572825024438
1.6588465298142718
1.6138807429130009
1.56891495601173
1.5239491691104594
1.479960899315738
1.436950146627566
1.396871945259042
1.3587487781036167
1.3235581622678396
1.2961876832844574
1.273704789833822
1.249266862170088
1.224828934506354
1.2023460410557183
1.1837732160312806
1.1681329423264908
1.155425219941349
1.1466275659824048
1.1397849462365592
1.1358748778103618
1.1348973607038124
1.1358748778103618
1.141739980449658
1.1495601173020529
1.1564027370478984
1.163245356793744
1.1710654936461389
1.1798631476050832
1.1906158357771262
1.2003910068426198
1.2101661779081134
1.2218963831867058
1.2346041055718475
1.2482893450635386
1.262952101661779
1.2776148582600195
1.2903225806451613
1.303030303030303
1.3147605083088951
1.3264907135874875
1.3391984359726294
1.3528836754643203
1.367546432062561
1.3822091886608017
1.3978494623655917
1.4173998044965788
1.4428152492668622
1.469208211143695
1.5024437927663734
1.547409579667644
1.603128054740958
1.6705767350928642
1.7497556207233629
1.839687194525904
1.93841642228739
2.0439882697947214
2.1544477028347995
2.2658846529814274
2.3743890518084068
2.464320625610948
2.541544477028348
2.621700879765396
2.6989247311827955
2.76930596285435
2.831867057673509
2.8856304985337244
2.930596285434995
2.9657869012707723
2.9931573802541545
3.0117302052785924
3.022482893450636
3.026392961876833
3.0205278592375366
3.006842619745845
2.989247311827957
2.967741935483871
2.93841642228739
2.903225806451613
2.863147605083089
2.81622678396872
2.764418377321604
2.708699902248289
2.650048875855328
2.590420332355816
2.535679374389052
2.484848484848485
2.4330400782013686
2.380254154447703
2.321603128054741
2.260997067448681
2.2052785923753664
2.1524926686217007
2.099706744868035
2.048875855327468
1.997067448680352
1.9442815249266865
1.8905180840664717
1.8435972629521016
1.7996089931573802
1.7497556207233629
1.6959921798631477
1.6392961876832846
1.581622678396872
1.5249266862170088
1.4682306940371457
1.414467253176931
1.3616813294232648
1.310850439882698
1.2619745845552297
1.2228739002932552
1.1896383186705768
1.1534701857282503
1.1173020527859236
1.0811339198435972
1.0478983382209188
1.0175953079178883
0.9902248289345064
0.9657869012707724
0.9452590420332356
0.9286412512218964
0.9159335288367546
0.906158357771261
0.9051808406647116
0.9090909090909092
0.913978494623656
0.9227761485826002
0.9345063538611924
0.9501466275659824
0.9706744868035192
0.997067448680352
1.0283479960899315
1.0654936461388074
1.1085043988269794
1.1573802541544478
1.206256109481916
1.2551319648093842
1.3079178885630498
1.364613880742913
1.423264907135875
1.4838709677419355
1.547409579667644
1.6148582600195502
1.686217008797654
1.7605083088954057
1.8377321603128052
1.916911045943304
1.9951124144672527
2.06158357771261
2.121212121212121
2.185728250244379
2.249266862170088
2.310850439882698
2.367546432062561
2.418377321603128
2.4613880742913
2.496578690127077
2.52297165200391
2.541544477028348
2.552297165200391
2.5532746823069403
2.547409579667644
2.5347018572825024
2.5141739980449658
2.487781036168133
2.455522971652004
2.419354838709677
2.3792766373411536
2.335288367546432
2.290322580645161
2.2453567937438903
2.2023460410557183
2.1652003910068425
2.132942326490713
2.102639296187683
2.0772238514174
2.0547409579667644
2.035190615835777
2.016617790811339
1.9990224828934504
1.9804496578690127
1.9579667644183771
1.9305962854349952
1.8973607038123168
1.857282502443793
1.8191593352883677
1.7790811339198436
1.729227761485826
1.6735092864125125
1.616813294232649
1.5610948191593352
1.5053763440860215
1.4516129032258065
1.401759530791789
1.356793743890518
1.316715542521994
1.2825024437927663
1.2590420332355816
1.2424242424242424
1.224828934506354
1.209188660801564
1.198435972629521
1.1935483870967742
1.1935483870967742
1.2013685239491692
1.2218963831867058
1.2570869990224829
1.3088954056695992
1.3792766373411536
1.4672531769305963
1.5562072336265884
1.6480938416422288
1.7546432062561097
1.868035190615836
1.9804496578690127
2.0869990224828934
2.1818181818181817
2.2639296187683287
2.334310850439883
2.3919843597262958
2.4408602150537635
2.4809384164222874
2.50733137829912
2.5249266862170088
2.539589442815249
2.550342130987292
2.5542521994134897
2.549364613880743
2.536656891495601
2.515151515151515
2.4858260019550342
2.4486803519061584
2.404692082111437
2.357771260997068
2.3088954056695994
2.2658846529814274
2.225806451612903
2.1837732160312804
2.142717497556207
2.1055718475073317
2.0733137829912023
2.043010752688172
2.0146627565982405
1.9872922776148585
1.9608993157380252
1.9345063538611929
1.9071358748778104
1.881720430107527
1.8563049853372435
1.8269794721407624
1.7927663734115349
1.7556207233626588
1.7174975562072337
1.678396871945259
1.6373411534701858
1.5962854349951123
1.555229716520039
1.5131964809384164
1.4711632453567938
1.4301075268817205
1.396871945259042
1.3665689149560116
1.3333333333333333
1.3010752688172045
1.2688172043010753
1.2375366568914956
1.209188660801564
1.18475073313783
1.164222873900293
1.147605083088954
1.1368523949169111
1.1319648093841643
1.1358748778103618
1.1466275659824048
1.1652003910068427
1.1945259042033236
1.2336265884652982
1.284457478005865
1.3470185728250244
1.4222873900293256
1.5073313782991202
1.6001955034213098
1.6979472140762464
1.796676441837732
1.8944281524926687
1.975562072336266
2.0439882697947214
2.110459433040078
2.1681329423264906
2.2130987292277613
2.247311827956989
2.271749755620724
2.286412512218964
2.29227761485826
2.291300097751711
2.2844574780058653
2.2737047898338223
2.260019550342131
2.244379276637341
2.2238514173998043
2.20039100684262
2.1739980449657867
2.145650048875855
2.115347018572825
2.085043988269794
2.0557184750733137
2.0283479960899315
2.005865102639296
1.989247311827957
1.9765395894428155
1.9667644183773216
1.9608993157380252
1.956989247311828
1.9560117302052784
1.9550342130987293
1.9530791788856303
1.9501466275659824
1.945259042033236
1.9374389051808407
1.9257086999022484
1.911045943304008
1.89247311827957
1.873900293255132
1.8543499511241448
1.8299120234604105
1.801564027370479
1.76930596285435
1.7350928641251222
1.6989247311827955
1.66177908113392
1.624633431085044
1.587487781036168
1.5513196480938416
1.5141739980449658
1.478005865102639
1.4486803519061584
1.4222873900293256
1.391006842619746
1.3587487781036167
1.3264907135874875
1.2942326490713587
1.262952101661779
1.2336265884652982
1.2072336265884651
1.18475073313783
1.203323558162268
1.2443792766373412
1.262952101661779
1.2717497556207231
1.2717497556207231
1.267839687194526
1.2649071358748778
1.2639296187683284
1.2658846529814272
1.2717497556207231
1.281524926686217
1.2932551319648091
1.3069403714565004
1.3235581622678396
1.3411534701857282
1.3587487781036167
1.3773216031280548
1.3949169110459434
1.412512218963832
1.4320625610948192
1.4545454545454546
1.4819159335288368
1.5141739980449658
1.552297165200391
1.5972629521016617
1.651026392961877
1.7116324535679377
1.7702834799608993
1.8318670576735088
1.9071358748778104
1.992179863147605
2.0869990224828934
2.1915933528836757
2.304007820136853
2.419354838709677
2.536656891495601
2.652003910068426
2.7624633431085046
2.8690127077223853
2.95405669599218
3.026392961876833
3.1055718475073317
3.1837732160312804
3.2580645161290325
3.3255131964809386
3.3851417399804498
3.436950146627566
3.4819159335288368
3.5180840664711632
3.544477028347996
3.5620723362658846
3.56891495601173
3.563049853372434
3.548387096774193
3.5288367546432062
3.5034213098729228
3.4682306940371457
3.4242424242424243
3.3734115347018574
3.313782991202346
3.247311827956989
3.176930596285435
3.104594330400782
3.032258064516129
2.967741935483871
2.9100684261974585
2.852394916911046
2.7966764418377323
2.744868035190616
2.696969696969697
2.652003910068426
2.608993157380254
2.567937438905181
2.5268817204301075
2.484848484848485
2.441837732160313
2.396871945259042
2.355816226783969
2.317693059628544
2.275659824046921
2.23069403714565
2.182795698924731
2.131964809384164
2.0791788856304985
2.024437927663734
1.970674486803519
1.9149560117302051
1.8602150537634408
1.8084066471163245
1.7653958944281525
1.7282502443792769
1.686217008797654
1.6412512218963833
1.5962854349951123
1.552297165200391
1.5112414467253177
1.4721407624633431
1.4349951124144673
1.4027370478983383
1.3743890518084063
1.3509286412512218
1.3313782991202343
1.3206256109481915
1.316715542521994
1.310850439882698
1.3049853372434017
1.300097751710655
1.2981427174975562
1.2971652003910068
1.2971652003910068
1.2991202346041055
1.305962854349951
1.3157380254154447
1.3294232649071358
1.346041055718475
1.3636363636363635
