ppg
1.224828934506354
1.224828934506354
1.2267839687194526
1.2355816226783969
1.2561094819159335
1.2991202346041055
1.3714565004887584
1.479960899315738
1.6226783968719452
1.7956989247311828
1.9872922776148585
2.1847507331378297
2.375366568914956
2.550342130987292
2.6823069403714563
2.7810361681329425
2.868035190615836
2.935483870967742
2.981427174975562
3.006842619745845
3.013685239491691
3.004887585532747
2.98435972629521
2.9550342130987293
2.917888563049853
2.874877810361681
2.8260019550342133
2.7751710654936463
2.721407624633431
2.658846529814272
2.589442815249267
2.5141739980449658
2.4330400782013686
2.346041055718475
2.254154447702835
2.160312805474096
2.0684261974584555
1.9804496578690127
1.8973607038123168
1.827956989247312
1.76930596285435
1.7126099706744868
1.6598240469208212
1.6148582600195502
1.5777126099706744
1.547409579667644
1.521994134897361
1.501466275659824
1.4848484848484849
1.4701857282502444
1.457478005865103
1.444770283479961
1.434017595307918
1.4242424242424243
1.4105571847507332
1.392961876832845
1.3724340175953078
1.348973607038123
1.3255131964809383
1.300097751710655
1.273704789833822
1.2482893450635386
1.2258064516129032
1.2043010752688172
1.187683284457478
1.1730205278592376
1.1564027370478984
1.1378299120234605
1.118279569892473
1.099706744868035
1.0821114369501466
1.0654936461388074
1.0498533724340176
1.0361681329423265
1.0234604105571847
1.0117302052785924
1.0
0.9902248289345064
0.981427174975562
0.9706744868035192
0.9618768328445748
0.9521016617790812
0.9433040078201368
0.9374389051808406
0.9325513196480938
0.927663734115347
0.9247311827956988
0.9237536656891496
0.9227761485826002
0.9266862170087976
0.9305962854349952
0.9325513196480938
0.935483870967742
0.9374389051808406
0.93841642228739
0.9403714565004888
0.9413489736070382
0.9423264907135877
0.9442815249266864
0.9472140762463344
0.9511241446725318
0.9530791788856304
0.9560117302052786
0.9589442815249268
0.9608993157380256
0.9628543499511242
0.9638318670576737
0.9648093841642228
0.9657869012707724
0.9696969696969696
0.9736070381231672
0.975562072336266
0.975562072336266
0.9726295210166178
0.9696969696969696
0.9687194525904204
0.9696969696969696
0.9833822091886608
1.0205278592375366
1.0899315738025417
1.1964809384164223
1.3411534701857282
1.5180840664711632
1.7174975562072337
1.9227761485826005
2.121212121212121
2.2795698924731185
2.406647116324536
2.5288367546432062
2.633431085043988
2.7155425219941347
2.774193548387097
2.812316715542522
2.834799608993157
2.841642228739003
2.8367546432062563
2.822091886608016
2.798631476050831
2.7673509286412514
2.732160312805474
2.6930596285435
2.650048875855328
2.601173020527859
2.5464320625610948
2.4858260019550342
2.421309872922776
2.3499511241446727
2.270772238514174
2.185728250244379
2.0957966764418376
2.003910068426197
1.9227761485826005
1.8484848484848484
1.76930596285435
1.6920821114369502
1.6236559139784943
1.5650048875855327
1.517106549364614
1.479960899315738
1.4496578690127078
1.4271749755620724
1.409579667644184
1.3949169110459434
1.3812316715542523
1.3714565004887584
1.3636363636363635
1.370478983382209
1.3851417399804498
1.388074291300098
1.3861192570869991
1.3812316715542523
1.3734115347018572
1.3616813294232648
1.3479960899315735
1.3333333333333333
1.3186705767350928
1.3069403714565004
1.2961876832844574
1.284457478005865
1.2717497556207231
1.2570869990224829
1.2434017595307918
1.23069403714565
1.2189638318670577
1.2072336265884651
1.195503421309873
1.18475073313783
1.173998044965787
1.1652003910068427
1.160312805474096
1.1583577712609971
1.155425219941349
1.1534701857282503
1.152492668621701
1.1534701857282503
1.1544477028347997
1.1564027370478984
1.1583577712609971
1.1593352883675463
1.160312805474096
1.1612903225806452
1.1622678396871946
1.1652003910068427
1.1671554252199414
1.1691104594330402
1.1710654936461389
1.173998044965787
1.176930596285435
1.1808406647116323
1.18475073313783
1.1886608015640274
1.1925708699902249
1.1974584555229717
1.2043010752688172
1.2130987292277615
1.2218963831867058
1.2287390029325511
1.2355816226783969
1.2404692082111437
1.2453567937438903
1.2512218963831867
1.2580645161290325
1.2658846529814272
1.273704789833822
1.2795698924731185
1.2825024437927663
1.284457478005865
1.2854349951124144
1.284457478005865
1.2825024437927663
1.2864125122189638
1.3049853372434017
1.3440860215053765
1.412512218963832
1.5141739980449658
1.6500488758553276
1.812316715542522
1.9902248289345064
2.1730205278592374
2.326490713587488
2.4565004887585533
2.5865102639296187
2.701857282502444
2.7966764418377323
2.8670576735092865
2.9159335288367547
2.9442815249266863
2.9550342130987293
2.951124144672532
2.9374389051808407
2.9149560117302054
2.8856304985337244
2.852394916911046
2.8152492668621703
2.774193548387097
2.7282502443792764
2.67644183773216
2.619745845552297
2.557184750733138
2.4887585532746823
2.4144672531769307
2.335288367546432
2.2531769305962857
2.1681329423264906
2.09188660801564
2.021505376344086
1.9501466275659824
1.8826979472140764
1.823069403714565
1.772238514173998
1.729227761485826
1.6950146627565983
1.6666666666666667
1.64613880742913
1.632453567937439
1.6217008797653958
1.6138807429130009
1.607038123167155
1.598240469208211
1.587487781036168
1.5747800586510263
1.5591397849462365
1.542521994134897
1.5249266862170088
1.5073313782991202
1.4897360703812317
1.4721407624633431
1.4535679374389052
1.4349951124144673
1.418377321603128
1.4007820136852396
1.3812316715542523
1.359726295210166
1.335288367546432
1.3088954056695992
1.2834799608993157
1.2580645161290325
1.2346041055718475
1.2111436950146628
1.1896383186705768
1.1710654936461389
1.1583577712609971
1.147605083088954
1.1348973607038124
1.121212121212121
1.1085043988269794
1.093841642228739
1.0811339198435972
1.0694037145650048
1.0576735092864125
1.0488758553274682
1.043010752688172
1.0381231671554252
1.0332355816226784
1.0312805474095796
1.0303030303030305
1.0273704789833822
1.024437927663734
1.0205278592375366
1.0166177908113392
1.013685239491691
1.0117302052785924
1.010752688172043
1.010752688172043
1.0117302052785924
1.0146627565982405
1.0195503421309873
1.024437927663734
1.0263929618768328
1.0283479960899315
1.029325513196481
1.029325513196481
1.029325513196481
1.0303030303030305
1.0303030303030305
1.029325513196481
1.0273704789833822
1.024437927663734
1.0234604105571847
1.024437927663734
1.0254154447702837
1.0342130987292275
1.0596285434995112
1.1114369501466277
1.195503421309873
1.3128054740957966
1.4604105571847508
1.6304985337243405
1.8132942326490715
1.9960899315738023
2.167155425219941
2.3010752688172045
2.4056695992179864
2.504398826979472
2.58455522971652
2.644183773216031
2.686217008797654
2.7116324535679373
2.7223851417399803
2.720430107526881
2.708699902248289
2.6881720430107525
2.659824046920821
2.627565982404692
2.591397849462365
2.5513196480938416
2.506353861192571
2.4565004887585533
2.401759530791789
2.3411534701857284
2.2737047898338223
2.201368523949169
2.124144672531769
2.043010752688172
1.959921798631476
1.8778103616813293
1.8064516129032255
1.7448680351906158
1.6823069403714566
1.6236559139784943
1.5708699902248289
1.525904203323558
1.487781036168133
1.456500488758553
1.43108504398827
1.4134897360703813
1.4007820136852396
1.3919843597262953
1.388074291300098
1.3841642228739004
1.3782991202346042
1.3714565004887584
1.364613880742913
1.3558162267839686
1.3450635386119256
1.332355816226784
1.3186705767350928
1.3040078201368523
1.289345063538612
1.2746823069403714
1.2580645161290325
1.2443792766373412
1.2336265884652982
1.219941348973607
1.206256109481916
1.1915933528836755
1.1779081133919844
1.1652003910068427
1.1515151515151516
1.1378299120234605
1.126099706744868
1.1163245356793745
1.10752688172043
1.1026392961876832
1.0987292277614855
1.0918866080156402
1.083088954056696
1.0742913000977516
1.064516129032258
1.0547409579667644
1.0478983382209188
1.0420332355816226
1.035190615835777
1.0283479960899315
1.0224828934506354
1.0175953079178883
1.0166177908113392
1.0166177908113392
1.0146627565982405
1.013685239491691
1.0127077223851415
1.0127077223851415
1.0146627565982405
1.0175953079178883
1.021505376344086
1.0254154447702837
1.0273704789833822
1.0283479960899315
1.0312805474095796
1.0342130987292275
1.0342130987292275
1.0342130987292275
1.0342130987292275
1.0342130987292275
1.0342130987292275
1.0342130987292275
1.0342130987292275
1.0342130987292275
1.0342130987292275
1.0342130987292275
1.035190615835777
1.0410557184750733
1.0557184750733135
1.0869990224828934
1.1436950146627567
1.2336265884652982
1.3558162267839686
1.5083088954056696
1.683284457478006
1.870967741935484
2.056695992179863
2.2297165200391005
2.3822091886608017
2.496578690127077
2.5806451612903225
2.6559139784946235
2.7155425219941347
2.758553274682307
2.7859237536656893
2.7996089931573804
2.801564027370479
2.791788856304985
2.7722385141739982
2.7468230694037143
2.7145650048875853
2.67644183773216
2.635386119257087
2.592375366568915
2.5434995112414467
2.4887585532746823
2.429130009775171
2.363636363636364
2.291300097751711
2.21505376344086
2.136852394916911
2.059628543499511
1.9843597262952104
1.9120234604105573
1.8504398826979471
1.7986314760508308
1.7497556207233629
1.7057673509286413
1.6695992179863148
1.640273704789834
1.6177908113391983
1.6021505376344083
1.5923753665689149
1.587487781036168
1.5835777126099706
1.5796676441837731
1.5757575757575757
1.5718475073313782
1.5679374389051808
1.5620723362658846
1.555229716520039
1.547409579667644
1.5376344086021505
1.5268817204301075
1.5161290322580645
1.504398826979472
1.4926686217008798
1.4809384164222874
1.469208211143695
1.4594330400782014
1.4506353861192571
1.4408602150537635
1.4301075268817205
1.4193548387096775
1.4076246334310851
1.396871945259042
1.388074291300098
1.3792766373411536
1.3714565004887584
1.3636363636363635
1.356793743890518
1.3499511241446724
1.3450635386119256
1.3411534701857282
1.3362658846529814
1.3313782991202343
1.3284457478005864
1.3264907135874875
1.3235581622678396
1.3186705767350928
1.3118279569892473
1.3049853372434017
1.2971652003910068
1.289345063538612
1.284457478005865
1.2825024437927663
1.2795698924731185
1.2756598240469208
1.2717497556207231
1.267839687194526
1.2649071358748778
1.2609970674486803
1.2561094819159335
1.2512218963831867
1.24633431085044
1.2424242424242424
1.2404692082111437
1.2375366568914956
1.2316715542521994
1.2267839687194526
1.2228739002932552
1.2189638318670577
1.2160312805474096
1.2130987292277615
1.2101661779081134
1.206256109481916
1.2003910068426198
1.1915933528836755
1.1827956989247312
1.1788856304985338
1.181818181818182
1.198435972629521
1.2365591397849462
1.3040078201368523
1.4037145650048877
1.5347018572825024
1.689149560117302
1.8563049853372435
2.0234604105571847
2.1808406647116323
2.320625610948192
2.4242424242424243
2.498533724340176
2.5640273704789838
2.6148582600195502
2.6471163245356792
2.664711632453568
2.668621700879765
2.659824046920821
2.641251221896383
2.613880742913001
2.5806451612903225
2.5405669599217986
2.4946236559139785
2.447702834799609
2.398826979472141
2.343108504398827
2.281524926686217
2.21505376344086
2.1436950146627565
2.0684261974584555
1.9902248289345064
1.9100684261974583
1.828934506353861
1.750733137829912
1.6774193548387095
1.616813294232649
1.565982404692082
1.517106549364614
1.4711632453567938
1.4320625610948192
1.4007820136852396
1.3763440860215057
1.3577712609970674
1.343108504398827
1.332355816226784
1.3235581622678396
1.316715542521994
1.3088954056695992
1.303030303030303
1.2981427174975562
1.2913000977517106
1.281524926686217
1.270772238514174
1.260019550342131
1.2473118279569892
1.2316715542521994
1.2160312805474096
1.1994134897360704
1.181818181818182
1.164222873900293
1.1515151515151516
1.141739980449658
1.1290322580645162
1.115347018572825
1.1036168132942326
1.0918866080156402
1.0801564027370478
1.0694037145650048
1.0586510263929618
1.0488758553274682
1.0410557184750733
1.0332355816226784
1.024437927663734
1.0195503421309873
1.0175953079178883
1.013685239491691
1.0097751710654936
1.0058651026392962
1.0019550342130987
0.9980449657869012
0.9941348973607038
0.9902248289345064
0.9863147605083088
0.9824046920821116
0.978494623655914
0.9775171065493646
0.9804496578690128
0.981427174975562
0.9824046920821116
0.9824046920821116
0.9804496578690128
0.978494623655914
0.9775171065493646
0.9775171065493646
0.9775171065493646
0.978494623655914
0.9804496578690128
0.9833822091886608
0.989247311827957
0.9941348973607038
0.9951124144672532
0.9960899315738024
0.9960899315738024
0.9960899315738024
0.9951124144672532
0.9931573802541545
0.989247311827957
0.9824046920821116
0.9726295210166178
0.9648093841642228
0.9648093841642228
0.9775171065493646
1.007820136852395
1.0791788856304985
1.1915933528836755
1.332355816226784
1.501466275659824
1.6901270772238517
1.8885630498533723
2.085043988269794
2.2668621700879767
2.4252199413489737
2.558162267839687
2.653958944281525
2.720430107526881
2.776148582600196
2.81622678396872
2.841642228739003
2.8533724340175954
2.852394916911046
2.841642228739003
2.8211143695014664
2.791788856304985
2.755620723362659
2.7126099706744866
2.667644183773216
2.621700879765396
2.5698924731182795
2.5131964809384164
2.450635386119257
2.3812316715542523
2.3069403714565007
2.23069403714565
2.150537634408602
2.0684261974584555
1.9853372434017595
1.905180840664712
1.8318670576735088
1.772238514173998
1.7243401759530792
1.6793743890518085
1.6412512218963833
1.611925708699902
1.590420332355816
1.5747800586510263
1.563049853372434
1.555229716520039
1.5493646138807429
1.544477028347996
1.5395894428152492
1.5366568914956011
1.533724340175953
1.530791788856305
1.5268817204301075
1.521016617790811
1.5112414467253177
1.500488758553275
1.4887585532746823
1.478005865102639
1.4682306940371457
1.4594330400782014
1.4506353861192571
1.4418377321603129
1.4349951124144673
1.4281524926686218
1.418377321603128
1.4056695992179864
1.393939393939394
1.3812316715542523
1.3695014662756595
1.359726295210166
1.3519061583577712
1.346041055718475
1.3411534701857282
1.3362658846529814
1.3343108504398826
1.3333333333333333
1.3304007820136852
1.3264907135874875
1.324535679374389
1.3255131964809383
1.3264907135874875
1.3294232649071358
1.332355816226784
1.3362658846529814
1.3391984359726294
1.3411534701857282
1.3421309872922775
1.343108504398827
1.3450635386119256
1.346041055718475
1.346041055718475
1.346041055718475
1.3450635386119256
1.3440860215053765
1.3421309872922775
1.3401759530791788
1.3391984359726294
1.3372434017595307
1.3343108504398826
1.3333333333333333
1.3333333333333333
1.3333333333333333
1.332355816226784
1.332355816226784
1.332355816226784
1.3304007820136852
1.324535679374389
1.3157380254154447
1.3049853372434017
1.2942326490713587
1.2903225806451613
1.2971652003910068
1.3225806451612905
1.3763440860215057
1.4633431085043989
1.58455522971652
1.7341153470185728
1.9042033235581624
2.081133919843597
2.2531769305962857
2.409579667644184
2.544477028347996
2.652003910068426
2.7331378299120237
2.782991202346041
2.811339198435973
2.8299120234604107
2.834799608993157
2.8260019550342133
2.8054740957966766
2.776148582600196
2.739980449657869
2.697947214076246
2.6510263929618767
2.598240469208211
2.5405669599217986
2.484848484848485
2.4281524926686218
2.361681329423265
2.289345063538612
2.212121212121212
2.1309872922776147
2.04594330400782
1.9589442815249267
1.8729227761485825
1.7898338220918866
1.7126099706744868
1.640273704789834
1.576735092864125
1.5278592375366569
1.490713587487781
1.456500488758553
1.4281524926686218
1.4056695992179864
1.388074291300098
1.375366568914956
1.364613880742913
1.3558162267839686
1.346041055718475
1.3372434017595307
1.3294232649071358
1.3235581622678396
1.3176930596285434
1.3098729227761483
1.300097751710655
1.2883675464320623
1.2756598240469208
1.260019550342131
1.241446725317693
1.2228739002932552
1.2052785923753666
1.187683284457478
1.1710654936461389
1.1544477028347997
1.141739980449658
1.1329423264907137
1.1221896383186705
1.1094819159335287
1.0957966764418376
1.0821114369501466
1.0694037145650048
1.056695992179863
1.0449657869012707
1.0361681329423265
1.0303030303030305
1.024437927663734
1.0224828934506354
1.0234604105571847
1.021505376344086
1.018572825024438
1.0146627565982405
1.010752688172043
1.0068426197458455
1.002932551319648
0.9990224828934506
0.9951124144672532
0.9902248289345064
0.9863147605083088
0.9824046920821116
0.981427174975562
0.9824046920821116
0.9824046920821116
0.9824046920821116
0.9843597262952102
0.9872922776148584
0.9912023460410556
0.9951124144672532
0.9980449657869012
0.9990224828934506
1.0
1.0
1.002932551319648
1.0087976539589445
1.013685239491691
1.018572825024438
1.0234604105571847
1.0254154447702837
1.024437927663734
1.021505376344086
1.018572825024438
1.0156402737047898
1.018572825024438
1.0342130987292275
1.0713587487781036
1.1241446725317692
1.2003910068426198
1.3157380254154447
1.4643206256109482
1.6383186705767352
1.8269794721407624
2.0146627565982405
2.190615835777126
2.347018572825025
2.4789833822091887
2.58455522971652
2.6637341153470184
2.7126099706744866
2.739980449657869
2.758553274682307
2.7653958944281527
2.763440860215054
2.755620723362659
2.740957966764418
2.719452590420332
2.6901270772238512
2.653958944281525
2.613880742913001
2.5698924731182795
2.5210166177908118
2.4711632453567938
2.418377321603128
2.355816226783969
2.2873900293255134
2.21505376344086
2.1388074291300097
2.060606060606061
1.9794721407624636
1.900293255131965
1.8435972629521016
1.7976539589442817
1.7429130009775171
1.6959921798631477
1.656891495601173
1.619745845552297
1.5884652981427174
1.564027370478983
1.5464320625610948
1.5356793743890518
1.5298142717497556
1.5268817204301075
1.525904203323558
1.5249266862170088
1.5249266862170088
1.5249266862170088
1.5249266862170088
1.521994134897361
1.5161290322580645
1.509286412512219
1.501466275659824
1.4916911045943304
1.478983382209189
1.4643206256109482
1.447702834799609
1.43108504398827
1.414467253176931
1.4007820136852396
1.3919843597262953
1.3851417399804498
1.3773216031280548
1.3695014662756595
1.3616813294232648
1.3558162267839686
1.3499511241446724
1.3421309872922775
1.335288367546432
1.3294232649071358
1.324535679374389
1.3196480938416422
1.3147605083088951
1.313782991202346
1.3157380254154447
1.316715542521994
1.316715542521994
1.316715542521994
1.3157380254154447
1.3157380254154447
1.3157380254154447
1.3157380254154447
1.3176930596285434
1.3206256109481915
1.324535679374389
1.3294232649071358
1.335288367546432
1.3401759530791788
1.3450635386119256
1.3499511241446724
1.3548387096774193
1.3587487781036167
1.3636363636363635
1.367546432062561
1.3724340175953078
1.3763440860215057
1.3812316715542523
1.3851417399804498
1.3470185728250244
1.3255131964809383
1.3049853372434017
1.2854349951124144
1.2658846529814272
1.2453567937438903
1.2258064516129032
1.2072336265884651
1.1896383186705768
1.173998044965787
1.1622678396871946
1.1534701857282503
1.144672531769306
1.1368523949169111
1.1290322580645162
1.121212121212121
1.1133919843597262
1.1065493646138806
1.099706744868035
1.0948191593352885
1.0899315738025417
1.0840664711632453
1.0811339198435972
1.0791788856304985
1.0742913000977516
1.067448680351906
1.0606060606060606
1.056695992179863
1.0606060606060606
1.0801564027370478
1.1221896383186705
1.1935483870967742
1.2991202346041055
1.4349951124144673
1.5933528836754642
1.7409579667644184
1.8797653958944285
2.029325513196481
2.172043010752688
2.297165200391007
2.39980449657869
2.47702834799609
2.532746823069404
2.567937438905181
2.587487781036168
2.5943304007820136
2.590420332355816
2.5777126099706744
2.558162267839687
2.5347018572825024
2.505376344086021
2.4701857282502444
2.4301075268817205
2.383186705767351
2.329423264907136
2.269794721407625
2.206256109481916
2.1378299120234603
2.065493646138808
1.989247311827957
1.9188660801564028
1.8523949169110456
1.780058651026393
1.70772238514174
1.6412512218963833
1.581622678396872
1.5298142717497556
1.4868035190615836
1.4516129032258065
1.4242424242424243
1.4066471163245358
1.393939393939394
1.3861192570869991
1.3812316715542523
1.375366568914956
1.3685239491691104
1.3616813294232648
1.3548387096774193
1.3479960899315735
1.3411534701857282
1.332355816226784
1.321603128054741
1.3088954056695992
1.2961876832844574
1.284457478005865
1.2756598240469208
1.267839687194526
1.2561094819159335
1.2434017595307918
1.2287390029325511
1.2130987292277615
1.198435972629521
1.1857282502443791
1.1749755620723363
1.166177908113392
1.1583577712609971
1.1495601173020529
1.1436950146627567
1.1397849462365592
1.133919843597263
1.1270772238514175
1.1202346041055715
1.1133919843597262
1.104594330400782
1.0928641251221896
1.0791788856304985
1.067448680351906
1.0596285434995112
1.0596285434995112
1.0742913000977516
1.104594330400782
1.155425219941349
1.2394916911045943
1.3558162267839686
1.4975562072336266
1.6559139784946235
1.8191593352883677
1.9765395894428155
2.118279569892473
2.2404692082111435
2.340175953079179
2.41544477028348
2.463343108504399
2.4916911045943304
2.5102639296187683
2.5190615835777126
2.5180840664711632
2.5083088954056696
2.4887585532746823
2.4613880742913
2.4281524926686218
2.389051808406647
2.3440860215053765
2.2932551319648096
2.2355816226783967
2.1788856304985336
2.120234604105572
2.0527859237536656
1.9794721407624636
1.903225806451613
1.825024437927664
1.7497556207233629
1.6793743890518085
1.6148582600195502
1.5581622678396871
1.5102639296187683
1.4711632453567938
1.444770283479961
1.426197458455523
1.4134897360703813
1.4056695992179864
1.4007820136852396
1.3988269794721409
1.3978494623655917
1.396871945259042
1.3958944281524928
1.3958944281524928
1.3958944281524928
1.3949169110459434
1.393939393939394
1.3919843597262953
1.3890518084066472
1.3851417399804498
1.3792766373411536
1.3724340175953078
1.3655913978494625
1.3587487781036167
1.3509286412512218
1.3421309872922775
1.3333333333333333
1.3235581622678396
1.313782991202346
1.305962854349951
1.2981427174975562
1.289345063538612
1.281524926686217
1.2756598240469208
1.270772238514174
1.267839687194526
1.2658846529814272
1.2649071358748778
1.2649071358748778
1.2649071358748778
1.2639296187683284
1.2639296187683284
1.2658846529814272
1.2658846529814272
1.2639296187683284
1.262952101661779
1.2639296187683284
1.2649071358748778
1.2668621700879763
1.2697947214076246
1.273704789833822
1.2766373411534702
1.2795698924731185
1.2805474095796676
1.2825024437927663
1.284457478005865
1.2854349951124144
1.2864125122189638
1.289345063538612
1.2932551319648091
1.2981427174975562
1.3020527859237536
1.3069403714565004
1.310850439882698
1.313782991202346
1.3176930596285434
1.3206256109481915
1.3235581622678396
1.3235581622678396
1.321603128054741
1.3186705767350928
1.3098729227761483
1.3049853372434017
1.321603128054741
1.3655913978494625
1.444770283479961
1.5610948191593352
1.7145650048875856
1.8983382209188664
2.070381231671554
2.232649071358749
2.412512218963832
2.5865102639296187
2.7390029325513194
2.8641251221896384
2.9589442815249267
3.024437927663734
3.0625610948191597
3.078201368523949
3.078201368523949
3.064516129032258
3.037145650048876
3.0019550342130987
2.960899315738025
2.913978494623656
2.860215053763441
2.80058651026393
2.735092864125122
2.6637341153470184
2.587487781036168
2.506353861192571
2.420332355816227
2.3313782991202348
2.2404692082111435
2.157380254154448
2.081133919843597
2.0019550342130987
