ppg
2.271749755620724
2.2140762463343107
2.166177908113392
2.126099706744868
2.0869990224828934
2.0518084066471163
2.018572825024438
1.9872922776148585
1.9579667644183771
1.9286412512218964
1.8993157380254155
1.868035190615836
1.835777126099707
1.8025415444770283
1.7732160312805474
1.7448680351906158
1.7135874877810362
1.6803519061583578
1.64613880742913
1.611925708699902
1.5786901270772238
1.5454545454545454
1.5131964809384164
1.482893450635386
1.452590420332356
1.4242424242424243
1.3958944281524928
1.3743890518084063
1.3558162267839686
1.335288367546432
1.313782991202346
1.2932551319648091
1.2727272727272727
1.2531769305962854
1.2355816226783969
1.219941348973607
1.2052785923753666
1.1915933528836755
1.1798631476050832
1.1720430107526882
1.1671554252199414
1.160312805474096
1.152492668621701
1.144672531769306
1.1378299120234605
1.130987292277615
1.1241446725317692
1.118279569892473
1.1124144672531768
1.1065493646138806
1.1016617790811338
1.096774193548387
1.0948191593352885
1.0948191593352885
1.0918866080156402
1.088954056695992
1.0840664711632453
1.0791788856304985
1.0742913000977516
1.0684261974584557
1.0625610948191593
1.056695992179863
1.0518084066471165
1.0498533724340176
1.053763440860215
1.0635386119257086
1.0811339198435972
1.1143695014662756
1.1681329423264908
1.2473118279569892
1.3509286412512218
1.478983382209189
1.624633431085044
1.7820136852394917
1.9442815249266865
2.104594330400782
2.2580645161290325
2.3812316715542523
2.4838709677419355
2.5865102639296187
2.681329423264907
2.7653958944281527
2.8367546432062563
2.895405669599218
2.9442815249266863
2.983382209188661
3.013685239491691
3.034213098729228
3.046920821114369
3.046920821114369
3.037145650048876
3.021505376344086
2.997067448680352
2.961876832844575
2.9149560117302054
2.857282502443793
2.790811339198436
2.7145650048875853
2.632453567937439
2.547409579667644
2.462365591397849
2.380254154447703
2.310850439882698
2.2502443792766376
2.1915933528836757
2.133919843597263
2.081133919843597
2.037145650048876
1.9990224828934504
1.964809384164223
1.9315738025415443
1.900293255131965
1.869012707722385
1.8387096774193548
1.812316715542522
1.7878787878787878
1.7595307917888563
1.729227761485826
1.6989247311827955
1.6666666666666667
1.6344086021505375
1.6011730205278591
1.5669599217986314
1.533724340175953
1.499511241446725
1.466275659824047
1.4349951124144673
1.4105571847507332
1.3890518084066472
1.364613880742913
1.3401759530791788
1.316715542521994
1.2942326490713587
1.2727272727272727
1.2512218963831867
1.2316715542521994
1.2140762463343109
1.1974584555229717
1.181818181818182
1.1700879765395895
1.1622678396871946
1.152492668621701
1.141739980449658
1.1319648093841643
1.1221896383186705
1.1124144672531768
1.1036168132942326
1.0957966764418376
1.088954056695992
1.0821114369501466
1.0762463343108504
1.0713587487781036
1.0694037145650048
1.0694037145650048
1.0684261974584557
1.0654936461388074
1.0625610948191593
1.0596285434995112
1.056695992179863
1.053763440860215
1.0498533724340176
1.0449657869012707
1.040078201368524
1.0361681329423265
1.035190615835777
1.035190615835777
1.0342130987292275
1.0342130987292275
1.0381231671554252
1.0527859237536656
1.0811339198435972
1.1290322580645162
1.1994134897360704
1.29227761485826
1.4076246334310851
1.5405669599217986
1.686217008797654
1.8191593352883677
1.9423264907135875
2.0772238514174
2.210166177908113
2.335288367546432
2.447702834799609
2.5464320625610948
2.6295210166177907
2.6989247311827955
2.755620723362659
2.8025415444770285
2.8396871945259043
2.86217008797654
2.874877810361681
2.884652981427175
2.8885630498533725
2.8856304985337244
2.8729227761485827
2.850439882697948
2.817204301075269
2.773216031280548
2.718475073313783
2.654936461388074
2.5855327468230693
2.5102639296187683
2.439882697947214
2.3734115347018574
2.304985337243402
2.2385141739980448
2.176930596285435
2.120234604105572
2.070381231671554
2.026392961876833
1.986314760508309
1.951124144672532
1.9188660801564028
1.8875855327468232
1.8602150537634408
1.835777126099707
1.8093841642228736
1.7810361681329423
1.7517106549364614
1.721407624633431
1.6911045943304008
1.6598240469208212
1.6265884652981428
1.5933528836754642
1.560117302052786
1.5268817204301075
1.499511241446725
1.4750733137829912
1.447702834799609
1.4193548387096775
1.391006842619746
1.3636363636363635
1.3372434017595307
1.3128054740957966
1.2903225806451613
1.2688172043010753
1.2473118279569892
1.227761485826002
1.2101661779081134
1.198435972629521
1.1886608015640274
1.1759530791788857
1.163245356793744
1.1515151515151516
1.1407624633431086
1.1300097751710656
1.1202346041055715
1.110459433040078
1.1006842619745845
1.0918866080156402
1.0850439882697946
1.083088954056696
1.083088954056696
1.0801564027370478
1.0762463343108504
1.0713587487781036
1.0664711632453567
1.06158357771261
1.0557184750733135
1.0498533724340176
1.0439882697947214
1.040078201368524
1.0371456500488758
1.035190615835777
1.0371456500488758
1.0391006842619743
1.0371456500488758
1.0342130987292275
1.0312805474095796
1.0283479960899315
1.0283479960899315
1.0332355816226784
1.0469208211143697
1.075268817204301
1.1231671554252198
1.1935483870967742
1.2717497556207231
1.3626588465298142
1.4809384164222874
1.6187683284457477
1.7683284457478006
1.921798631476051
2.072336265884653
2.21505376344086
2.346041055718475
2.462365591397849
2.5640273704789838
2.650048875855328
2.7233626588465296
2.774193548387097
2.8103616813294234
2.844574780058651
2.873900293255132
2.8963831867057674
2.913000977517106
2.9227761485826003
2.9227761485826003
2.913000977517106
2.89247311827957
2.8611925708699903
2.8181818181818183
2.76930596285435
2.7145650048875853
2.650048875855328
2.578690127077224
2.5034213098729228
2.4281524926686218
2.35386119257087
2.2825024437927666
2.217986314760508
2.1593352883675463
2.1065493646138806
2.06158357771261
2.022482893450636
1.9902248289345064
1.9618768328445748
1.932551319648094
1.9042033235581624
1.8758553274682308
1.8484848484848484
1.8201368523949168
1.790811339198436
1.7605083088954057
1.729227761485826
1.696969696969697
1.6637341153470186
1.6344086021505375
1.607038123167155
1.576735092864125
1.5454545454545454
1.5131964809384164
1.4819159335288368
1.4506353861192571
1.4203323558162269
1.391006842619746
1.3636363636363635
1.33822091886608
1.3147605083088951
1.29227761485826
1.2746823069403714
1.2609970674486803
1.2453567937438903
1.2287390029325511
1.2130987292277615
1.1994134897360704
1.1867057673509287
1.1749755620723363
1.163245356793744
1.1515151515151516
1.1407624633431086
1.1319648093841643
1.1270772238514175
1.1241446725317692
1.1192570869990224
1.1133919843597262
1.10752688172043
1.1016617790811338
1.0948191593352885
1.088954056695992
1.083088954056696
1.078201368523949
1.067448680351906
1.0547409579667644
1.0478983382209188
1.04594330400782
1.0469208211143697
1.04594330400782
1.043010752688172
1.040078201368524
1.035190615835777
1.0303030303030305
1.0254154447702837
1.021505376344086
1.0195503421309873
1.0224828934506354
1.0342130987292275
1.0547409579667644
1.0879765395894427
1.141739980449658
1.2189638318670577
1.3206256109481915
1.444770283479961
1.587487781036168
1.7419354838709675
1.903225806451613
2.0635386119257086
2.2170087976539588
2.3597262952101663
2.486803519061584
2.5835777126099706
2.659824046920821
2.7331378299120237
2.7996089931573804
2.8563049853372435
2.903225806451613
2.940371456500489
2.9696969696969697
2.989247311827957
3.0
3.0019550342130987
2.9931573802541545
2.973607038123167
2.945259042033236
2.90811339198436
2.860215053763441
2.801564027370479
2.7341153470185726
2.659824046920821
2.5806451612903225
2.5004887585532747
2.421309872922776
2.346041055718475
2.27761485826002
2.21505376344086
2.163245356793744
2.1192570869990224
2.078201368523949
2.0391006842619745
2.0019550342130987
1.9667644183773216
1.9315738025415443
1.8963831867057677
1.86119257086999
1.825024437927664
1.7878787878787878
1.750733137829912
1.7174975562072337
1.686217008797654
1.6520039100684265
1.616813294232649
1.5826001955034212
1.5503421309872922
1.5190615835777126
1.4887585532746823
1.4604105571847508
1.4330400782013686
1.4066471163245358
1.3822091886608017
1.359726295210166
1.343108504398827
1.3304007820136852
1.3147605083088951
1.2991202346041055
1.284457478005865
1.2717497556207231
1.2590420332355816
1.2473118279569892
1.2365591397849462
1.2267839687194526
1.2179863147605083
1.2111436950146628
1.2101661779081134
1.2140762463343109
1.2258064516129032
1.2512218963831867
1.2932551319648091
1.3548387096774193
1.436950146627566
1.5376344086021505
1.6529814271749756
1.7761485826001957
1.902248289345064
2.0254154447702835
2.126099706744868
2.2111436950146626
2.2961876832844577
2.3734115347018574
2.4389051808406648
2.4916911045943304
2.5317693059628543
2.5591397849462365
2.575757575757576
2.581622678396872
2.575757575757576
2.5591397849462365
2.5317693059628543
2.496578690127077
2.453567937438905
2.398826979472141
2.334310850439883
2.2629521016617797
2.188660801564027
2.113391984359726
2.040078201368524
1.9716520039100685
1.911045943304008
1.857282502443793
1.8113391984359728
1.7761485826001957
1.7487781036168133
1.7243401759530792
1.7028347996089932
1.683284457478006
1.664711632453568
1.64613880742913
1.6265884652981428
1.606060606060606
1.58455522971652
1.5620723362658846
1.5395894428152492
1.517106549364614
1.498533724340176
1.4809384164222874
1.4594330400782014
1.436950146627566
1.4134897360703813
1.391006842619746
1.3685239491691104
1.346041055718475
1.324535679374389
1.3040078201368523
1.2834799608993157
1.2639296187683284
1.249266862170088
1.238514173998045
1.2258064516129032
1.2130987292277615
1.1994134897360704
1.1867057673509287
1.1749755620723363
1.1652003910068427
1.155425219941349
1.1456500488758554
1.1358748778103618
1.1270772238514175
1.118279569892473
1.1124144672531768
1.1094819159335287
1.104594330400782
1.0987292277614855
1.0928641251221896
1.0869990224828934
1.0811339198435972
1.0772238514173995
1.0733137829912025
1.0694037145650048
1.0664711632453567
1.064516129032258
1.0664711632453567
1.0694037145650048
1.0694037145650048
1.067448680351906
1.0654936461388074
1.064516129032258
1.064516129032258
1.064516129032258
1.064516129032258
1.0635386119257086
1.0625610948191593
1.0606060606060606
1.0586510263929618
1.0596285434995112
1.0625610948191593
1.0635386119257086
1.0635386119257086
1.0635386119257086
1.0635386119257086
1.0635386119257086
1.0635386119257086
1.0635386119257086
1.0635386119257086
1.0635386119257086
1.0635386119257086
1.0664711632453567
1.0703812316715542
1.072336265884653
1.0733137829912025
1.0742913000977516
1.0742913000977516
1.075268817204301
1.075268817204301
1.075268817204301
1.0742913000977516
1.0713587487781036
1.0694037145650048
1.0733137829912025
1.0850439882697946
1.1094819159335287
1.1534701857282503
1.2238514173998043
1.3235581622678396
1.4535679374389052
1.6109481915933528
1.7898338220918866
1.9824046920821117
2.179863147605083
2.3734115347018574
2.557184750733138
2.704789833822092
2.8269794721407626
2.9501466275659824
3.064516129032258
3.1652003910068425
3.2521994134897363
3.324535679374389
3.383186705767351
3.4301075268817205
3.4652981427174976
3.4887585532746823
3.501466275659824
3.5024437927663734
3.4887585532746823
3.464320625610948
3.432062561094819
3.389051808406647
3.335288367546432
3.270772238514174
3.1974584555229715
3.117302052785924
3.032258064516129
2.946236559139785
2.860215053763441
2.777126099706745
2.7038123167155423
2.6373411534701856
2.5718475073313782
2.509286412512219
2.380254154447703
2.2218963831867056
2.1251221896383186
2.059628543499511
2.010752688172043
1.970674486803519
1.9335288367546437
1.8993157380254155
1.865102639296188
1.833822091886608
1.8035190615835777
1.7712609970674489
1.737047898338221
1.7028347996089932
1.667644183773216
1.6334310850439884
1.6001955034213098
1.5669599217986314
1.5347018572825024
1.504398826979472
1.474095796676442
1.4496578690127078
1.4281524926686218
1.404692082111437
1.3812316715542523
1.3577712609970674
1.3343108504398826
1.3128054740957966
1.2932551319648091
1.2746823069403714
1.2570869990224829
1.241446725317693
1.2258064516129032
1.2111436950146628
1.2003910068426198
1.1915933528836755
1.1808406647116323
1.1691104594330402
1.1583577712609971
1.147605083088954
1.1368523949169111
1.1270772238514175
1.1173020527859236
1.1085043988269794
1.099706744868035
1.0909090909090908
1.086021505376344
1.0840664711632453
1.0801564027370478
1.075268817204301
1.0703812316715542
1.064516129032258
1.0586510263929618
1.0527859237536656
1.0478983382209188
1.0439882697947214
1.040078201368524
1.0361681329423265
1.032258064516129
1.0312805474095796
1.0312805474095796
1.029325513196481
1.0263929618768328
1.024437927663734
1.0263929618768328
1.035190615835777
1.0547409579667644
1.0879765395894427
1.13880742913001
1.2072336265884651
1.2942326490713587
1.3812316715542523
1.4711632453567938
1.5786901270772238
1.6950146627565983
1.8113391984359728
1.924731182795699
2.029325513196481
2.12316715542522
2.204301075268817
2.2737047898338223
2.332355816226784
2.380254154447703
2.412512218963832
2.4330400782013686
2.4516129032258065
2.4652981427174976
2.4731182795698925
2.474095796676442
2.4672531769305963
2.452590420332356
2.429130009775171
2.396871945259042
2.356793743890518
2.3098729227761488
2.2561094819159337
2.204301075268817
2.1524926686217007
2.0957966764418376
2.038123167155425
1.9824046920821117
1.9305962854349952
1.8836754643206255
1.8416422287390029
1.8054740957966764
1.7741935483870968
1.7468230694037146
1.7223851417399805
1.7028347996089932
1.6852394916911049
1.6666666666666667
1.6480938416422288
1.6275659824046922
1.607038123167155
1.58455522971652
1.5610948191593352
1.5376344086021505
1.512218963831867
1.4858260019550342
1.4594330400782014
1.4320625610948192
1.409579667644184
1.3900293255131966
1.3685239491691104
1.3450635386119256
1.3225806451612905
1.300097751710655
1.2776148582600195
1.2551319648093842
1.2336265884652982
1.2140762463343109
1.195503421309873
1.1779081133919844
1.166177908113392
1.1583577712609971
1.1485826001955035
1.1378299120234605
1.1270772238514175
1.1173020527859236
1.10752688172043
1.0977517106549364
1.088954056695992
1.0821114369501466
1.075268817204301
1.0694037145650048
1.0635386119257086
1.0606060606060606
1.0586510263929618
1.0557184750733135
1.050830889540567
1.04594330400782
1.0410557184750733
1.0361681329423265
1.032258064516129
1.0283479960899315
1.0254154447702837
1.0224828934506354
1.0205278592375366
1.021505376344086
1.0234604105571847
1.024437927663734
1.0234604105571847
1.0224828934506354
1.0195503421309873
1.0146627565982405
1.0097751710654936
1.0068426197458455
1.007820136852395
1.0166177908113392
1.0381231671554252
1.0762463343108504
1.1231671554252198
1.1837732160312806
1.2668621700879763
1.3695014662756595
1.4868035190615836
1.611925708699902
1.7409579667644184
1.868035190615836
1.989247311827957
2.099706744868035
2.198435972629521
2.2844574780058653
2.347996089931574
2.3958944281524928
2.441837732160313
2.482893450635386
2.5180840664711632
2.5454545454545454
2.565982404692082
2.579667644183773
2.5865102639296187
2.5855327468230693
2.575757575757576
2.557184750733138
2.5288367546432062
2.493646138807429
2.453567937438905
2.404692082111437
2.347996089931574
2.286412512218964
2.222873900293255
2.1593352883675463
2.0977517106549364
2.040078201368524
1.986314760508309
1.93841642228739
1.8963831867057677
1.86119257086999
1.8318670576735088
1.804496578690127
1.7781036168132942
1.75366568914956
1.7302052785923754
1.7067448680351909
1.6842619745845553
1.6608015640273706
1.6373411534701858
1.611925708699902
1.5865102639296187
1.560117302052786
1.5366568914956011
1.5141739980449658
1.4887585532746823
1.4623655913978495
1.435972629521017
1.409579667644184
1.3841642228739004
1.3587487781036167
1.3343108504398826
1.310850439882698
1.2883675464320623
1.267839687194526
1.2512218963831867
1.2365591397849462
1.219941348973607
1.203323558162268
1.187683284457478
1.1730205278592376
1.1593352883675463
1.1466275659824048
1.1348973607038124
1.1241446725317692
1.1133919843597262
1.1036168132942326
1.093841642228739
1.088954056695992
1.086021505376344
1.0811339198435972
1.0762463343108504
1.072336265884653
1.0684261974584557
1.0635386119257086
1.0586510263929618
1.0527859237536656
1.0469208211143697
1.043010752688172
1.040078201368524
1.0391006842619743
1.0391006842619743
1.0381231671554252
1.0361681329423265
1.0342130987292275
1.0332355816226784
1.0312805474095796
1.029325513196481
1.0263929618768328
1.0224828934506354
1.018572825024438
1.0146627565982405
1.0146627565982405
1.0224828934506354
1.0420332355816226
1.0762463343108504
1.1300097751710656
1.206256109481916
1.3069403714565004
1.4301075268817205
1.5718475073313782
1.7253176930596286
1.884652981427175
2.043010752688172
2.1955034213098727
2.318670576735093
2.421309872922776
2.5249266862170088
2.6207233626588464
2.704789833822092
2.776148582600196
2.834799608993157
2.8826979472140764
2.920821114369501
2.9501466275659824
2.9696969696969697
2.9804496578690127
2.978494623655914
2.9667644183773216
2.949169110459433
2.920821114369501
2.881720430107527
2.831867057673509
2.771260997067449
2.701857282502444
2.625610948191593
2.5454545454545454
2.464320625610948
2.386119257086999
2.3118279569892475
2.249266862170088
2.1955034213098727
2.1436950146627565
2.0977517106549364
2.056695992179863
2.0195503421309877
1.986314760508309
1.9560117302052784
1.9266862170087975
1.8973607038123168
1.869012707722385
1.8406647116324533
1.8142717497556209
1.7888563049853372
1.7595307917888563
1.7272727272727273
1.694037145650049
1.6598240469208212
1.6256109481915937
1.5913978494623655
1.5571847507331378
1.5239491691104594
1.4897360703812317
1.456500488758553
1.4252199413489737
1.3998044965786902
1.3782991202346042
1.35386119257087
1.3294232649071358
1.3049853372434017
1.2805474095796676
1.2590420332355816
1.238514173998045
1.219941348973607
1.203323558162268
1.187683284457478
1.173998044965787
1.164222873900293
1.1564027370478984
1.1466275659824048
1.1358748778103618
1.126099706744868
1.1173020527859236
1.1085043988269794
1.1006842619745845
1.093841642228739
1.0869990224828934
1.0801564027370478
1.072336265884653
1.0654936461388074
1.0625610948191593
1.06158357771261
1.0576735092864125
1.0527859237536656
1.0488758553274682
1.04594330400782
1.043010752688172
1.0410557184750733
1.0391006842619743
1.0361681329423265
1.0342130987292275
1.0312805474095796
1.0303030303030305
1.0303030303030305
1.0283479960899315
1.0273704789833822
1.0303030303030305
1.0420332355816226
1.0684261974584557
1.1133919843597262
1.1808406647116323
1.2717497556207231
1.3851417399804498
1.5190615835777126
1.6666666666666667
1.8005865102639296
1.9266862170087975
2.0664711632453567
2.207233626588465
2.3382209188660803
2.4565004887585533
2.560117302052786
2.649071358748778
2.7223851417399803
2.7810361681329425
2.827956989247312
2.8641251221896384
2.8836754643206257
2.89247311827957
2.898338220918866
2.898338220918866
2.89247311827957
2.877810361681329
2.854349951124145
2.8211143695014664
2.779081133919844
2.727272727272727
2.667644183773216
2.601173020527859
2.530791788856305
2.4652981427174976
2.4027370478983383
2.3362658846529816
2.269794721407625
2.207233626588465
2.1495601173020527
2.096774193548387
2.048875855327468
2.006842619745845
1.967741935483871
1.9305962854349952
1.8944281524926687
1.8631476050830889
1.833822091886608
1.801564027370479
1.7673509286412512
1.732160312805474
1.696969696969697
1.66177908113392
1.6265884652981428
1.5923753665689149
1.5581622678396871
1.5249266862170088
1.4926686217008798
1.4613880742913
1.436950146627566
1.41544477028348
1.391006842619746
1.3655913978494625
1.3411534701857282
1.3186705767350928
1.2961876832844574
1.2756598240469208
1.2551319648093842
1.2355816226783969
1.217008797653959
1.1994134897360704
1.1857282502443791
1.1749755620723363
1.1612903225806452
1.147605083088954
1.133919843597263
1.121212121212121
1.1094819159335287
1.0977517106549364
1.0869990224828934
1.0762463343108504
1.0654936461388074
1.056695992179863
1.0488758553274682
1.04594330400782
1.0449657869012707
1.043010752688172
1.0420332355816226
1.0410557184750733
1.0410557184750733
1.0420332355816226
1.043010752688172
1.0439882697947214
1.04594330400782
1.0488758553274682
1.0518084066471165
1.056695992179863
1.0625610948191593
1.0654936461388074
1.0664711632453567
1.0694037145650048
1.075268817204301
1.088954056695992
1.115347018572825
1.1593352883675463
1.2258064516129032
1.316715542521994
1.43108504398827
1.5650048875855327
1.6920821114369502
1.818181818181818
1.962854349951124
2.114369501466276
2.2629521016617797
2.401759530791789
2.525904203323558
2.634408602150537
2.727272727272727
2.8054740957966766
2.870967741935484
2.9257086999022484
2.961876832844575
2.986314760508309
3.0097751710654936
3.029325513196481
3.043010752688172
3.047898338220919
3.043010752688172
3.027370478983382
2.99902248289345
2.959921798631476
2.9100684261974585
2.849462365591398
2.780058651026393
2.710654936461388
2.641251221896383
2.565982404692082
2.489736070381232
2.4056695992179864
2.320625610948192
2.249266862170088
2.187683284457478
2.134897360703812
2.088954056695992
2.048875855327468
2.0127077223851417
1.981427174975562
1.9530791788856303
1.9237536656891496
1.8944281524926687
1.8641251221896384
1.8328445747800584
1.8005865102639296
1.7673509286412512
1.732160312805474
1.696969696969697
1.6608015640273706
1.6236559139784943
1.5923753665689149
1.563049853372434
1.5317693059628543
1.500488758553275
1.4701857282502444
1.4408602150537635
1.412512218963832
1.3861192570869991
1.3607038123167154
1.3372434017595307
1.3147605083088951
1.2932551319648091
1.2727272727272727
1.2580645161290325
1.2473118279569892
1.2346041055718475
1.2218963831867058
1.209188660801564
1.1964809384164223
1.1837732160312806
1.1700879765395895
1.1573802541544478
1.1456500488758554
1.1358748778103618
1.1270772238514175
1.121212121212121
1.1173020527859236
1.1114369501466277
1.104594330400782
1.096774193548387
1.0899315738025417
1.083088954056696
1.0762463343108504
1.0694037145650048
1.0625610948191593
1.056695992179863
1.0518084066471165
1.0469208211143697
1.0449657869012707
1.0449657869012707
1.043010752688172
1.0391006842619743
1.0342130987292275
1.0303030303030305
1.0263929618768328
1.0263929618768328
1.032258064516129
1.0478983382209188
1.0801564027370478
1.1319648093841643
1.1935483870967742
1.2697947214076246
1.3743890518084063
1.5034213098729228
1.6500488758553276
1.8074291300097751
1.9667644183773216
2.12316715542522
2.269794721407625
2.4027370478983383
2.5210166177908118
2.621700879765396
2.7067448680351904
2.7673509286412514
2.811339198435973
2.852394916911046
2.8885630498533725
2.918866080156403
2.943304007820137
2.959921798631476
2.967741935483871
2.9657869012707723
2.9530791788856305
2.9286412512218964
2.89345063538612
2.850439882697948
2.80058651026393
2.739980449657869
2.6695992179863146
2.593352883675464
2.5141739980449658
2.4349951124144678
2.356793743890518
2.283479960899316
2.21505376344086
2.1524926686217007
2.0977517106549364
2.050830889540567
2.013685239491691
1.9824046920821117
1.951124144672532
1.919843597262952
1.889540566959922
1.8592375366568916
1.827956989247312
1.7956989247311828
1.7634408602150538
1.7302052785923754
1.696969696969697
1.6637341153470186
1.6344086021505375
