ppg
2.863147605083089
2.7996089931573804
2.7282502443792764
2.650048875855328
2.5698924731182795
2.4916911045943304
2.4164222873900294
2.347018572825025
2.289345063538612
2.2404692082111435
2.1945259042033234
2.15347018572825
2.1163245356793743
2.081133919843597
2.04594330400782
2.010752688172043
1.9736070381231672
1.935483870967742
1.895405669599218
1.855327468230694
1.8132942326490715
1.7761485826001957
1.7409579667644184
1.7028347996089932
1.6637341153470186
1.624633431085044
1.585532746823069
1.5483870967741935
1.5131964809384164
1.479960899315738
1.4486803519061584
1.418377321603128
1.3900293255131966
1.3665689149560116
1.3470185728250244
1.3255131964809383
1.3040078201368523
1.2825024437927663
1.2619745845552297
1.2434017595307918
1.2258064516129032
1.2101661779081134
1.195503421309873
1.1808406647116323
1.1671554252199414
1.1573802541544478
1.1495601173020529
1.13880742913001
1.1280547409579669
1.118279569892473
1.1094819159335287
1.1016617790811338
1.093841642228739
1.0850439882697946
1.0762463343108504
1.0684261974584557
1.06158357771261
1.0547409579667644
1.0518084066471165
1.050830889540567
1.0469208211143697
1.0420332355816226
1.0371456500488758
1.0312805474095796
1.0254154447702837
1.0195503421309873
1.0146627565982405
1.0097751710654936
1.0048875855327468
1.0009775171065494
1.0009775171065494
1.0039100684261977
1.0058651026392962
1.0068426197458455
1.0068426197458455
1.0068426197458455
1.0068426197458455
1.0068426197458455
1.0068426197458455
1.0068426197458455
1.007820136852395
1.010752688172043
1.021505376344086
1.0410557184750733
1.0733137829912025
1.126099706744868
1.203323558162268
1.3069403714565004
1.434017595307918
1.5777126099706744
1.7311827956989247
1.8866080156402736
2.037145650048876
2.175953079178885
2.2981427174975564
2.391006842619746
2.462365591397849
2.529814271749756
2.5884652981427174
2.6373411534701856
2.677419354838709
2.7096774193548385
2.735092864125122
2.7536656891495603
2.763440860215054
2.7653958944281527
2.757575757575758
2.73802541544477
2.70772238514174
2.668621700879765
2.618768328445748
2.560117302052786
2.496578690127077
2.4301075268817205
2.3655913978494625
2.3059628543499517
2.251221896383187
2.204301075268817
2.164222873900293
2.1309872922776147
2.103616813294233
2.078201368523949
2.0518084066471163
2.0234604105571847
1.9931573802541545
1.9608993157380252
1.9266862170087975
1.889540566959922
1.8514173998044965
1.8113391984359728
1.7712609970674489
1.732160312805474
1.694037145650049
1.66177908113392
1.632453567937439
1.6001955034213098
1.56891495601173
1.5386119257087
1.509286412512219
1.4809384164222874
1.4535679374389052
1.4291300097751711
1.4056695992179864
1.3851417399804498
1.3665689149560116
1.3528836754643203
1.3411534701857282
1.3284457478005864
1.3147605083088951
1.3010752688172045
1.2873900293255132
1.273704789833822
1.2609970674486803
1.2482893450635386
1.2355816226783969
1.2228739002932552
1.2101661779081134
1.198435972629521
1.1906158357771262
1.1857282502443791
1.1779081133919844
1.1691104594330402
1.160312805474096
1.1515151515151516
1.1436950146627567
1.1368523949169111
1.1319648093841643
1.1270772238514175
1.1231671554252198
1.118279569892473
1.115347018572825
1.115347018572825
1.1124144672531768
1.1085043988269794
1.1036168132942326
1.099706744868035
1.0957966764418376
1.0918866080156402
1.0879765395894427
1.0840664711632453
1.0801564027370478
1.0772238514173995
1.075268817204301
1.0762463343108504
1.078201368523949
1.0791788856304985
1.0791788856304985
1.0811339198435972
1.0869990224828934
1.099706744868035
1.1251221896383188
1.1691104594330402
1.2375366568914956
1.3333333333333333
1.456500488758553
1.5826001955034212
1.7145650048875856
1.8758553274682308
2.050830889540567
2.225806451612903
2.391006842619746
2.539589442815249
2.6666666666666665
2.7722385141739982
2.8563049853372435
2.921798631476051
2.972629521016618
3.0117302052785924
3.034213098729228
3.0303030303030303
3.018572825024438
3.013685239491691
3.006842619745845
2.995112414467253
2.975562072336266
2.946236559139785
2.906158357771261
2.855327468230694
2.793743890518084
2.724340175953079
2.654936461388074
2.5855327468230693
2.5112414467253177
2.436950146627566
2.366568914956012
2.302052785923754
2.24633431085044
2.198435972629521
2.155425219941349
2.117302052785924
2.0821114369501466
2.047898338220919
2.013685239491691
1.9824046920821117
1.9521016617790807
1.9178885630498532
1.8807429130009776
1.8416422287390029
1.8025415444770283
1.7624633431085044
1.7223851417399805
1.6842619745845553
1.6471163245356797
1.6099706744868034
1.5757575757575757
1.547409579667644
1.521994134897361
1.4946236559139785
1.466275659824047
1.4389051808406648
1.4134897360703813
1.3900293255131966
1.367546432062561
1.3479960899315735
1.3294232649071358
1.3128054740957966
1.2971652003910068
1.2834799608993157
1.273704789833822
1.2658846529814272
1.2551319648093842
1.2424242424242424
1.2297165200391007
1.2179863147605083
1.2072336265884651
1.1974584555229717
1.187683284457478
1.1779081133919844
1.1681329423264908
1.1583577712609971
1.1515151515151516
1.1466275659824048
1.1397849462365592
1.1319648093841643
1.1241446725317692
1.1163245356793745
1.1094819159335287
1.1016617790811338
1.0948191593352885
1.088954056695992
1.083088954056696
1.0791788856304985
1.078201368523949
1.0791788856304985
1.078201368523949
1.075268817204301
1.072336265884653
1.0694037145650048
1.067448680351906
1.0654936461388074
1.0635386119257086
1.0635386119257086
1.064516129032258
1.0654936461388074
1.067448680351906
1.0713587487781036
1.0772238514173995
1.083088954056696
1.093841642228739
1.115347018572825
1.1534701857282503
1.2130987292277615
1.2971652003910068
1.4086021505376345
1.544477028347996
1.699902248289345
1.868035190615836
2.0175953079178885
2.15347018572825
2.2991202346041058
2.4379276637341154
2.5620723362658846
2.6666666666666665
2.7517106549364616
2.8181818181818183
2.868035190615836
2.9071358748778104
2.936461388074292
2.9589442815249267
2.9745845552297165
2.978494623655914
2.973607038123167
2.9657869012707723
2.951124144672532
2.9286412512218964
2.895405669599218
2.850439882697948
2.793743890518084
2.727272727272727
2.653958944281525
2.575757575757576
2.495601173020528
2.4242424242424243
2.358748778103617
2.294232649071359
2.2355816226783967
2.182795698924731
2.1378299120234603
2.0987292277614857
2.0635386119257086
2.03128054740958
1.9990224828934504
1.9657869012707725
1.9305962854349952
1.8944281524926687
1.86119257086999
1.828934506353861
1.7927663734115349
1.75366568914956
1.7135874877810362
1.6744868035190617
1.635386119257087
1.598240469208211
1.564027370478983
1.530791788856305
1.499511241446725
1.4701857282502444
1.447702834799609
1.4291300097751711
1.409579667644184
1.3900293255131966
1.370478983382209
1.3519061583577712
1.3333333333333333
1.3157380254154447
1.2981427174975562
1.281524926686217
1.2658846529814272
1.2512218963831867
1.238514173998045
1.2297165200391007
1.2228739002932552
1.2130987292277615
1.2023460410557183
1.1906158357771262
1.1788856304985338
1.1671554252199414
1.1564027370478984
1.1466275659824048
1.1378299120234605
1.1290322580645162
1.1192570869990224
1.1133919843597262
1.1094819159335287
1.1036168132942326
1.0977517106549364
1.0918866080156402
1.086021505376344
1.0811339198435972
1.0772238514173995
1.0742913000977516
1.0713587487781036
1.0694037145650048
1.067448680351906
1.0654936461388074
1.0664711632453567
1.0684261974584557
1.0684261974584557
1.0684261974584557
1.0694037145650048
1.0713587487781036
1.0733137829912025
1.075268817204301
1.0772238514173995
1.0791788856304985
1.0811339198435972
1.0840664711632453
1.0918866080156402
1.1065493646138806
1.1319648093841643
1.1730205278592376
1.2375366568914956
1.327468230694037
1.444770283479961
1.585532746823069
1.7458455522971652
1.916911045943304
2.088954056695992
2.254154447702835
2.403714565004888
2.520039100684262
2.6099706744868034
2.695014662756598
2.7702834799608995
2.831867057673509
2.8807429130009776
2.918866080156403
2.948191593352884
2.9696969696969697
2.983382209188661
2.989247311827957
2.986314760508309
2.972629521016618
2.9501466275659824
2.918866080156403
2.877810361681329
2.8260019550342133
2.763440860215054
2.69208211143695
2.6158357771261
2.5376344086021505
2.4604105571847508
2.3870967741935485
2.3196480938416424
2.260997067448681
2.212121212121212
2.1700879765395893
2.131964809384164
2.0957966764418376
2.060606060606061
2.0254154447702835
1.9902248289345064
1.9560117302052784
1.919843597262952
1.881720430107527
1.8435972629521016
1.8035190615835777
1.7673509286412512
1.7341153470185728
1.6979472140762464
1.66177908113392
1.6265884652981428
1.5933528836754642
1.560117302052786
1.5278592375366569
1.4838709677419355
1.4349951124144673
1.3978494623655917
1.367546432062561
1.3411534701857282
1.3225806451612905
1.3069403714565004
1.2903225806451613
1.273704789833822
1.2570869990224829
1.241446725317693
1.2267839687194526
1.2130987292277615
1.198435972629521
1.1837732160312806
1.1691104594330402
1.155425219941349
1.1466275659824048
1.1397849462365592
1.1300097751710656
1.1192570869990224
1.10752688172043
1.096774193548387
1.0869990224828934
1.0772238514173995
1.0684261974584557
1.0606060606060606
1.0527859237536656
1.0449657869012707
1.0381231671554252
1.0342130987292275
1.032258064516129
1.0283479960899315
1.0234604105571847
1.018572825024438
1.0127077223851415
1.007820136852395
1.002932551319648
0.9990224828934506
0.9960899315738024
0.9941348973607038
0.9921798631476052
0.9931573802541545
0.9960899315738024
0.9980449657869012
1.0
1.0019550342130987
1.0039100684261977
1.0058651026392962
1.007820136852395
1.010752688172043
1.0156402737047898
1.024437927663734
1.0410557184750733
1.067448680351906
1.1065493646138806
1.1671554252199414
1.2541544477028348
1.3695014662756595
1.5102639296187683
1.6715542521994136
1.844574780058651
2.022482893450636
2.1955034213098727
2.355816226783969
2.4975562072336266
2.618768328445748
2.7067448680351904
2.7702834799608995
2.827956989247312
2.87683284457478
2.9159335288367547
2.946236559139785
2.9696969696969697
2.9853372434017595
2.994134897360704
2.994134897360704
2.98435972629521
2.963831867057673
2.9345063538611926
2.8944281524926687
2.844574780058651
2.7839687194525906
2.7145650048875853
2.6373411534701856
2.555229716520039
2.4711632453567938
2.389051808406647
2.3118279569892475
2.241446725317693
2.1788856304985336
2.124144672531769
2.0791788856304985
2.0410557184750733
2.003910068426197
1.967741935483871
1.9315738025415443
1.8944281524926687
1.8563049853372435
1.8172043010752688
1.7781036168132942
1.7380254154447703
1.696969696969697
1.656891495601173
1.6226783968719452
1.5913978494623655
1.5581622678396871
1.5249266862170088
1.4916911045943304
1.458455522971652
1.4242424242424243
1.3900293255131966
1.3548387096774193
1.3196480938416422
1.2854349951124144
1.252199413489736
1.219941348973607
1.1945259042033236
1.1720430107526882
1.1466275659824048
1.1202346041055715
1.0928641251221896
1.0664711632453567
1.0420332355816226
1.0175953079178883
0.9941348973607038
0.9716520039100685
0.9481915933528836
0.9247311827956988
0.906158357771261
0.8905180840664711
0.8709677419354839
0.8494623655913979
0.8269794721407625
0.804496578690127
0.7820136852394917
0.7585532746823069
0.7341153470185728
0.7086999022482894
0.6813294232649071
0.6520039100684262
0.6236559139784946
0.603128054740958
0.5874877810361682
0.5689149560117303
0.5503421309872922
0.5327468230694037
0.5171065493646139
0.5024437927663734
0.4877810361681329
0.4721407624633431
0.4574780058651026
0.4428152492668621
0.4281524926686217
0.4213098729227761
0.4193548387096774
0.4125122189638319
0.4037145650048875
0.3939393939393939
0.3841642228739003
0.3763440860215054
0.3714565004887585
0.3714565004887585
0.3822091886608015
0.407624633431085
0.4545454545454545
0.5268817204301075
0.6109481915933529
0.7135874877810362
0.8494623655913979
1.010752688172043
1.1886608015640274
1.3743890518084063
1.5571847507331378
1.7302052785923754
1.8866080156402736
2.024437927663734
2.1417399804496577
2.2404692082111435
2.310850439882698
2.3626588465298144
2.409579667644184
2.449657869012708
2.482893450635386
2.50733137829912
2.5239491691104594
2.5317693059628543
2.529814271749756
2.5161290322580645
2.4916911045943304
2.455522971652004
2.407624633431085
2.356793743890518
2.302052785923754
2.2355816226783967
2.164222873900293
2.09188660801564
2.0234604105571847
1.9608993157380252
1.905180840664712
1.8563049853372435
1.81524926686217
1.780058651026393
1.7468230694037146
1.7174975562072337
1.689149560117302
1.656891495601173
1.6207233626588464
1.5796676441837731
1.5347018572825024
1.4858260019550342
1.434017595307918
1.3812316715542523
1.327468230694037
1.2746823069403714
1.2228739002932552
1.1720430107526882
1.130987292277615
1.0948191593352885
1.053763440860215
1.0117302052785924
0.9696969696969696
0.9286412512218964
0.8885630498533724
0.8494623655913979
0.8142717497556208
0.782991202346041
0.7546432062561095
0.729227761485826
0.7145650048875856
0.7057673509286413
0.6950146627565983
0.6842619745845552
0.6744868035190615
0.667644183773216
0.6647116324535679
0.6647116324535679
0.6666666666666666
0.6695992179863147
0.6735092864125122
0.678396871945259
0.6852394916911045
0.6950146627565983
0.7067448680351907
0.7155425219941349
0.7214076246334311
0.7262952101661779
0.729227761485826
0.7311827956989247
0.7321603128054741
0.7311827956989247
0.7302052785923754
0.729227761485826
0.7302052785923754
0.7350928641251222
0.7438905180840665
0.8866080156402737
1.096774193548387
1.206256109481916
1.2639296187683284
1.2942326490713587
1.3118279569892473
1.3225806451612905
1.3304007820136852
1.3362658846529814
1.3421309872922775
1.3499511241446724
1.3577712609970674
1.3636363636363635
1.3685239491691104
1.3743890518084063
1.3841642228739004
1.401759530791789
1.43108504398827
1.47702834799609
1.543499511241447
1.632453567937439
1.7429130009775171
1.870967741935484
1.9902248289345064
2.104594330400782
2.233626588465298
2.364613880742913
2.486803519061584
2.5943304007820136
2.686217008797654
2.7624633431085046
2.8240469208211145
2.8719452590420333
2.9071358748778104
2.932551319648094
2.945259042033236
2.949169110459433
2.951124144672532
2.949169110459433
2.940371456500489
2.924731182795699
2.8885630498533725
2.850439882697948
2.81622678396872
2.768328445747801
2.710654936461388
2.6480938416422286
2.5835777126099706
2.525904203323558
2.474095796676442
2.4242424242424243
2.3792766373411536
2.340175953079179
2.3069403714565007
2.278592375366569
2.254154447702835
2.231671554252199
2.210166177908113
2.188660801564027
2.1652003910068425
2.1436950146627565
2.1221896383186705
2.0977517106549364
2.071358748778104
2.043010752688172
2.0146627565982405
1.986314760508309
1.9589442815249267
1.9315738025415443
1.905180840664712
1.8807429130009776
1.8592375366568916
1.839687194525904
1.825024437927664
1.8142717497556209
1.8035190615835777
1.7947214076246334
1.7878787878787878
1.7839687194525904
1.7820136852394917
1.780058651026393
1.7781036168132942
1.775171065493646
1.7712609970674489
1.7663734115347018
1.7624633431085044
1.758553274682307
1.7526881720430108
1.7438905180840665
1.7341153470185728
1.7223851417399805
1.7096774193548387
1.6950146627565983
1.6774193548387095
1.6588465298142718
1.6383186705767352
1.6177908113391983
1.5962854349951123
1.5786901270772238
1.564027370478983
1.547409579667644
1.5298142717497556
1.5131964809384164
1.4975562072336266
1.4838709677419355
1.4721407624633431
1.4633431085043989
1.455522971652004
1.4496578690127078
1.444770283479961
1.4437927663734116
1.444770283479961
1.4457478005865103
1.4467253176930597
1.4486803519061584
1.4506353861192571
1.4535679374389052
1.456500488758553
1.4594330400782014
1.4613880742913
1.4633431085043989
1.4652981427174976
1.469208211143695
1.478005865102639
1.4936461388074291
1.521016617790811
1.5650048875855327
1.629521016617791
1.7174975562072337
1.826001955034213
1.9530791788856303
2.0928641251221896
2.2385141739980448
2.3822091886608017
2.5190615835777126
2.627565982404692
2.7155425219941347
2.801564027370479
2.877810361681329
2.9423264907135875
2.995112414467253
3.037145650048876
3.069403714565005
3.0948191593352883
3.113391984359726
3.124144672531769
3.1280547409579667
3.12316715542522
3.1094819159335287
3.0869990224828934
3.0557184750733137
3.0146627565982405
2.9657869012707723
2.909090909090909
2.8455522971652005
2.779081133919844
2.7126099706744866
2.649071358748778
2.590420332355816
2.5386119257087
2.496578690127077
2.4613880742913
2.4281524926686218
2.3978494623655915
2.36950146627566
2.3421309872922778
2.314760508308896
2.2854349951124147
2.2551319648093844
2.2140762463343107
2.175953079178885
2.147605083088954
2.1163245356793743
2.0869990224828934
2.058651026392962
2.0283479960899315
1.9980449657869013
1.9696969696969695
1.9423264907135875
1.916911045943304
1.8934506353861196
1.871945259042033
1.8514173998044965
1.8318670576735088
1.8132942326490715
1.7986314760508308
1.7869012707722385
1.7741935483870968
1.761485826001955
1.7487781036168133
1.7360703812316716
1.7223851417399805
1.70772238514174
1.694037145650049
1.6813294232649072
1.6686217008797657
1.656891495601173
1.64613880742913
1.6392961876832846
1.6334310850439884
1.6265884652981428
1.6187683284457477
1.6099706744868034
1.6021505376344083
1.595307917888563
1.5894428152492668
1.5835777126099706
1.576735092864125
1.5698924731182795
1.563049853372434
1.5581622678396871
1.555229716520039
1.5513196480938416
1.547409579667644
1.544477028347996
1.541544477028348
1.5376344086021505
1.533724340175953
1.5298142717497556
1.5249266862170088
1.521016617790811
1.5180840664711632
1.5151515151515151
1.5141739980449658
1.5151515151515151
1.5161290322580645
1.517106549364614
1.5180840664711632
1.520039100684262
1.52297165200391
1.5278592375366569
1.5376344086021505
1.555229716520039
1.58455522971652
1.6304985337243405
1.6852394916911049
1.7526881720430108
1.8465298142717497
1.962854349951124
2.0957966764418376
2.2375366568914954
2.380254154447703
2.517106549364614
2.6422287390029324
2.752688172043011
2.8455522971652005
2.920821114369501
2.9716520039100685
3.006842619745845
3.0391006842619745
3.0664711632453567
3.088954056695992
3.1055718475073317
3.117302052785924
3.12316715542522
3.1221896383186705
3.0791788856304985
3.010752688172043
2.9579667644183774
2.909090909090909
2.860215053763441
2.807429130009776
2.745845552297165
2.678396871945259
2.606060606060606
2.5317693059628543
2.4594330400782014
2.391006842619746
2.3284457478005867
2.272727272727273
2.2238514173998043
2.1818181818181817
2.147605083088954
2.117302052785924
2.0869990224828934
2.056695992179863
2.026392961876833
1.9960899315738023
1.964809384164223
1.9335288367546437
1.900293255131965
1.8670576735092863
1.8328445747800584
1.7996089931573802
1.7663734115347018
1.7380254154447703
1.7126099706744868
1.6852394916911049
1.6500488758553276
1.6187683284457477
1.5972629521016617
1.5747800586510263
1.5483870967741935
1.5249266862170088
1.509286412512219
1.4887585532746823
1.4701857282502444
1.456500488758553
1.4437927663734116
1.43108504398827
1.4193548387096775
1.4105571847507332
1.4007820136852396
1.3870967741935485
1.375366568914956
1.367546432062561
1.3587487781036167
1.3470185728250244
1.3362658846529814
1.3294232649071358
1.3255131964809383
1.3206256109481915
1.3157380254154447
1.310850439882698
1.3069403714565004
1.303030303030303
1.2981427174975562
1.2932551319648091
1.2883675464320623
1.2834799608993157
1.2795698924731185
1.278592375366569
1.278592375366569
1.2776148582600195
1.2746823069403714
1.270772238514174
1.267839687194526
1.2649071358748778
1.2609970674486803
1.2580645161290325
1.2561094819159335
1.2551319648093842
1.2551319648093842
1.2551319648093842
1.2580645161290325
1.2619745845552297
1.2649071358748778
1.267839687194526
1.2697947214076246
1.2727272727272727
1.2795698924731185
1.2932551319648091
1.3186705767350928
1.359726295210166
1.4213098729227762
1.5073313782991202
1.598240469208211
1.6989247311827955
1.8269794721407624
1.970674486803519
2.120234604105572
2.2658846529814274
2.401759530791789
2.5219941348973607
2.6236559139784945
2.70772238514174
2.774193548387097
2.827956989247312
2.8690127077223853
2.89345063538612
2.906158357771261
2.917888563049853
2.9257086999022484
2.927663734115347
2.9237536656891496
2.913000977517106
2.897360703812317
2.873900293255132
2.8426197458455524
2.8044965786901277
2.7565982404692084
2.705767350928641
2.652003910068426
2.591397849462365
2.5268817204301075
2.462365591397849
2.39980449657869
2.3421309872922778
2.289345063538612
2.2404692082111435
2.1945259042033234
2.1524926686217007
2.112414467253177
2.0733137829912023
2.038123167155425
2.005865102639296
1.9696969696969695
1.9315738025415443
1.89247311827957
1.8523949169110456
1.8132942326490715
1.775171065493646
1.7380254154447703
1.7038123167155426
1.6705767350928642
1.6383186705767352
1.611925708699902
1.5894428152492668
1.5650048875855327
1.541544477028348
1.5190615835777126
1.4975562072336266
1.478005865102639
1.4594330400782014
1.4418377321603129
1.426197458455523
1.4115347018572826
1.396871945259042
1.3841642228739004
1.3743890518084063
1.3665689149560116
1.3577712609970674
1.348973607038123
1.3391984359726294
1.3304007820136852
1.321603128054741
1.313782991202346
1.305962854349951
1.2971652003910068
1.2883675464320623
1.2795698924731185
1.2746823069403714
1.270772238514174
1.2649071358748778
1.2580645161290325
1.2502443792766371
1.2424242424242424
1.2336265884652982
1.224828934506354
1.217008797653959
1.2101661779081134
1.2043010752688172
1.1994134897360704
1.1945259042033236
1.1925708699902249
1.1915933528836755
1.1886608015640274
1.1857282502443791
1.1827956989247312
1.1808406647116323
1.1798631476050832
1.1788856304985338
1.1798631476050832
1.1808406647116323
1.181818181818182
1.1837732160312806
1.187683284457478
1.1935483870967742
1.2003910068426198
1.2101661779081134
1.2267839687194526
1.2561094819159335
1.3020527859237536
1.3685239491691104
1.457478005865103
1.56891495601173
1.699902248289345
1.844574780058651
1.9951124144672527
2.124144672531769
2.2375366568914954
2.3548387096774195
2.463343108504399
2.557184750733138
2.634408602150537
2.6959921798631474
2.7438905180840663
2.780058651026393
2.806451612903226
2.8260019550342133
2.8396871945259043
2.843597262952102
2.838709677419355
2.83088954056696
2.8181818181818183
2.7966764418377323
2.766373411534702
2.7253176930596283
2.675464320625611
2.6177908113391983
2.555229716520039
2.4887585532746823
2.421309872922776
2.3597262952101663
2.302052785923754
2.243401759530792
2.185728250244379
2.1300097751710654
2.0772238514174
2.0283479960899315
1.981427174975562
1.9374389051808407
1.8944281524926687
1.8523949169110456
1.8113391984359728
1.7702834799608993
1.7350928641251222
1.7028347996089932
1.667644183773216
1.6314760508308896
1.595307917888563
1.5610948191593352
1.5298142717497556
1.501466275659824
1.47702834799609
1.455522971652004
1.435972629521017
1.4173998044965788
1.404692082111437
1.393939393939394
1.3822091886608017
1.332355816226784
1.2649071358748778
1.227761485826002
1.2072336265884651
1.1945259042033236
1.1867057673509287
1.1808406647116323
1.176930596285435
1.1749755620723363
1.173998044965787
1.1759530791788857
1.1788856304985338
1.1798631476050832
1.1808406647116323
1.1798631476050832
1.1779081133919844
1.1749755620723363
1.1730205278592376
