ppg
1.203323558162268
1.1935483870967742
1.1837732160312806
1.173998044965787
1.164222873900293
1.155425219941349
1.1466275659824048
1.1378299120234605
1.1290322580645162
1.1202346041055715
1.115347018572825
1.1124144672531768
1.1065493646138806
1.099706744868035
1.083088954056696
1.06158357771261
1.0469208211143697
1.0361681329423265
1.0283479960899315
1.021505376344086
1.0156402737047898
1.0097751710654936
1.0068426197458455
1.0058651026392962
1.0009775171065494
0.9951124144672532
0.9882697947214076
0.981427174975562
0.9736070381231672
0.967741935483871
0.9657869012707724
0.9696969696969696
0.9863147605083088
1.021505376344086
1.0801564027370478
1.1505376344086022
1.238514173998045
1.3587487781036167
1.504398826979472
1.6695992179863148
1.8435972629521016
2.0175953079178885
2.1847507331378297
2.3391984359726297
2.47702834799609
2.595307917888563
2.6959921798631474
2.7673509286412514
2.820136852394917
2.8699902248289346
2.913000977517106
2.949169110459433
2.9765395894428157
2.995112414467253
3.002932551319648
2.99902248289345
2.983382209188661
2.95405669599218
2.911045943304008
2.8563049853372435
2.7966764418377323
2.7311827956989245
2.654936461388074
2.572825024437928
2.4887585532746823
2.406647116324536
2.3284457478005867
2.2561094819159337
2.1915933528836757
2.134897360703812
2.086021505376344
2.043010752688172
2.007820136852395
1.9775171065493649
1.946236559139785
1.9149560117302051
1.884652981427175
1.8523949169110456
1.8191593352883677
1.7839687194525904
1.7487781036168133
1.7126099706744868
1.675464320625611
1.6383186705767352
1.6011730205278591
1.5698924731182795
1.541544477028348
1.5102639296187683
1.478005865102639
1.4457478005865103
1.414467253176931
1.383186705767351
1.3528836754643203
1.324535679374389
1.2981427174975562
1.273704789833822
1.2502443792766371
1.2326490713587488
1.2179863147605083
1.2013685239491692
1.1837732160312806
1.1671554252199414
1.1515151515151516
1.1358748778103618
1.1221896383186705
1.110459433040078
1.1006842619745845
1.0909090909090908
1.0821114369501466
1.0742913000977516
1.0703812316715542
1.0694037145650048
1.0664711632453567
1.0625610948191593
1.0586510263929618
1.0547409579667644
1.050830889540567
1.0478983382209188
1.0439882697947214
1.040078201368524
1.0371456500488758
1.0342130987292275
1.0342130987292275
1.035190615835777
1.0332355816226784
1.0312805474095796
1.0283479960899315
1.0254154447702837
1.0224828934506354
1.0195503421309873
1.0175953079178883
1.0195503421309873
1.0312805474095796
1.056695992179863
1.1006842619745845
1.1564027370478984
1.2297165200391007
1.3333333333333333
1.4633431085043989
1.6148582600195502
1.7790811339198436
1.949169110459433
2.117302052785924
2.275659824046921
2.419354838709677
2.5464320625610948
2.6559139784946235
2.7341153470185726
2.791788856304985
2.844574780058651
2.8885630498533725
2.9237536656891496
2.948191593352884
2.961876832844575
2.964809384164223
2.956989247311828
2.9374389051808407
2.906158357771261
2.86217008797654
2.806451612903226
2.745845552297165
2.681329423264907
2.6070381231671558
2.5288367546432062
2.449657869012708
2.3743890518084068
2.304007820136853
2.241446725317693
2.185728250244379
2.1358748778103616
2.09188660801564
2.053763440860215
2.021505376344086
1.992179863147605
1.9618768328445748
1.9305962854349952
1.8973607038123168
1.8621700879765395
1.825024437927664
1.7869012707722385
1.7468230694037146
1.7067448680351909
1.6656891495601174
1.624633431085044
1.590420332355816
1.5591397849462365
1.5249266862170088
1.4897360703812317
1.4545454545454546
1.4203323558162269
1.3870967741935485
1.3558162267839686
1.3255131964809383
1.2971652003910068
1.2717497556207231
1.249266862170088
1.2287390029325511
1.2150537634408602
1.2043010752688172
1.1915933528836755
1.1788856304985338
1.166177908113392
1.1534701857282503
1.1407624633431086
1.1290322580645162
1.118279569892473
1.1085043988269794
1.099706744868035
1.0909090909090908
1.086021505376344
1.083088954056696
1.0791788856304985
1.0742913000977516
1.0684261974584557
1.0625610948191593
1.0557184750733135
1.0488758553274682
1.043010752688172
1.0371456500488758
1.0312805474095796
1.0254154447702837
1.0195503421309873
1.0175953079178883
1.0175953079178883
1.0156402737047898
1.0127077223851415
1.0087976539589445
1.0048875855327468
1.0009775171065494
0.9980449657869012
0.9960899315738024
1.0
1.0127077223851415
1.040078201368524
1.078201368523949
1.1329423264907137
1.2150537634408602
1.3235581622678396
1.456500488758553
1.6080156402737047
1.7712609970674489
1.93841642228739
2.102639296187683
2.2561094819159337
2.393939393939394
2.512218963831867
2.611925708699902
2.6823069403714563
2.732160312805474
2.776148582600196
2.811339198435973
2.8367546432062563
2.8514173998044967
2.8563049853372435
2.850439882697948
2.831867057673509
2.80058651026393
2.757575757575758
2.7038123167155423
2.64613880742913
2.58455522971652
2.5141739980449658
2.439882697947214
2.3655913978494625
2.294232649071359
2.228739002932551
2.1700879765395893
2.118279569892473
2.0733137829912023
2.0332355816226784
2.0
1.9716520039100685
1.945259042033236
1.920821114369501
1.8934506353861196
1.865102639296188
1.8347996089931573
1.8025415444770283
1.7683284457478006
1.7331378299120237
1.696969696969697
1.6598240469208212
1.6236559139784943
1.5884652981427174
1.5591397849462365
1.5327468230694037
1.5024437927663734
1.4721407624633431
1.4418377321603129
1.4115347018572826
1.3822091886608017
1.3548387096774193
1.3294232649071358
1.3049853372434017
1.281524926686217
1.260019550342131
1.2404692082111437
1.2267839687194526
1.217008797653959
1.2052785923753666
1.1935483870967742
1.1827956989247312
1.1730205278592376
1.163245356793744
1.1544477028347997
1.1466275659824048
1.13880742913001
1.1319648093841643
1.1251221896383188
1.1221896383186705
1.1202346041055715
1.1163245356793745
1.1114369501466277
1.1055718475073313
1.1006842619745845
1.096774193548387
1.0928641251221896
1.0879765395894427
1.0840664711632453
1.0811339198435972
1.0772238514173995
1.0742913000977516
1.0742913000977516
1.0742913000977516
1.072336265884653
1.0684261974584557
1.064516129032258
1.0606060606060606
1.056695992179863
1.0547409579667644
1.056695992179863
1.067448680351906
1.0909090909090908
1.1329423264907137
1.1857282502443791
1.2551319648093842
1.35386119257087
1.478983382209189
1.6256109481915937
1.7849462365591398
1.9501466275659824
2.113391984359726
2.2668621700879767
2.406647116324536
2.527859237536657
2.63049853372434
2.7145650048875853
2.7722385141739982
2.811339198435973
2.8455522971652005
2.8719452590420333
2.8905180840664717
2.898338220918866
2.895405669599218
2.8826979472140764
2.8582600195503423
2.8211143695014664
2.773216031280548
2.7155425219941347
2.6559139784946235
2.593352883675464
2.5239491691104594
2.4516129032258065
2.380254154447703
2.312805474095797
2.251221896383187
2.196480938416422
2.1485826001955037
2.1055718475073317
2.0684261974584555
2.034213098729228
2.002932551319648
1.975562072336266
1.949169110459433
1.920821114369501
1.8905180840664717
1.858260019550342
1.825024437927664
1.790811339198436
1.7556207233626588
1.7194525904203324
1.6823069403714566
1.6451612903225807
1.607038123167155
1.5747800586510263
1.5454545454545454
1.512218963831867
1.478983382209189
1.4457478005865103
1.414467253176931
1.3861192570869991
1.359726295210166
1.335288367546432
1.3128054740957966
1.29227761485826
1.273704789833822
1.2590420332355816
1.2473118279569892
1.2346041055718475
1.2209188660801564
1.2082111436950147
1.195503421309873
1.18475073313783
1.1749755620723363
1.1652003910068427
1.1564027370478984
1.147605083088954
1.1397849462365592
1.1319648093841643
1.1270772238514175
1.1241446725317692
1.1192570869990224
1.1133919843597262
1.10752688172043
1.1006842619745845
1.0948191593352885
1.088954056695992
1.083088954056696
1.078201368523949
1.0742913000977516
1.0713587487781036
1.0713587487781036
1.072336265884653
1.0713587487781036
1.0694037145650048
1.0664711632453567
1.0625610948191593
1.0586510263929618
1.0547409579667644
1.053763440860215
1.0596285434995112
1.0762463343108504
1.1085043988269794
1.1622678396871946
1.2267839687194526
1.3069403714565004
1.4173998044965788
1.5532746823069403
1.70772238514174
1.871945259042033
2.0391006842619745
2.201368523949169
2.3519061583577714
2.486803519061584
2.603128054740958
2.699902248289345
2.7673509286412514
2.8152492668621703
2.8582600195503423
2.89345063538612
2.918866080156403
2.9345063538611926
2.940371456500489
2.936461388074292
2.921798631476051
2.895405669599218
2.8582600195503423
2.8103616813294234
2.7517106549364616
2.6911045943304006
2.627565982404692
2.5562072336265884
2.4809384164222874
2.4056695992179864
2.333333333333333
2.2658846529814274
2.204301075268817
2.147605083088954
2.096774193548387
2.050830889540567
2.007820136852395
1.970674486803519
1.9374389051808407
1.902248289345064
1.866080156402737
1.8299120234604105
1.793743890518084
1.7575757575757576
1.721407624633431
1.6852394916911049
1.6500488758553276
1.616813294232649
1.58455522971652
1.5542521994134897
1.530791788856305
1.5102639296187683
1.4887585532746823
1.4672531769305963
1.4467253176930597
1.4281524926686218
1.412512218963832
1.3978494623655917
1.3851417399804498
1.3743890518084063
1.3636363636363635
1.3528836754643203
1.3440860215053765
1.335288367546432
1.3235581622678396
1.3079178885630498
1.289345063538612
1.2688172043010753
1.24633431085044
1.2238514173998043
1.2003910068426198
1.1779081133919844
1.155425219941349
1.1358748778103618
1.118279569892473
1.1085043988269794
1.1026392961876832
1.096774193548387
1.0918866080156402
1.0899315738025417
1.0899315738025417
1.0928641251221896
1.096774193548387
1.1026392961876832
1.110459433040078
1.118279569892473
1.1270772238514175
1.1378299120234605
1.1485826001955035
1.1573802541544478
1.1652003910068427
1.1720430107526882
1.166177908113392
1.1534701857282503
1.1495601173020529
1.1515151515151516
1.1622678396871946
1.1867057673509287
1.2297165200391007
1.295210166177908
1.370478983382209
1.4594330400782014
1.5786901270772238
1.7204301075268815
1.87683284457478
2.0391006842619745
2.20039100684262
2.3528836754643208
2.4916911045943304
2.613880742913001
2.717497556207233
2.803519061583578
2.863147605083089
2.9042033235581624
2.9423264907135875
2.973607038123167
2.997067448680352
3.0117302052785924
3.0146627565982405
3.006842619745845
2.986314760508309
2.9530791788856305
2.9071358748778104
2.8484848484848486
2.779081133919844
2.708699902248289
2.6373411534701856
2.5591397849462365
2.4789833822091887
2.401759530791789
2.329423264907136
2.2639296187683287
2.206256109481916
2.155425219941349
2.1114369501466275
2.072336265884653
2.037145650048876
2.005865102639296
1.9765395894428155
1.945259042033236
1.9130009775171064
1.878787878787879
1.8435972629521016
1.8064516129032255
1.76930596285435
1.732160312805474
1.694037145650049
1.6559139784946235
1.6187683284457477
1.581622678396872
1.5503421309872922
1.521994134897361
1.4916911045943304
1.4613880742913
1.43108504398827
1.4007820136852396
1.3724340175953078
1.346041055718475
1.3225806451612905
1.300097751710655
1.2795698924731185
1.2619745845552297
1.249266862170088
1.238514173998045
1.2258064516129032
1.2111436950146628
1.1974584555229717
1.1827956989247312
1.1691104594330402
1.1573802541544478
1.1466275659824048
1.1358748778103618
1.1251221896383188
1.115347018572825
1.1055718475073313
1.0987292277614855
1.093841642228739
1.086021505376344
1.0772238514173995
1.0694037145650048
1.0625610948191593
1.0557184750733135
1.0498533724340176
1.0449657869012707
1.040078201368524
1.0361681329423265
1.032258064516129
1.032258064516129
1.0342130987292275
1.0332355816226784
1.0312805474095796
1.029325513196481
1.0263929618768328
1.024437927663734
1.0234604105571847
1.0263929618768328
1.0381231671554252
1.0625610948191593
1.1065493646138806
1.1622678396871946
1.2346041055718475
1.3401759530791788
1.4731182795698925
1.6285434995112416
1.7986314760508308
1.9775171065493649
2.155425219941349
2.324535679374389
2.4789833822091887
2.6158357771261
2.7341153470185726
2.831867057673509
2.900293255131965
2.949169110459433
2.994134897360704
3.032258064516129
3.06158357771261
3.081133919843597
3.090909090909091
3.090909090909091
3.0791788856304985
3.053763440860215
3.01564027370479
2.964809384164223
2.9071358748778104
2.8426197458455524
2.766373411534702
2.6832844574780057
2.5972629521016617
2.5102639296187683
2.426197458455523
2.347996089931574
2.2766373411534704
2.2130987292277613
2.157380254154448
2.10850439882698
2.0664711632453567
2.032258064516129
2.0009775171065494
1.9687194525904204
1.9364613880742916
1.902248289345064
1.866080156402737
1.828934506353861
1.7898338220918866
1.7497556207233629
1.7086999022482894
1.667644183773216
1.6265884652981428
1.5913978494623655
1.5591397849462365
1.52297165200391
1.4858260019550342
1.4486803519061584
1.412512218963832
1.3782991202346042
1.3450635386119256
1.3128054740957966
1.2825024437927663
1.2541544477028348
1.2267839687194526
1.2023460410557183
1.1837732160312806
1.1691104594330402
1.1534701857282503
1.13880742913001
1.1231671554252198
1.1094819159335287
1.096774193548387
1.0850439882697946
1.0733137829912025
1.0635386119257086
1.0547409579667644
1.04594330400782
1.0420332355816226
1.040078201368524
1.0361681329423265
1.0312805474095796
1.0263929618768328
1.021505376344086
1.0156402737047898
1.010752688172043
1.0048875855327468
0.9990224828934506
0.9931573802541545
0.9872922776148584
0.9824046920821116
0.9804496578690128
0.981427174975562
0.9794721407624634
0.9765395894428152
0.9736070381231672
0.9716520039100685
0.967741935483871
0.9648093841642228
0.9628543499511242
0.9638318670576737
0.9716520039100685
0.9912023460410556
1.021505376344086
1.0684261974584557
1.141739980449658
1.2424242424242424
1.370478983382209
1.520039100684262
1.6852394916911049
1.857282502443793
2.029325513196481
2.193548387096774
2.3440860215053765
2.47702834799609
2.591397849462365
2.674486803519061
2.735092864125122
2.790811339198436
2.8367546432062563
2.8719452590420333
2.8963831867057674
2.9100684261974585
2.913000977517106
2.905180840664712
2.8856304985337244
2.8533724340175954
2.8084066471163247
2.757575757575758
2.699902248289345
2.63049853372434
2.5532746823069403
2.4731182795698925
2.3929618768328447
2.315738025415445
2.244379276637341
2.179863147605083
2.12316715542522
2.072336265884653
2.027370478983382
1.9872922776148585
1.95405669599218
1.924731182795699
1.8944281524926687
1.8621700879765395
1.8299120234604105
1.796676441837732
1.7624633431085044
1.7282502443792769
1.6920821114369502
1.653958944281525
1.6148582600195502
1.5757575757575757
1.543499511241447
1.5151515151515151
1.482893450635386
1.4506353861192571
1.418377321603128
1.3861192570869991
1.3558162267839686
1.3264907135874875
1.300097751710655
1.2746823069403714
1.2512218963831867
1.2297165200391007
1.2101661779081134
1.1964809384164223
1.1857282502443791
1.173998044965787
1.1612903225806452
1.1495601173020529
1.13880742913001
1.1290322580645162
1.1202346041055715
1.1124144672531768
1.104594330400782
1.096774193548387
1.0899315738025417
1.0869990224828934
1.086021505376344
1.0821114369501466
1.0772238514173995
1.072336265884653
1.0664711632453567
1.06158357771261
1.056695992179863
1.0527859237536656
1.0488758553274682
1.0449657869012707
1.0410557184750733
1.0371456500488758
1.0361681329423265
1.0371456500488758
1.035190615835777
1.0332355816226784
1.0303030303030305
1.0283479960899315
1.0254154447702837
1.0224828934506354
1.021505376344086
1.0234604105571847
1.032258064516129
1.0527859237536656
1.0840664711632453
1.1300097751710656
1.2013685239491692
1.2981427174975562
1.4193548387096775
1.5610948191593352
1.7174975562072337
1.8807429130009776
2.043010752688172
2.1974584555229715
2.3391984359726297
2.463343108504399
2.5562072336265884
2.625610948191593
2.6901270772238512
2.7438905180840663
2.7859237536656893
2.81622678396872
2.835777126099707
2.844574780058651
2.8426197458455524
2.8299120234604107
2.8054740957966766
2.76930596285435
2.7223851417399803
2.670576735092864
2.6148582600195502
2.549364613880743
2.479960899315738
2.4086021505376345
2.3391984359726297
2.275659824046921
2.217986314760508
2.167155425219941
2.1221896383186705
2.083088954056696
2.048875855327468
2.0195503421309877
1.994134897360704
1.967741935483871
1.9413489736070384
1.9130009775171064
1.8836754643206255
1.8514173998044965
1.818181818181818
1.782991202346041
1.7468230694037146
1.710654936461388
1.6744868035190617
1.6383186705767352
1.607038123167155
1.5777126099706744
1.5464320625610948
1.5141739980449658
1.4809384164222874
1.4486803519061584
1.418377321603128
1.3900293255131966
1.3636363636363635
1.3391984359726294
1.316715542521994
1.2961876832844574
1.2805474095796676
1.267839687194526
1.2541544477028348
1.2404692082111437
1.227761485826002
1.217008797653959
1.206256109481916
1.1964809384164223
1.1867057673509287
1.176930596285435
1.1681329423264908
1.1593352883675463
1.1515151515151516
1.147605083088954
1.1456500488758554
1.141739980449658
1.1368523949169111
1.1319648093841643
1.1270772238514175
1.1221896383186705
1.1173020527859236
1.1114369501466277
1.1065493646138806
1.1026392961876832
1.0987292277614855
1.0977517106549364
1.0977517106549364
1.0948191593352885
1.0909090909090908
1.0869990224828934
1.0821114369501466
1.078201368523949
1.0742913000977516
1.0703812316715542
1.0684261974584557
1.0703812316715542
1.0811339198435972
1.104594330400782
1.1378299120234605
1.1867057673509287
1.2619745845552297
1.364613880742913
1.4916911045943304
1.6392961876832846
1.7996089931573802
1.964809384164223
2.1270772238514173
2.2795698924731185
2.418377321603128
2.5405669599217986
2.631476050830889
2.699902248289345
2.7653958944281527
2.8211143695014664
2.866080156402737
2.900293255131965
2.9227761485826003
2.935483870967742
2.9374389051808407
2.929618768328446
2.9100684261974585
2.878787878787879
2.835777126099707
2.7869012707722387
2.730205278592375
2.66177908113392
2.5855327468230693
2.5034213098729228
2.419354838709677
2.337243401759531
2.260019550342131
2.188660801564027
2.124144672531769
2.0684261974584555
2.018572825024438
1.9775171065493649
1.9423264907135875
1.9071358748778104
1.8729227761485825
1.8387096774193548
1.804496578690127
1.76930596285435
1.7331378299120237
1.6959921798631477
1.6588465298142718
1.6217008797653958
1.585532746823069
1.5513196480938416
1.5239491691104594
1.499511241446725
1.4721407624633431
1.4437927663734116
1.414467253176931
1.3851417399804498
1.3548387096774193
1.3255131964809383
1.2971652003910068
1.2697947214076246
1.2443792766373412
1.2209188660801564
1.203323558162268
1.1906158357771262
1.1759530791788857
1.1612903225806452
1.1466275659824048
1.1329423264907137
1.1192570869990224
1.1065493646138806
1.0948191593352885
1.0840664711632453
1.075268817204301
1.067448680351906
1.0606060606060606
1.0586510263929618
1.0586510263929618
1.0586510263929618
1.0586510263929618
1.0586510263929618
1.0576735092864125
1.0557184750733135
1.053763440860215
1.0518084066471165
1.0498533724340176
1.0488758553274682
1.0478983382209188
1.0488758553274682
1.0518084066471165
1.0527859237536656
1.053763440860215
1.0527859237536656
1.0518084066471165
1.0498533724340176
1.0478983382209188
1.0449657869012707
1.043010752688172
1.043010752688172
1.0469208211143697
1.0586510263929618
1.0791788856304985
1.1114369501466277
1.164222873900293
1.2404692082111437
1.3421309872922775
1.4682306940371457
1.6148582600195502
1.775171065493646
1.9423264907135875
2.1094819159335287
2.267839687194526
2.412512218963832
2.5239491691104594
2.611925708699902
2.695014662756598
2.766373411534702
2.825024437927664
2.870967741935484
2.9042033235581624
2.9266862170087977
2.93841642228739
2.9393939393939394
2.927663734115347
2.903225806451613
2.866080156402737
2.8211143695014664
2.76930596285435
2.705767350928641
2.633431085043988
2.5542521994134897
2.4731182795698925
2.3929618768328447
2.315738025415445
2.2453567937438903
2.182795698924731
2.129032258064516
2.0840664711632453
2.047898338220919
2.018572825024438
1.991202346041056
1.964809384164223
1.9403714565004888
1.916911045943304
1.8934506353861196
1.8699902248289344
1.8455522971652003
1.8191593352883677
1.790811339198436
1.761485826001955
1.7350928641251222
1.710654936461388
1.6823069403714566
1.651026392961877
1.619745845552297
1.5884652981427174
1.5571847507331378
1.5249266862170088
1.4926686217008798
1.4594330400782014
1.4252199413489737
1.391006842619746
1.3558162267839686
1.327468230694037
1.303030303030303
1.2746823069403714
1.24633431085044
1.2209188660801564
1.198435972629521
1.1798631476050832
1.166177908113392
1.155425219941349
1.147605083088954
1.142717497556207
1.1397849462365592
1.1407624633431086
1.1436950146627567
1.1466275659824048
1.1505376344086022
1.1544477028347997
1.1583577712609971
1.163245356793744
1.1671554252199414
1.1710654936461389
1.173998044965787
1.1759530791788857
1.1759530791788857
1.173998044965787
1.1730205278592376
1.1710654936461389
1.166177908113392
1.1593352883675463
1.1515151515151516
1.141739980449658
1.1319648093841643
1.121212121212121
1.1094819159335287
1.0977517106549364
1.0879765395894427
1.0821114369501466
1.0850439882697946
1.0977517106549364
1.1270772238514175
1.1779081133919844
1.2541544477028348
1.3577712609970674
1.487781036168133
1.6392961876832846
1.8054740957966764
1.978494623655914
2.1495601173020527
2.3118279569892475
2.4594330400782014
2.573802541544477
2.6637341153470184
2.7497556207233624
2.825024437927664
2.886608015640274
2.9345063538611926
2.970674486803519
2.995112414467253
3.0087976539589443
3.010752688172043
3.0009775171065494
2.979472140762464
2.9472140762463344
2.905180840664712
2.8514173998044967
2.7869012707722387
2.713587487781036
2.635386119257087
2.555229716520039
2.4750733137829912
2.3978494623655915
2.326490713587488
2.26197458455523
2.2052785923753664
2.156402737047898
2.1163245356793743
2.083088954056696
2.050830889540567
2.0205278592375366
1.991202346041056
1.9608993157380252
1.9305962854349952
1.8983382209188664
1.8641251221896384
1.828934506353861
1.793743890518084
1.7575757575757576
1.726295210166178
1.696969696969697
1.6637341153470186
1.6285434995112416
1.5933528836754642
1.5571847507331378
1.521994134897361
1.487781036168133
1.4545454545454546
1.4242424242424243
1.3949169110459434
1.367546432062561
1.3421309872922775
1.3225806451612905
1.305962854349951
1.2864125122189638
1.2668621700879763
1.2482893450635386
1.2297165200391007
1.2130987292277615
1.1974584555229717
1.1827956989247312
1.1691104594330402
1.1573802541544478
1.1466275659824048
1.1397849462365592
1.1358748778103618
1.1290322580645162
1.1221896383186705
1.1143695014662756
1.1065493646138806
1.099706744868035
1.093841642228739
1.0879765395894427
1.083088954056696
1.0791788856304985
1.0742913000977516
1.0703812316715542
1.0694037145650048
1.0703812316715542
1.0694037145650048
1.0684261974584557
1.0664711632453567
1.0635386119257086
1.0596285434995112
1.0557184750733135
1.0518084066471165
1.0478983382209188
1.0449657869012707
1.043010752688172
1.0469208211143697
1.0576735092864125
1.078201368523949
1.1143695014662756
1.1720430107526882
1.2541544477028348
1.3636363636363635
1.4965786901270772
1.6490713587487782
1.8142717497556209
1.9843597262952104
2.1524926686217007
2.3118279569892475
2.4389051808406648
2.5425219941348973
2.644183773216031
2.7370478983382207
2.8152492668621703
