ppg
1.392961876832845
1.4193548387096775
1.436950146627566
1.4457478005865103
1.4467253176930597
1.4408602150537635
1.4281524926686218
1.409579667644184
1.3900293255131966
1.3695014662756595
1.343108504398827
1.3128054740957966
1.2805474095796676
1.2482893450635386
1.2160312805474096
1.1837732160312806
1.152492668621701
1.1221896383186705
1.0928641251221896
1.0654936461388074
1.04594330400782
1.0361681329423265
1.0361681329423265
1.0547409579667644
1.099706744868035
1.1759530791788857
1.2864125122189638
1.4281524926686218
1.5933528836754642
1.775171065493646
1.9618768328445748
2.1417399804496577
2.286412512218964
2.40078201368524
2.50733137829912
2.591397849462365
2.64613880742913
2.6695992179863146
2.66177908113392
2.6265884652981426
2.565982404692082
2.482893450635386
2.3822091886608017
2.267839687194526
2.1417399804496577
2.0234604105571847
1.9090909090909087
1.780058651026393
1.6441837732160314
1.5073313782991202
1.3743890518084063
1.2502443792766371
1.1378299120234605
1.0410557184750733
0.9628543499511242
0.9051808406647116
0.8690127077223851
0.855327468230694
0.8592375366568915
0.8787878787878788
0.913978494623656
0.9618768328445748
1.0205278592375366
1.086021505376344
1.1544477028347997
1.2228739002932552
1.2864125122189638
1.3440860215053765
1.3949169110459434
1.436950146627566
1.4682306940371457
1.490713587487781
1.5063538611925709
1.5141739980449658
1.5151515151515151
1.5083088954056696
1.4946236559139785
1.4750733137829912
1.4496578690127078
1.4203323558162269
1.3870967741935485
1.3528836754643203
1.3235581622678396
1.2971652003910068
1.2668621700879763
1.2346041055718475
1.2013685239491692
1.1681329423264908
1.1358748778103618
1.1085043988269794
1.0909090909090908
1.0909090909090908
1.1163245356793745
1.1730205278592376
1.2668621700879763
1.3734115347018572
1.4975562072336266
1.66177908113392
1.8504398826979471
2.048875855327468
2.244379276637341
2.423264907135875
2.5777126099706744
2.699902248289345
2.7869012707722387
2.8367546432062563
2.8514173998044967
2.8377321603128056
2.798631476050831
2.736070381231672
2.6529814271749754
2.552297165200391
2.4389051808406648
2.315738025415445
2.185728250244379
2.050830889540567
1.9149560117302051
1.7790811339198436
1.64613880742913
1.5180840664711632
1.4115347018572826
1.3206256109481915
1.23069403714565
1.1495601173020529
1.083088954056696
1.0342130987292275
1.0039100684261977
0.9931573802541545
1.0
1.0234604105571847
1.0606060606060606
1.1085043988269794
1.1583577712609971
1.209188660801564
1.2668621700879763
1.3255131964809383
1.3812316715542523
1.4320625610948192
1.47702834799609
1.5141739980449658
1.541544477028348
1.560117302052786
1.56891495601173
1.5698924731182795
1.5620723362658846
1.5503421309872922
1.5347018572825024
1.512218963831867
1.4848484848484849
1.452590420332356
1.4173998044965788
1.3812316715542523
1.3450635386119256
1.3079178885630498
1.2717497556207231
1.2346041055718475
1.198435972629521
1.1700879765395895
1.1485826001955035
1.1319648093841643
1.1710654936461389
1.2541544477028348
1.3362658846529814
1.4379276637341154
1.5679374389051808
1.7272727272727273
1.9100684261974583
2.1065493646138806
2.3059628543499517
2.495601173020528
2.6451612903225805
2.7624633431085046
2.8690127077223853
2.951124144672532
3.0019550342130987
3.0195503421309877
3.005865102639296
2.962854349951124
2.8963831867057674
2.8103616813294234
2.7096774193548385
2.598240469208211
2.493646138807429
2.391006842619746
2.274682306940372
2.1524926686217007
2.027370478983382
1.902248289345064
1.7790811339198436
1.6608015640273706
1.5503421309872922
1.4516129032258065
1.367546432062561
1.300097751710655
1.2502443792766371
1.219941348973607
1.2072336265884651
1.2082111436950147
1.2228739002932552
1.2512218963831867
1.29227761485826
1.3411534701857282
1.3958944281524928
1.4535679374389052
1.5112414467253177
1.5650048875855327
1.6129032258064515
1.651026392961877
1.6803519061583578
1.704789833822092
1.721407624633431
1.729227761485826
1.7302052785923754
1.7243401759530792
1.710654936461388
1.689149560117302
1.6627565982404693
1.6314760508308896
1.5972629521016617
1.5610948191593352
1.5298142717497556
1.501466275659824
1.469208211143695
1.434017595307918
1.3978494623655917
1.3616813294232648
1.3264907135874875
1.2971652003910068
1.278592375366569
1.2795698924731185
1.305962854349951
1.3665689149560116
1.4437927663734116
1.544477028347996
1.6881720430107527
1.8631476050830889
2.0576735092864125
2.2580645161290325
2.452590420332356
2.6295210166177907
2.780058651026393
2.898338220918866
2.979472140762464
3.0234604105571847
3.032258064516129
3.0127077223851417
2.970674486803519
2.906158357771261
2.8240469208211145
2.7282502443792764
2.622678396871945
2.5112414467253177
2.396871945259042
2.2795698924731185
2.160312805474096
2.040078201368524
1.919843597262952
1.8162267839687196
1.7243401759530792
1.6275659824046922
1.5347018572825024
1.4506353861192571
1.3792766373411536
1.3235581622678396
1.284457478005865
1.2639296187683284
1.260019550342131
1.2717497556207231
1.2981427174975562
1.3313782991202343
1.3714565004887584
1.4213098729227762
1.4760508308895406
1.5327468230694037
1.587487781036168
1.6373411534701858
1.6813294232649072
1.7165200391006843
1.7429130009775171
1.7595307917888563
1.7673509286412512
1.7673509286412512
1.761485826001955
1.750733137829912
1.7331378299120237
1.7086999022482894
1.6793743890518085
1.64613880742913
1.6109481915933528
1.5747800586510263
1.5376344086021505
1.500488758553275
1.4643206256109482
1.4271749755620724
1.396871945259042
1.3714565004887584
1.3479960899315735
1.3343108504398826
1.3391984359726294
1.370478983382209
1.435972629521017
1.5386119257087
1.678396871945259
1.8484848484848484
2.042033235581622
2.2453567937438903
2.4457478005865103
2.608993157380254
2.739980449657869
2.8611925708699903
2.9550342130987293
3.0146627565982405
3.037145650048876
3.024437927663734
2.9824046920821115
2.9159335288367547
2.831867057673509
2.735092864125122
2.631476050830889
2.5347018572825024
2.441837732160313
2.3382209188660803
2.228739002932551
2.1163245356793743
2.002932551319648
1.8914956011730208
1.782991202346041
1.6803519061583578
1.585532746823069
1.5024437927663734
1.4330400782013686
1.3792766373411536
1.3450635386119256
1.3264907135874875
1.3206256109481915
1.327468230694037
1.348973607038123
1.383186705767351
1.4271749755620724
1.47702834799609
1.5298142717497556
1.5835777126099706
1.6334310850439884
1.6764418377321604
1.7096774193548387
1.7341153470185728
1.75366568914956
1.7653958944281525
1.76930596285435
1.7644183773216031
1.7517106549364614
1.7331378299120237
1.70772238514174
1.6764418377321604
1.640273704789834
1.6011730205278591
1.560117302052786
1.5239491691104594
1.490713587487781
1.452590420332356
1.412512218963832
1.3724340175953078
1.3333333333333333
1.2961876832844574
1.2639296187683284
1.241446725317693
1.2336265884652982
1.249266862170088
1.2961876832844574
1.3607038123167154
1.4506353861192571
1.581622678396872
1.7468230694037146
1.9364613880742916
2.1378299120234603
2.3362658846529816
2.5190615835777126
2.67644183773216
2.798631476050831
2.8807429130009776
2.9227761485826003
2.9266862170087977
2.902248289345064
2.857282502443793
2.789833822091887
2.705767350928641
2.610948191593353
2.5083088954056696
2.40078201368524
2.290322580645161
2.177908113391984
2.0635386119257086
1.948191593352884
1.833822091886608
1.7350928641251222
1.64613880742913
1.5513196480938416
1.4594330400782014
1.3763440860215057
1.3049853372434017
1.2482893450635386
1.2082111436950147
1.18475073313783
1.1779081133919844
1.187683284457478
1.2121212121212122
1.2482893450635386
1.2883675464320623
1.3313782991202343
1.3812316715542523
1.434017595307918
1.4848484848484849
1.530791788856305
1.5698924731182795
1.6011730205278591
1.624633431085044
1.6041055718475072
1.5581622678396871
1.5288367546432062
1.5083088954056696
1.4897360703812317
1.466275659824047
1.4379276637341154
1.4056695992179864
1.370478983382209
1.3333333333333333
1.295210166177908
1.2570869990224829
1.219941348973607
1.1837732160312806
1.1495601173020529
1.1163245356793745
1.0899315738025417
1.0684261974584557
1.0478983382209188
1.0332355816226784
1.032258064516129
1.0527859237536656
1.1016617790811338
1.1837732160312806
1.300097751710655
1.4496578690127078
1.624633431085044
1.81524926686217
1.9843597262952104
2.136852394916911
2.2952101661779083
2.439882697947214
2.558162267839687
2.641251221896383
2.6881720430107525
2.6989247311827955
2.67644183773216
2.625610948191593
2.552297165200391
2.462365591397849
2.360703812316716
2.2639296187683287
2.167155425219941
2.056695992179863
1.93841642228739
1.8162267839687196
1.6911045943304008
1.5669599217986314
1.4457478005865103
1.332355816226784
1.2287390029325511
1.13880742913001
1.064516129032258
1.013685239491691
0.9824046920821116
0.9608993157380256
0.95405669599218
0.9638318670576737
0.9882697947214076
1.0254154447702837
1.072336265884653
1.126099706744868
1.1837732160312806
1.2424242424242424
1.2991202346041055
1.3499511241446724
1.391006842619746
1.4242424242424243
1.4516129032258065
1.4731182795698925
1.4858260019550342
1.4897360703812317
1.4858260019550342
1.4750733137829912
1.458455522971652
1.4349951124144673
1.4076246334310851
1.3763440860215057
1.348973607038123
1.3225806451612905
1.2913000977517106
1.2570869990224829
1.2228739002932552
1.1886608015640274
1.155425219941349
1.1231671554252198
1.0918866080156402
1.0654936461388074
1.0469208211143697
1.0420332355816226
1.0527859237536656
1.0840664711632453
1.144672531769306
1.2394916911045943
1.3695014662756595
1.5298142717497556
1.7126099706744868
1.90811339198436
2.102639296187683
2.286412512218964
2.447702834799609
2.578690127077224
2.673509286412512
2.727272727272727
2.745845552297165
2.73802541544477
2.701857282502444
2.6402737047898337
2.558162267839687
2.4604105571847508
2.350928641251222
2.233626588465298
2.1094819159335287
1.981427174975562
1.8504398826979471
1.7360703812316716
1.629521016617791
1.5131964809384164
1.396871945259042
1.2864125122189638
1.1867057673509287
1.1016617790811338
1.0332355816226784
0.9843597262952102
0.95405669599218
0.9442815249266864
0.9530791788856304
0.978494623655914
1.0127077223851415
1.053763440860215
1.1065493646138806
1.166177908113392
1.227761485826002
1.289345063538612
1.3470185728250244
1.3988269794721409
1.4428152492668622
1.478005865102639
1.5034213098729228
1.5190615835777126
1.525904203323558
1.5268817204301075
1.520039100684262
1.5053763440860215
1.4848484848484849
1.458455522971652
1.4281524926686218
1.3949169110459434
1.359726295210166
1.3235581622678396
1.2873900293255132
1.2512218963831867
1.217008797653959
1.1886608015640274
1.164222873900293
1.1358748778103618
1.10752688172043
1.0850439882697946
1.075268817204301
1.0840664711632453
1.1202346041055715
1.1886608015640274
1.2942326490713587
1.4349951124144673
1.606060606060606
1.7702834799608993
1.9315738025415443
2.115347018572825
2.2991202346041058
2.4672531769305963
2.6080156402737047
2.7155425219941347
2.7839687194525906
2.814271749755621
2.8084066471163247
2.7702834799608995
2.705767350928641
2.6207233626588464
2.532746823069404
2.4408602150537635
2.333333333333333
2.2170087976539588
2.0948191593352883
1.9687194525904204
1.8406647116324533
1.7135874877810362
1.5894428152492668
1.469208211143695
1.3558162267839686
1.2541544477028348
1.1759530791788857
1.1173020527859236
1.0654936461388074
1.0273704789833822
1.0068426197458455
1.0039100684261977
1.0175953079178883
1.0469208211143697
1.0879765395894427
1.1378299120234605
1.1945259042033236
1.2541544477028348
1.313782991202346
1.364613880742913
1.4086021505376345
1.4506353861192571
1.4868035190615836
1.5151515151515151
1.5356793743890518
1.5464320625610948
1.5483870967741935
1.542521994134897
1.5278592375366569
1.5063538611925709
1.478983382209189
1.4535679374389052
1.4271749755620724
1.3949169110459434
1.3587487781036167
1.321603128054741
1.284457478005865
1.2482893450635386
1.2121212121212122
1.1759530791788857
1.141739980449658
1.1124144672531768
1.0909090909090908
1.0850439882697946
1.0957966764418376
1.1280547409579669
1.1935483870967742
1.2961876832844574
1.435972629521017
1.607038123167155
1.801564027370479
2.006842619745845
2.210166177908113
2.39980449657869
2.5650048875855327
2.697947214076246
2.78494623655914
2.832844574780059
2.855327468230694
2.84652981427175
2.8084066471163247
2.745845552297165
2.662756598240469
2.5650048875855327
2.4565004887585533
2.3411534701857284
2.2218963831867056
2.099706744868035
1.975562072336266
1.865102639296188
1.7624633431085044
1.6490713587487782
1.555229716520039
1.4750733137829912
1.3861192570869991
1.300097751710655
1.224828934506354
1.164222873900293
1.121212121212121
1.0957966764418376
1.088954056695992
1.096774193548387
1.1173020527859236
1.1515151515151516
1.1974584555229717
1.2512218963831867
1.3098729227761483
1.370478983382209
1.4301075268817205
1.4848484848484849
1.5347018572825024
1.5757575757575757
1.6080156402737047
1.6304985337243405
1.6441837732160314
1.6490713587487782
1.6451612903225807
1.6344086021505375
1.6158357771260996
1.590420332355816
1.5591397849462365
1.5239491691104594
1.4858260019550342
1.447702834799609
1.4086021505376345
1.3685239491691104
1.335288367546432
1.3049853372434017
1.2697947214076246
1.2326490713587488
1.198435972629521
1.1710654936461389
1.1573802541544478
1.166177908113392
1.2052785923753666
1.281524926686217
1.3988269794721409
1.5542521994134897
1.7409579667644184
1.9188660801564028
2.0928641251221896
2.2883675464320627
2.482893450635386
2.658846529814272
2.8044965786901277
2.911045943304008
2.9765395894428157
3.0009775171065494
2.9872922776148583
2.941348973607038
2.8690127077223853
2.788856304985337
2.7008797653958942
2.5972629521016617
2.484848484848485
2.366568914956012
2.2453567937438903
2.1221896383186705
1.9980449657869013
1.8729227761485825
1.750733137829912
1.632453567937439
1.521016617790811
1.43108504398827
1.356793743890518
1.2854349951124144
1.224828934506354
1.1788856304985338
1.1515151515151516
1.141739980449658
1.1495601173020529
1.173998044965787
1.2121212121212122
1.2619745845552297
1.3186705767350928
1.3792766373411536
1.434017595307918
1.4838709677419355
1.5347018572825024
1.581622678396872
1.6207233626588464
1.651026392961877
1.6705767350928642
1.6803519061583578
1.6813294232649072
1.6744868035190617
1.6588465298142718
1.6363636363636365
1.6138807429130009
1.5894428152492668
1.5571847507331378
1.521994134897361
1.4848484848484849
1.4467253176930597
1.4076246334310851
1.3685239491691104
1.3294232649071358
1.2913000977517106
1.2541544477028348
1.2218963831867058
1.2003910068426198
1.1935483870967742
1.206256109481916
1.24633431085044
1.3225806451612905
1.4389051808406648
1.5933528836754642
1.780058651026393
1.989247311827957
2.206256109481916
2.418377321603128
2.610948191593353
2.773216031280548
2.8856304985337244
2.9550342130987293
2.997067448680352
3.004887585532747
2.978494623655914
2.9227761485826003
2.8426197458455524
2.745845552297165
2.6373411534701856
2.5210166177908118
2.40078201368524
2.278592375366569
2.155425219941349
2.04594330400782
1.943304007820137
1.83088954056696
1.715542521994135
1.6011730205278591
1.4926686217008798
1.393939393939394
1.3088954056695992
1.238514173998045
1.1857282502443791
1.1515151515151516
1.1348973607038124
1.1348973607038124
1.1485826001955035
1.1759530791788857
1.2150537634408602
1.2639296187683284
1.3196480938416422
1.3773216031280548
1.434017595307918
1.4868035190615836
1.533724340175953
1.5718475073313782
1.6011730205278591
1.6207233626588464
1.6314760508308896
1.635386119257087
1.6304985337243405
1.6187683284457477
1.5992179863147604
1.573802541544477
1.543499511241447
1.509286412512219
1.4721407624633431
1.434017595307918
1.3949169110459434
1.3558162267839686
1.3235581622678396
1.295210166177908
1.2639296187683284
1.23069403714565
1.1974584555229717
1.1652003910068427
1.13880742913001
1.1251221896383188
1.130987292277615
1.1652003910068427
1.2346041055718475
1.3440860215053765
1.4916911045943304
1.6422287390029326
1.801564027370479
1.9951124144672527
2.19941348973607
2.3958944281524928
2.570869990224829
2.713587487781036
2.817204301075269
2.878787878787879
2.8993157380254155
2.8807429130009776
2.83088954056696
2.7653958944281527
2.687194525904203
2.590420332355816
2.479960899315738
2.361681329423265
2.2385141739980448
2.1114369501466275
1.9833822091886608
1.855327468230694
1.7282502443792769
1.6041055718475072
1.4858260019550342
1.3763440860215057
1.2883675464320623
1.2189638318670577
1.1534701857282503
1.1006842619745845
1.0635386119257086
1.0439882697947214
1.043010752688172
1.0596285434995112
1.0918866080156402
1.1358748778103618
1.1896383186705768
1.249266862170088
1.3049853372434017
1.356793743890518
1.4105571847507332
1.4613880742913
1.5053763440860215
1.5405669599217986
1.5669599217986314
1.5835777126099706
1.590420332355816
1.587487781036168
1.576735092864125
1.5591397849462365
1.5356793743890518
1.512218963831867
1.4868035190615836
1.4545454545454546
1.418377321603128
1.380254154447703
1.3421309872922775
1.3049853372434017
1.2688172043010753
1.2326490713587488
1.1974584555229717
1.163245356793744
1.1300097751710656
1.1055718475073313
1.0879765395894427
1.0762463343108504
1.0791788856304985
1.1036168132942326
1.1573802541544478
1.24633431085044
1.3714565004887584
1.5278592375366569
1.70772238514174
1.8934506353861196
2.0762463343108504
2.254154447702835
2.3958944281524928
2.504398826979472
2.5992179863147604
2.665689149560117
2.6989247311827955
2.697947214076246
2.664711632453568
2.603128054740958
2.5190615835777126
2.4173998044965788
2.303030303030303
2.179863147605083
2.065493646138808
1.9560117302052784
1.8318670576735088
1.7008797653958945
1.5679374389051808
1.436950146627566
1.3118279569892473
1.1974584555229717
1.096774193548387
1.0127077223851415
0.9481915933528836
0.9042033235581622
0.8836754643206256
0.8817204301075269
0.8934506353861192
0.9208211143695014
0.9618768328445748
1.013685239491691
1.072336265884653
1.1358748778103618
1.2003910068426198
1.262952101661779
1.3206256109481915
1.3714565004887584
1.414467253176931
1.4457478005865103
1.4682306940371457
1.4848484848484849
1.4936461388074291
1.4946236559139785
1.4868035190615836
1.4721407624633431
1.4516129032258065
1.426197458455523
1.396871945259042
1.364613880742913
1.3304007820136852
1.3010752688172045
1.2746823069403714
1.2443792766373412
1.2121212121212122
1.1808406647116323
1.1495601173020529
1.1192570869990224
1.0909090909090908
1.064516129032258
1.0439882697947214
1.032258064516129
1.0371456500488758
1.064516129032258
1.1085043988269794
1.1749755620723363
1.2776148582600195
1.414467253176931
1.5777126099706744
1.7575757575757576
1.9442815249266865
2.1251221896383186
2.291300097751711
2.4330400782013686
2.544477028347996
2.622678396871945
2.664711632453568
2.674486803519061
2.659824046920821
2.619745845552297
2.555229716520039
2.469208211143695
2.364613880742913
2.2453567937438903
2.115347018572825
1.9775171065493649
1.8347996089931573
1.6901270772238517
1.5464320625610948
1.4242424242424243
1.316715542521994
1.2052785923753666
1.1006842619745845
1.0087976539589445
0.935483870967742
0.8826979472140762
0.8514173998044966
0.841642228739003
0.852394916911046
0.8826979472140762
0.9286412512218964
0.9804496578690128
1.0361681329423265
1.1016617790811338
1.1710654936461389
1.2394916911045943
1.3049853372434017
1.364613880742913
1.41544477028348
1.458455522971652
1.4916911045943304
1.5151515151515151
1.5298142717497556
1.5366568914956011
1.5376344086021505
1.5327468230694037
1.520039100684262
1.500488758553275
1.4760508308895406
1.447702834799609
1.4164222873900294
1.383186705767351
1.3499511241446724
1.3157380254154447
1.281524926686217
1.2473118279569892
1.219941348973607
1.1964809384164223
1.1691104594330402
1.141739980449658
1.1192570869990224
1.10752688172043
1.115347018572825
1.1505376344086022
1.219941348973607
1.3255131964809383
1.466275659824047
1.6373411534701858
1.827956989247312
2.0
2.158357771260997
2.3284457478005867
2.4887585532746823
2.625610948191593
2.732160312805474
2.803519061583578
2.8396871945259043
2.8426197458455524
2.8132942326490715
2.755620723362659
2.674486803519061
2.5865102639296187
2.4916911045943304
2.376344086021505
2.2482893450635384
2.110459433040078
1.967741935483871
1.823069403714565
1.6793743890518085
1.5395894428152492
1.4066471163245358
1.284457478005865
1.176930596285435
1.0869990224828934
1.0234604105571847
0.981427174975562
0.9521016617790812
0.9413489736070382
0.9491691104594332
0.975562072336266
1.0175953079178883
1.072336265884653
1.1358748778103618
1.2052785923753666
1.2766373411534702
1.3450635386119256
1.4037145650048877
1.4535679374389052
1.501466275659824
1.542521994134897
1.5757575757575757
1.6001955034213098
1.6158357771260996
1.6217008797653958
1.6187683284457477
1.6080156402737047
1.590420332355816
1.5679374389051808
1.5395894428152492
1.5131964809384164
1.4868035190615836
1.455522971652004
1.4222873900293256
1.3870967741935485
1.3509286412512218
1.3147605083088951
1.278592375366569
1.2434017595307918
1.2111436950146628
1.1857282502443791
1.1730205278592376
1.176930596285435
1.2013685239491692
1.2580645161290325
1.3528836754643203
1.4848484848484849
1.651026392961877
1.842619745845552
2.048875855327468
2.2561094819159337
2.452590420332356
2.627565982404692
2.773216031280548
2.8836754643206257
2.951124144672532
2.9824046920821115
2.988269794721408
2.9657869012707723
2.9159335288367547
2.841642228739003
2.745845552297165
2.634408602150537
2.5112414467253177
2.380254154447703
2.243401759530792
2.102639296187683
1.9765395894428155
1.8602150537634408
1.7331378299120237
1.6041055718475072
1.479960899315738
1.6989247311827955
1.6930596285434996
1.6735092864125125
1.64613880742913
1.6148582600195502
1.581622678396872
1.547409579667644
1.5190615835777126
1.4916911045943304
1.4604105571847508
1.426197458455523
1.392961876832845
1.364613880742913
1.346041055718475
1.3450635386119256
1.370478983382209
1.4271749755620724
1.520039100684262
1.6480938416422288
1.8074291300097751
1.9608993157380252
2.113391984359726
2.2883675464320627
2.4652981427174976
2.6295210166177907
2.771260997067449
2.8826979472140764
2.960899315738025
3.003910068426197
3.0127077223851417
2.991202346041056
2.9423264907135875
2.8797653958944283
2.806451612903226
2.7145650048875853
2.610948191593353
2.4995112414467253
2.383186705767351
2.2639296187683287
2.1417399804496577
2.0195503421309877
1.8993157380254155
1.7820136852394917
1.6695992179863148
1.5650048875855327
1.482893450635386
1.4173998044965788
1.356793743890518
1.3079178885630498
1.273704789833822
1.2561094819159335
1.2561094819159335
1.2717497556207231
1.3020527859237536
1.343108504398827
1.392961876832845
1.447702834799609
1.498533724340176
1.5464320625610948
1.5962854349951123
1.643206256109482
1.6852394916911049
1.7194525904203324
1.7448680351906158
1.761485826001955
1.76930596285435
1.7683284457478006
1.7605083088954057
1.7458455522971652
1.7243401759530792
1.7028347996089932
1.6793743890518085
1.6500488758553276
1.616813294232649
1.5826001955034212
1.5464320625610948
1.5102639296187683
1.474095796676442
1.436950146627566
1.3998044965786902
1.3655913978494625
1.3372434017595307
1.3206256109481915
1.3186705767350928
1.3362658846529814
1.3822091886608017
1.4633431085043989
1.5806451612903225
1.7311827956989247
1.90811339198436
