ppg
2.5268817204301075
2.453567937438905
2.377321603128055
2.2991202346041058
2.220918866080156
2.1417399804496577
2.072336265884653
2.0087976539589443
1.9393939393939397
1.869012707722385
1.7996089931573802
1.7311827956989247
1.6656891495601174
1.6011730205278591
1.5405669599217986
1.4838709677419355
1.4320625610948192
1.3851417399804498
1.3509286412512218
1.3255131964809383
1.300097751710655
1.2795698924731185
1.2649071358748778
1.2590420332355816
1.2639296187683284
1.2795698924731185
1.305962854349951
1.343108504398827
1.391006842619746
1.4467253176930597
1.5083088954056696
1.56891495601173
1.629521016617791
1.696969696969697
1.7683284457478006
1.8406647116324533
1.9130009775171064
1.9853372434017595
2.056695992179863
2.1280547409579667
2.19941348973607
2.269794721407625
2.3382209188660803
2.3958944281524928
2.44672531769306
2.5024437927663734
2.557184750733138
2.6070381231671558
2.652003910068426
2.6901270772238512
2.721407624633431
2.7468230694037143
2.766373411534702
2.7810361681329425
2.792766373411535
2.803519061583578
2.8103616813294234
2.8152492668621703
2.823069403714565
2.832844574780059
2.8426197458455524
2.850439882697948
2.8563049853372435
2.860215053763441
2.860215053763441
2.8563049853372435
2.8475073313782997
2.833822091886608
2.8152492668621703
2.792766373411535
2.763440860215054
2.727272727272727
2.684261974584555
2.634408602150537
2.578690127077224
2.517106549364614
2.4516129032258065
2.3822091886608017
2.3088954056695994
2.232649071358749
2.155425219941349
2.0879765395894427
2.024437927663734
1.95405669599218
1.8797653958944285
1.804496578690127
1.7302052785923754
1.656891495601173
1.585532746823069
1.517106549364614
1.4516129032258065
1.388074291300098
1.327468230694037
1.2805474095796676
1.2424242424242424
1.2003910068426198
1.1593352883675463
1.121212121212121
1.0879765395894427
1.06158357771261
1.0449657869012707
1.0371456500488758
1.0391006842619743
1.0527859237536656
1.0772238514173995
1.1133919843597262
1.155425219941349
1.2023460410557183
1.2570869990224829
1.316715542521994
1.3812316715542523
1.4496578690127078
1.5190615835777126
1.590420332355816
1.6637341153470186
1.737047898338221
1.8113391984359728
1.884652981427175
1.9501466275659824
2.0097751710654936
2.075268817204301
2.1417399804496577
2.207233626588465
2.270772238514174
2.3304007820136854
2.3841642228739004
2.432062561094819
2.472140762463343
2.505376344086021
2.5317693059628543
2.549364613880743
2.5620723362658846
2.573802541544477
2.5855327468230693
2.598240469208211
2.611925708699902
2.625610948191593
2.6392961876832843
2.652003910068426
2.662756598240469
2.6715542521994133
2.677419354838709
2.679374389051808
2.675464320625611
2.6666666666666665
2.652003910068426
2.63049853372434
2.6021505376344085
2.5669599217986314
2.5249266862170088
2.47702834799609
2.423264907135875
2.364613880742913
2.3010752688172045
2.2346041055718477
2.1739980449657867
2.1163245356793743
2.0498533724340176
1.978494623655914
1.905180840664712
1.83088954056696
1.7565982404692082
1.6852394916911049
1.616813294232649
1.5513196480938416
1.487781036168133
1.4271749755620724
1.370478983382209
1.327468230694037
1.29227761485826
1.2531769305962854
1.2160312805474096
1.181818181818182
1.152492668621701
1.1290322580645162
1.1055718475073313
1.086021505376344
1.0791788856304985
1.083088954056696
1.0957966764418376
1.1163245356793745
1.144672531769306
1.1798631476050832
1.2238514173998043
1.2766373411534702
1.3372434017595307
1.4027370478983383
1.474095796676442
1.5483870967741935
1.6256109481915937
1.7038123167155426
1.7839687194525904
1.8641251221896384
1.9345063538611929
2.0
2.071358748778104
2.144672531769306
2.217986314760508
2.290322580645161
2.360703812316716
2.4281524926686218
2.490713587487781
2.547409579667644
2.5992179863147604
2.64613880742913
2.6803519061583576
2.7067448680351904
2.7331378299120237
2.7565982404692084
2.777126099706745
2.793743890518084
2.8084066471163247
2.8211143695014664
2.832844574780059
2.844574780058651
2.8563049853372435
2.8670576735092865
2.877810361681329
2.8826979472140764
2.884652981427175
2.887585532746823
2.8885630498533725
2.886608015640274
2.881720430107527
2.8729227761485827
2.8611925708699903
2.844574780058651
2.8211143695014664
2.791788856304985
2.755620723362659
2.717497556207233
2.675464320625611
2.625610948191593
2.56891495601173
2.506353861192571
2.4389051808406648
2.36950146627566
2.2981427174975564
2.225806451612903
2.1524926686217007
2.0791788856304985
2.005865102639296
1.9335288367546437
1.8729227761485825
1.8191593352883677
1.7595307917888563
1.6979472140762464
1.6373411534701858
1.5786901270772238
1.52297165200391
1.4721407624633431
1.426197458455523
1.3851417399804498
1.348973607038123
1.3196480938416422
1.3020527859237536
1.2942326490713587
1.289345063538612
1.29227761485826
1.3049853372434017
1.327468230694037
1.3616813294232648
1.4076246334310851
1.4623655913978495
1.521994134897361
1.587487781036168
1.656891495601173
1.7282502443792769
1.7927663734115349
1.8533724340175952
1.920821114369501
1.991202346041056
2.0625610948191597
2.133919843597263
2.204301075268817
2.2737047898338223
2.3411534701857284
2.4056695992179864
2.4672531769305963
2.5249266862170088
2.570869990224829
2.608993157380254
2.6480938416422286
2.684261974584555
2.7155425219941347
2.740957966764418
2.7614858260019552
2.777126099706745
2.789833822091887
2.7996089931573804
2.8084066471163247
2.81622678396872
2.8240469208211145
2.8289345063538613
2.832844574780059
2.838709677419355
2.8455522971652005
2.8514173998044967
2.855327468230694
2.855327468230694
2.850439882697948
2.8396871945259043
2.823069403714565
2.7996089931573804
2.76930596285435
2.7370478983382207
2.7008797653958942
2.654936461388074
2.6021505376344085
2.544477028347996
2.4819159335288368
2.41544477028348
2.347018572825025
2.275659824046921
2.2023460410557183
2.1280547409579667
2.0518084066471163
1.9745845552297163
1.9100684261974583
1.8514173998044965
1.7878787878787878
1.7223851417399805
1.6578690127077225
1.5933528836754642
1.5298142717497556
1.469208211143695
1.4105571847507332
1.3558162267839686
1.3040078201368523
1.2580645161290325
1.224828934506354
1.1994134897360704
1.1720430107526882
1.147605083088954
1.1300097751710656
1.1192570869990224
1.118279569892473
1.1280547409579669
1.1505376344086022
1.1827956989247312
1.2258064516129032
1.278592375366569
1.332355816226784
1.388074291300098
1.4506353861192571
1.5180840664711632
1.5884652981427174
1.6608015640273706
1.7341153470185728
1.8074291300097751
1.8807429130009776
1.9530791788856303
2.0254154447702835
2.096774193548387
2.1681329423264906
2.2277614858260018
2.281524926686217
2.3391984359726297
2.3958944281524928
2.449657869012708
2.498533724340176
2.5405669599217986
2.575757575757576
2.6041055718475072
2.6265884652981426
2.643206256109482
2.656891495601173
2.665689149560117
2.670576735092864
2.678396871945259
2.686217008797654
2.6940371456500487
2.701857282502444
2.708699902248289
2.7155425219941347
2.720430107526881
2.7233626588465296
2.7233626588465296
2.718475073313783
2.70772238514174
2.6930596285435
2.673509286412512
2.6471163245356792
2.613880742913001
2.573802541544477
2.5268817204301075
2.474095796676442
2.41544477028348
2.3519061583577714
2.283479960899316
2.2111436950146626
2.136852394916911
2.070381231671554
2.007820136852395
1.9374389051808407
1.8641251221896384
1.7888563049853372
1.7126099706744868
1.6392961876832846
1.5679374389051808
1.498533724340176
1.43108504398827
1.3665689149560116
1.3049853372434017
1.24633431085044
1.2013685239491692
1.1652003910068427
1.1251221896383188
1.0850439882697946
1.0488758553274682
1.018572825024438
0.9951124144672532
0.9804496578690128
0.975562072336266
0.978494623655914
0.9912023460410556
1.0146627565982405
1.04594330400782
1.0840664711632453
1.1300097751710656
1.1837732160312806
1.2443792766373412
1.3098729227761483
1.3792766373411536
1.4506353861192571
1.5249266862170088
1.6001955034213098
1.675464320625611
1.7517106549364614
1.827956989247312
1.8963831867057677
1.978494623655914
2.0762463343108504
2.163245356793744
2.244379276637341
2.3196480938416424
2.391006842619746
2.4574780058651027
2.520039100684262
2.575757575757576
2.625610948191593
2.667644183773216
2.6989247311827955
2.7223851417399803
2.745845552297165
2.7673509286412514
2.787878787878788
2.8084066471163247
2.8299120234604107
2.850439882697948
2.870967741935484
2.8905180840664717
2.90811339198436
2.9237536656891496
2.936461388074292
2.943304007820137
2.945259042033236
2.946236559139785
2.945259042033236
2.940371456500489
2.929618768328446
2.913000977517106
2.8914956011730206
2.865102639296188
2.831867057673509
2.7947214076246336
2.7517106549364616
2.708699902248289
2.662756598240469
2.608993157380254
2.549364613880743
2.484848484848485
2.418377321603128
2.3499511241446727
2.281524926686217
2.2130987292277613
2.145650048875855
2.0791788856304985
2.01564027370479
1.9560117302052784
1.90811339198436
1.870967741935484
1.835777126099707
1.8093841642228736
1.7947214076246334
1.793743890518084
1.8064516129032255
1.8318670576735088
1.8699902248289344
1.916911045943304
1.970674486803519
2.0283479960899315
2.0821114369501466
2.132942326490713
2.189638318670577
2.2502443792766376
2.313782991202346
2.378299120234604
2.442815249266862
2.506353861192571
2.56891495601173
2.6285434995112413
2.6852394916911044
2.7370478983382207
2.78494623655914
2.8211143695014664
2.8484848484848486
2.875855327468231
2.900293255131965
2.919843597262952
2.9345063538611926
2.945259042033236
2.9530791788856305
2.9589442815249267
2.963831867057673
2.9687194525904204
2.973607038123167
2.9745845552297165
2.973607038123167
2.9745845552297165
2.9745845552297165
2.972629521016618
2.967741935483871
2.956989247311828
2.941348973607038
2.918866080156403
2.8885630498533725
2.852394916911046
2.8084066471163247
2.7565982404692084
2.705767350928641
2.6529814271749754
2.591397849462365
2.5239491691104594
2.452590420332356
2.377321603128055
2.300097751710655
2.220918866080156
2.1417399804496577
2.0625610948191597
1.9833822091886608
1.905180840664712
1.8387096774193548
1.7790811339198436
1.7116324535679377
1.6422287390029326
1.5728250244379276
1.504398826979472
1.4389051808406648
1.3773216031280548
1.3196480938416422
1.2658846529814272
1.2160312805474096
1.1700879765395895
1.1290322580645162
1.099706744868035
1.0791788856304985
1.0557184750733135
1.0332355816226784
1.013685239491691
0.9990224828934506
0.9902248289345064
0.9863147605083088
0.9882697947214076
0.997067448680352
1.0117302052785924
1.032258064516129
1.0596285434995112
1.0918866080156402
1.130987292277615
1.1779081133919844
1.2316715542521994
1.2932551319648091
1.3626588465298142
1.4379276637341154
1.517106549364614
1.5992179863147604
1.683284457478006
1.7683284457478006
1.844574780058651
1.916911045943304
1.9960899315738023
2.0791788856304985
2.163245356793744
2.2482893450635384
2.332355816226784
2.41544477028348
2.496578690127077
2.5747800586510263
2.649071358748778
2.719452590420332
2.7839687194525906
2.833822091886608
2.873900293255132
2.913978494623656
2.9501466275659824
2.9804496578690127
3.003910068426197
3.022482893450636
3.037145650048876
3.047898338220919
3.056695992179863
3.0635386119257086
3.071358748778104
3.074291300097752
3.075268817204301
3.078201368523949
3.081133919843597
3.085043988269794
3.0879765395894427
3.0879765395894427
3.085043988269794
3.0772238514174
3.064516129032258
3.04594330400782
3.0205278592375366
2.9872922776148583
2.951124144672532
2.9100684261974585
2.8611925708699903
2.803519061583578
2.739980449657869
2.6695992179863146
2.5943304007820136
2.515151515151515
2.4330400782013686
2.3489736070381237
2.2639296187683287
2.177908113391984
2.103616813294233
2.034213098729228
1.956989247311828
1.8778103616813293
1.7976539589442817
1.7194525904203324
1.6441837732160314
1.5728250244379276
1.5063538611925709
1.4437927663734116
1.3851417399804498
1.3284457478005864
1.2746823069403714
1.2336265884652982
1.1994134897360704
1.1612903225806452
1.1251221896383188
1.093841642228739
1.0703812316715542
1.0557184750733135
1.050830889540567
1.0576735092864125
1.0772238514173995
1.1085043988269794
1.1505376344086022
1.198435972629521
1.249266862170088
1.3079178885630498
1.3714565004887584
1.4389051808406648
1.509286412512219
1.5806451612903225
1.6529814271749756
1.7272727272727273
1.801564027370479
1.87683284457478
1.9521016617790807
2.026392961876833
2.09188660801564
2.1524926686217007
2.217986314760508
2.283479960899316
2.347018572825025
2.407624633431085
2.462365591397849
2.512218963831867
2.555229716520039
2.591397849462365
2.622678396871945
2.650048875855328
2.668621700879765
2.6832844574780057
2.699902248289345
2.717497556207233
2.735092864125122
2.752688172043011
2.7702834799608995
2.7859237536656893
2.780058651026393
2.763440860215054
2.757575757575758
2.755620723362659
2.7546432062561097
2.7497556207233624
2.7419354838709675
2.732160312805474
2.718475073313783
2.6989247311827955
2.673509286412512
2.6422287390029324
2.6050830889540566
2.5620723362658846
2.5141739980449658
2.4613880742913
2.404692082111437
2.3519061583577714
2.3010752688172045
2.243401759530792
2.182795698924731
2.120234604105572
2.056695992179863
1.9951124144672527
1.9345063538611929
1.8748778103616808
1.8162267839687196
1.7595307917888563
1.7057673509286413
1.6549364613880744
1.6158357771260996
1.58455522971652
1.5513196480938416
1.5190615835777126
1.490713587487781
1.4672531769305963
1.4486803519061584
1.436950146627566
1.4330400782013686
1.4379276637341154
1.4535679374389052
1.479960899315738
1.5131964809384164
1.552297165200391
1.6011730205278591
1.6588465298142718
1.7233626588465298
1.7917888563049853
1.8621700879765395
1.9335288367546437
2.004887585532747
2.0762463343108504
2.146627565982405
2.2160312805474094
2.2854349951124147
2.345063538611926
2.39980449657869
2.4594330400782014
2.5210166177908118
2.581622678396872
2.6402737047898337
2.6959921798631474
2.747800586510264
2.7947214076246336
2.8367546432062563
2.8729227761485827
2.903225806451613
2.9237536656891496
2.936461388074292
2.948191593352884
2.9589442815249267
2.967741935483871
2.9765395894428157
2.98435972629521
2.992179863147605
2.99902248289345
3.004887585532747
3.010752688172043
3.016617790811339
3.021505376344086
3.0205278592375366
3.01564027370479
3.0097751710654936
3.0009775171065494
2.988269794721408
2.9716520039100685
2.949169110459433
2.919843597262952
2.8856304985337244
2.8455522971652005
2.798631476050831
2.745845552297165
2.6940371456500487
2.6422287390029324
2.581622678396872
2.515151515151515
2.443792766373412
2.36950146627566
2.294232649071359
2.217986314760508
2.1417399804496577
2.0664711632453567
1.991202346041056
1.916911045943304
1.844574780058651
1.7849462365591398
1.732160312805474
1.6744868035190617
1.6158357771260996
1.5581622678396871
1.5024437927663734
1.4506353861192571
1.401759530791789
1.3587487781036167
1.321603128054741
1.2913000977517106
1.2697947214076246
1.2609970674486803
1.2619745845552297
1.2688172043010753
1.284457478005865
1.310850439882698
1.3470185728250244
1.393939393939394
1.4486803519061584
1.509286412512219
1.573802541544477
1.6412512218963833
1.7116324535679377
1.7741935483870968
1.8328445747800584
1.8963831867057677
1.963831867057673
2.032258064516129
2.102639296187683
2.172043010752688
2.241446725317693
2.310850439882698
2.378299120234604
2.443792766373412
2.506353861192571
2.5640273704789838
2.608993157380254
2.6451612903225805
2.681329423264907
2.713587487781036
2.7390029325513194
2.7595307917888565
2.774193548387097
2.7859237536656893
2.7966764418377323
2.806451612903226
2.8152492668621703
2.822091886608016
2.825024437927664
2.8260019550342133
2.8299120234604107
2.832844574780059
2.834799608993157
2.834799608993157
2.83088954056696
2.822091886608016
2.8084066471163247
2.787878787878788
2.760508308895406
2.7262952101661777
2.686217008797654
2.6451612903225805
2.601173020527859
2.548387096774193
2.4887585532746823
2.4242424242424243
2.3548387096774195
2.281524926686217
2.206256109481916
2.129032258064516
2.050830889540567
1.970674486803519
1.8905180840664717
1.822091886608016
1.7595307917888563
1.6911045943304008
1.6217008797653958
1.5532746823069403
1.487781036168133
1.4242424242424243
1.3636363636363635
1.305962854349951
1.2512218963831867
1.2003910068426198
1.1544477028347997
1.1124144672531768
1.0840664711632453
1.064516129032258
1.04594330400782
1.0332355816226784
1.0273704789833822
1.0312805474095796
1.04594330400782
1.0703812316715542
1.1055718475073313
1.1515151515151516
1.2043010752688172
1.2649071358748778
1.324535679374389
1.3841642228739004
1.4506353861192571
1.521016617790811
1.5923753665689149
1.664711632453568
1.737047898338221
1.8093841642228736
1.881720430107527
1.95405669599218
2.026392961876833
2.0987292277614857
2.1700879765395893
2.23069403714565
2.2844574780058653
2.3421309872922778
2.398826979472141
2.4516129032258065
2.4995112414467253
2.5405669599217986
2.575757575757576
2.606060606060606
2.632453567937439
2.6559139784946235
2.678396871945259
2.695014662756598
2.7096774193548385
2.727272727272727
2.744868035190616
2.7624633431085046
2.779081133919844
2.795698924731183
2.8103616813294234
2.823069403714565
2.832844574780059
2.838709677419355
2.8396871945259043
2.835777126099707
2.8260019550342133
2.8103616813294234
2.787878787878788
2.758553274682307
2.7233626588465296
2.681329423264907
2.633431085043988
2.5806451612903225
2.52297165200391
2.462365591397849
2.39980449657869
2.334310850439883
2.2766373411534704
2.222873900293255
2.158357771260997
2.0879765395894427
2.0205278592375366
1.956989247311828
1.8963831867057677
1.8387096774193548
1.7839687194525904
1.732160312805474
1.6852394916911049
1.643206256109482
1.606060606060606
1.5796676441837731
1.5610948191593352
1.543499511241447
1.5298142717497556
1.521016617790811
1.5180840664711632
1.52297165200391
1.5366568914956011
1.560117302052786
1.5913978494623655
1.6314760508308896
1.6793743890518085
1.7272727272727273
1.7761485826001957
1.8347996089931573
1.900293255131965
1.9687194525904204
2.0391006842619745
2.1094819159335287
2.179863147605083
2.249266862170088
2.3167155425219943
2.3822091886608017
2.444770283479961
2.505376344086021
2.555229716520039
2.5992179863147604
2.6480938416422286
2.696969696969697
2.744868035190616
2.789833822091887
2.8299120234604107
2.865102639296188
2.8963831867057674
2.921798631476051
2.943304007820137
2.959921798631476
2.9687194525904204
2.972629521016618
2.9775171065493646
2.981427174975562
2.9853372434017595
2.989247311827957
2.9931573802541545
2.997067448680352
3.0
3.0019550342130987
3.0019550342130987
2.99902248289345
2.9931573802541545
2.9824046920821115
2.9667644183773216
2.949169110459433
2.9266862170087977
2.8993157380254155
2.866080156402737
2.8260019550342133
2.779081133919844
2.7262952101661777
2.668621700879765
2.6050830889540566
2.5386119257087
2.4760508308895406
2.41544477028348
2.347018572825025
2.274682306940372
2.20039100684262
2.124144672531769
2.046920821114369
1.970674486803519
1.8963831867057677
1.8240469208211143
1.7546432062561097
1.6881720430107527
1.6344086021505375
1.5884652981427174
1.5376344086021505
1.4858260019550342
1.435972629521017
1.3890518084066472
1.346041055718475
1.3069403714565004
1.273704789833822
1.2482893450635386
1.2316715542521994
1.2258064516129032
1.2316715542521994
1.2482893450635386
1.2746823069403714
1.310850439882698
1.356793743890518
1.409579667644184
1.469208211143695
1.533724340175953
1.6011730205278591
1.6695992179863148
1.739980449657869
1.8103616813294232
1.8807429130009776
1.943304007820137
2.0019550342130987
2.0684261974584555
2.136852394916911
2.206256109481916
2.2737047898338223
2.3382209188660803
2.3978494623655915
2.452590420332356
2.501466275659824
2.544477028347996
2.581622678396872
2.611925708699902
2.632453567937439
2.6451612903225805
2.6559139784946235
2.664711632453568
2.6715542521994133
2.678396871945259
2.686217008797654
2.6940371456500487
2.701857282502444
2.7096774193548385
2.717497556207233
2.7253176930596283
2.729227761485826
2.729227761485826
2.730205278592375
2.729227761485826
2.724340175953079
2.713587487781036
2.697947214076246
2.675464320625611
2.6471163245356792
2.610948191593353
2.567937438905181
2.5180840664711632
2.4613880742913
2.407624633431085
2.3528836754643208
2.289345063538612
2.219941348973607
2.146627565982405
2.069403714565005
1.9902248289345064
1.9090909090909087
1.827956989247312
1.747800586510264
1.6695992179863148
1.5923753665689149
1.5288367546432062
1.4731182795698925
1.4115347018572826
1.3470185728250244
1.2834799608993157
1.2218963831867058
1.163245356793744
1.10752688172043
1.0557184750733135
1.0087976539589445
0.9667644183773216
0.9325513196480938
0.906158357771261
0.8944281524926686
0.8934506353861192
0.8963831867057673
0.9071358748778104
0.9266862170087976
0.9560117302052786
0.9941348973607038
1.040078201368524
1.0918866080156402
1.1505376344086022
1.2130987292277615
1.278592375366569
1.3401759530791788
1.3998044965786902
1.4652981427174976
1.533724340175953
1.6041055718475072
1.6764418377321604
1.7497556207233629
1.8240469208211143
1.8983382209188664
1.9726295210166176
2.046920821114369
2.1192570869990224
2.189638318670577
2.2482893450635384
2.300097751710655
2.3528836754643208
2.403714565004888
2.450635386119257
2.4916911045943304
2.527859237536657
2.5591397849462365
2.5865102639296187
2.6099706744868034
2.6295210166177907
2.6471163245356792
2.658846529814272
2.6666666666666665
2.677419354838709
2.6881720430107525
2.6989247311827955
2.70772238514174
2.7145650048875853
2.718475073313783
2.719452590420332
2.716520039100684
2.7096774193548385
2.6989247311827955
2.6832844574780057
2.662756598240469
2.638318670576735
2.606060606060606
2.5669599217986314
2.5210166177908118
2.4701857282502444
2.4144672531769307
2.35386119257087
2.289345063538612
2.222873900293255
2.1544477028347995
2.0840664711632453
2.021505376344086
1.963831867057673
1.8973607038123168
1.828934506353861
1.7624633431085044
1.696969696969697
1.635386119257087
1.5786901270772238
1.5268817204301075
1.479960899315738
1.436950146627566
1.3988269794721409
1.364613880742913
1.3411534701857282
1.324535679374389
1.3079178885630498
1.2961876832844574
1.2913000977517106
1.295210166177908
1.3098729227761483
1.335288367546432
1.392961876832845
1.4701857282502444
1.5356793743890518
1.5972629521016617
1.6529814271749756
1.7067448680351909
1.7663734115347018
1.8299120234604105
1.895405669599218
1.962854349951124
2.03128054740958
2.099706744868035
2.167155425219941
2.233626588465298
2.2991202346041058
2.3626588465298144
2.4242424242424243
2.4760508308895406
2.5219941348973607
2.572825024437928
2.6236559139784945
2.6715542521994133
2.7145650048875853
2.7497556207233624
2.7781036168132944
2.80058651026393
2.817204301075269
2.8289345063538613
2.838709677419355
2.843597262952102
2.844574780058651
2.84652981427175
2.849462365591398
2.8514173998044967
2.852394916911046
2.8514173998044967
2.8484848484848486
2.8426197458455524
2.834799608993157
2.8240469208211145
2.8084066471163247
2.787878787878788
2.763440860215054
2.736070381231672
2.701857282502444
2.66177908113392
2.6158357771261
2.5650048875855327
2.509286412512219
2.4486803519061584
2.3841642228739004
