ppg
1.0478983382209188
1.0420332355816226
1.0361681329423265
1.0303030303030305
1.024437927663734
1.018572825024438
1.0156402737047898
1.013685239491691
1.0127077223851415
1.0156402737047898
1.018572825024438
1.018572825024438
1.018572825024438
1.018572825024438
1.018572825024438
1.018572825024438
1.018572825024438
1.018572825024438
1.018572825024438
1.018572825024438
1.0195503421309873
1.024437927663734
1.0312805474095796
1.035190615835777
1.0381231671554252
1.0420332355816226
1.0469208211143697
1.0518084066471165
1.0576735092864125
1.0625610948191593
1.0654936461388074
1.0654936461388074
1.06158357771261
1.0557184750733135
1.056695992179863
1.0694037145650048
1.1026392961876832
1.1710654936461389
1.2854349951124144
1.447702834799609
1.653958944281525
1.8914956011730208
2.1417399804496577
2.388074291300098
2.6158357771261
2.8132942326490715
2.9589442815249267
3.065493646138808
3.160312805474096
3.236559139784946
3.2932551319648096
3.3304007820136854
3.3519061583577714
3.3597262952101663
3.357771260997068
3.347996089931574
3.3313782991202348
3.30791788856305
3.278592375366569
3.242424242424242
3.2023460410557183
3.156402737047898
3.104594330400782
3.04594330400782
2.979472140762464
2.903225806451613
2.8181818181818183
2.7262952101661777
2.6285434995112413
2.5268817204301075
2.423264907135875
2.332355816226784
2.251221896383187
2.1700879765395893
2.0928641251221896
2.024437927663734
1.9657869012707725
1.9159335288367547
1.8748778103616808
1.8406647116324533
1.812316715542522
1.7888563049853372
1.7683284457478006
1.750733137829912
1.7350928641251222
1.721407624633431
1.704789833822092
1.6871945259042034
1.6695992179863148
1.651026392961877
1.6334310850439884
1.6158357771260996
1.5972629521016617
1.5806451612903225
1.5669599217986314
1.5532746823069403
1.543499511241447
1.5356793743890518
1.5268817204301075
1.5180840664711632
1.5083088954056696
1.4975562072336266
1.487781036168133
1.478983382209189
1.4711632453567938
1.4633431085043989
1.456500488758553
1.4516129032258065
1.4496578690127078
1.4496578690127078
1.4506353861192571
1.4486803519061584
1.444770283479961
1.4389051808406648
1.4301075268817205
1.4252199413489737
1.4320625610948192
1.4613880742913
1.521994134897361
1.619745845552297
1.7556207233626588
1.8983382209188664
2.048875855327468
2.228739002932551
2.41544477028348
2.591397849462365
2.745845552297165
2.873900293255132
2.9716520039100685
3.042033235581622
3.0879765395894427
3.112414467253177
3.120234604105572
3.115347018572825
3.099706744868035
3.0762463343108504
3.048875855327468
3.016617790811339
2.9804496578690127
2.9393939393939394
2.89345063538612
2.8426197458455524
2.78494623655914
2.718475073313783
2.644183773216031
2.560117302052786
2.4789833822091887
2.3978494623655915
2.3059628543499517
2.2111436950146626
2.117302052785924
2.026392961876833
1.9423264907135875
1.866080156402737
1.7996089931573802
1.7429130009775171
1.6959921798631477
1.656891495601173
1.6236559139784943
1.598240469208211
1.5786901270772238
1.5591397849462365
1.5386119257087
1.5180840664711632
1.4975562072336266
1.478005865102639
1.458455522971652
1.4389051808406648
1.4193548387096775
1.3978494623655917
1.3782991202346042
1.3636363636363635
1.3519061583577712
1.3362658846529814
1.3196480938416422
1.303030303030303
1.2864125122189638
1.270772238514174
1.2551319648093842
1.2404692082111437
1.2258064516129032
1.2130987292277615
1.2013685239491692
1.1915933528836755
1.1857282502443791
1.181818181818182
1.1759530791788857
1.1681329423264908
1.1593352883675463
1.1505376344086022
1.13880742913001
1.126099706744868
1.115347018572825
1.1163245356793745
1.13880742913001
1.195503421309873
1.273704789833822
1.3812316715542523
1.5386119257087
1.7311827956989247
1.8914956011730208
2.0205278592375366
2.164222873900293
2.2981427174975564
2.412512218963832
2.5024437927663734
2.567937438905181
2.613880742913001
2.6373411534701856
2.6471163245356792
2.652003910068426
2.652003910068426
2.649071358748778
2.641251221896383
2.627565982404692
2.6099706744868034
2.587487781036168
2.5610948191593352
2.5317693059628543
2.4975562072336266
2.4574780058651027
2.41544477028348
2.3704789833822093
2.315738025415445
2.2531769305962857
2.1837732160312804
2.1065493646138806
2.024437927663734
1.93841642228739
1.8523949169110456
1.7683284457478006
1.689149560117302
1.6177908113391983
1.5610948191593352
1.517106549364614
1.4750733137829912
1.4379276637341154
1.4066471163245358
1.380254154447703
1.356793743890518
1.3362658846529814
1.3186705767350928
1.303030303030303
1.2873900293255132
1.2717497556207231
1.2561094819159335
1.2443792766373412
1.2346041055718475
1.2218963831867058
1.2082111436950147
1.1925708699902249
1.1759530791788857
1.1593352883675463
1.1436950146627567
1.1280547409579669
1.1143695014662756
1.1006842619745845
1.088954056695992
1.0811339198435972
1.0762463343108504
1.0703812316715542
1.064516129032258
1.0596285434995112
1.056695992179863
1.0557184750733135
1.0547409579667644
1.0527859237536656
1.0498533724340176
1.0439882697947214
1.0361681329423265
1.029325513196481
1.029325513196481
1.040078201368524
1.067448680351906
1.1231671554252198
1.2140762463343109
1.3391984359726294
1.4946236559139785
1.6705767350928642
1.8543499511241448
2.03128054740958
2.1915933528836757
2.3284457478005867
2.426197458455523
2.4946236559139785
2.552297165200391
2.5972629521016617
2.627565982404692
2.64613880742913
2.656891495601173
2.658846529814272
2.654936461388074
2.64613880742913
2.633431085043988
2.616813294232649
2.5972629521016617
2.5747800586510263
2.548387096774193
2.5180840664711632
2.4819159335288368
2.439882697947214
2.389051808406647
2.3304007820136854
2.2629521016617797
2.189638318670577
2.1114369501466275
2.03128054740958
1.9530791788856303
1.8866080156402736
1.827956989247312
1.7712609970674489
1.721407624633431
1.6813294232649072
1.6500488758553276
1.6256109481915937
1.606060606060606
1.5894428152492668
1.5757575757575757
1.5650048875855327
1.555229716520039
1.544477028347996
1.5366568914956011
1.5288367546432062
1.5190615835777126
1.5073313782991202
1.4946236559139785
1.4809384164222874
1.4672531769305963
1.4545454545454546
1.4418377321603129
1.4291300097751711
1.4164222873900294
1.404692082111437
1.3958944281524928
1.388074291300098
1.3782991202346042
1.3685239491691104
1.3587487781036167
1.348973607038123
1.3411534701857282
1.3343108504398826
1.3284457478005864
1.3235581622678396
1.3186705767350928
1.313782991202346
1.3069403714565004
1.300097751710655
1.29227761485826
1.2825024437927663
1.2766373411534702
1.284457478005865
1.3157380254154447
1.3782991202346042
1.4760508308895406
1.607038123167155
1.7634408602150538
1.9335288367546437
2.104594330400782
2.244379276637341
2.358748778103617
2.4652981427174976
2.5532746823069403
2.618768328445748
2.6637341153470184
2.6901270772238512
2.701857282502444
2.702834799608993
2.6959921798631474
2.681329423264907
2.662756598240469
2.641251221896383
2.616813294232649
2.589442815249267
2.5610948191593352
2.5288367546432062
2.49266862170088
2.4516129032258065
2.4056695992179864
2.3528836754643208
2.290322580645161
2.219941348973607
2.1436950146627565
2.0635386119257086
1.9902248289345064
1.920821114369501
1.844574780058651
1.7702834799608993
1.7008797653958945
1.6392961876832846
1.585532746823069
1.5386119257087
1.499511241446725
1.4672531769305963
1.439882697947214
1.4173998044965788
1.3978494623655917
1.383186705767351
1.370478983382209
1.3548387096774193
1.3391984359726294
1.3235581622678396
1.3079178885630498
1.2913000977517106
1.2746823069403714
1.260019550342131
1.2443792766373412
1.2297165200391007
1.2160312805474096
1.206256109481916
1.198435972629521
1.187683284457478
1.1759530791788857
1.164222873900293
1.1515151515151516
1.1397849462365592
1.1290322580645162
1.1192570869990224
1.110459433040078
1.1016617790811338
1.093841642228739
1.0850439882697946
1.0791788856304985
1.0742913000977516
1.0654936461388074
1.053763440860215
1.0449657869012707
1.0478983382209188
1.0713587487781036
1.1241446725317692
1.2111436950146628
1.332355816226784
1.4819159335288368
1.6480938416422288
1.796676441837732
1.9305962854349952
2.069403714565005
2.1945259042033234
2.2981427174975564
2.377321603128055
2.4359726295210167
2.4760508308895406
2.5004887585532747
2.5131964809384164
2.517106549364614
2.5131964809384164
2.5024437927663734
2.487781036168133
2.4701857282502444
2.450635386119257
2.4281524926686218
2.401759530791789
2.3704789833822093
2.335288367546432
2.2952101661779083
2.251221896383187
2.19941348973607
2.1808406647116323
2.1710654936461387
2.1300097751710654
2.071358748778104
1.992179863147605
1.9042033235581624
1.8142717497556209
1.7282502443792769
1.6480938416422288
1.5777126099706744
1.5180840664711632
1.4682306940371457
1.4281524926686218
1.3958944281524928
1.3724340175953078
1.356793743890518
1.3401759530791788
1.3225806451612905
1.303030303030303
1.2834799608993157
1.2649071358748778
1.24633431085044
1.227761485826002
1.2101661779081134
1.1915933528836755
1.173998044965787
1.1593352883675463
1.1505376344086022
1.1436950146627567
1.133919843597263
1.1231671554252198
1.110459433040078
1.096774193548387
1.083088954056696
1.0713587487781036
1.06158357771261
1.053763440860215
1.04594330400782
1.0410557184750733
1.0410557184750733
1.0449657869012707
1.0478983382209188
1.050830889540567
1.0527859237536656
1.0527859237536656
1.050830889540567
1.0469208211143697
1.04594330400782
1.0518084066471165
1.0742913000977516
1.126099706744868
1.2140762463343109
1.3186705767350928
1.4467253176930597
1.619745845552297
1.8191593352883677
2.029325513196481
2.232649071358749
2.4164222873900294
2.5718475073313782
2.695014662756598
2.787878787878788
2.8533724340175954
2.895405669599218
2.9159335288367547
2.9227761485826003
2.924731182795699
2.921798631476051
2.913978494623656
2.902248289345064
2.8856304985337244
2.865102639296188
2.8426197458455524
2.8152492668621703
2.782991202346041
2.7468230694037143
2.7038123167155423
2.6559139784946235
2.6021505376344085
2.535679374389052
2.458455522971652
2.3714565004887587
2.275659824046921
2.174975562072336
2.071358748778104
1.970674486803519
1.8758553274682308
1.7898338220918866
1.715542521994135
1.6598240469208212
1.6177908113391983
1.5786901270772238
1.5464320625610948
1.520039100684262
1.4975562072336266
1.478983382209189
1.4613880742913
1.444770283479961
1.4281524926686218
1.4105571847507332
1.3919843597262953
1.3734115347018572
1.359726295210166
1.3470185728250244
1.3304007820136852
1.3118279569892473
1.2913000977517106
1.2717497556207231
1.2531769305962854
1.2336265884652982
1.2140762463343109
1.195503421309873
1.1779081133919844
1.163245356793744
1.155425219941349
1.1505376344086022
1.141739980449658
1.1300097751710656
1.1163245356793745
1.1026392961876832
1.088954056695992
1.0762463343108504
1.0625610948191593
1.04594330400782
1.029325513196481
1.0166177908113392
1.0146627565982405
1.029325513196481
1.067448680351906
1.1397849462365592
1.2502443792766371
1.4007820136852396
1.581622678396872
1.780058651026393
1.9804496578690127
2.167155425219941
2.3313782991202348
2.4652981427174976
2.567937438905181
2.633431085043988
2.6725317693059627
2.701857282502444
2.719452590420332
2.7282502443792764
2.7282502443792764
2.720430107526881
2.70772238514174
2.6911045943304006
2.670576735092864
2.64613880742913
2.6177908113391983
2.58455522971652
2.549364613880743
2.5112414467253177
2.4652981427174976
2.409579667644184
2.345063538611926
2.271749755620724
2.188660801564027
2.0977517106549364
2.0009775171065494
1.902248289345064
1.8054740957966764
1.7135874877810362
1.6392961876832846
1.5777126099706744
1.5180840664711632
1.4643206256109482
1.418377321603128
1.380254154447703
1.3499511241446724
1.324535679374389
1.3010752688172045
1.2795698924731185
1.260019550342131
1.2404692082111437
1.2189638318670577
1.2013685239491692
1.187683284457478
1.1710654936461389
1.1534701857282503
1.1358748778103618
1.118279569892473
1.1006842619745845
1.0821114369501466
1.0654936461388074
1.0488758553274682
1.0332355816226784
1.0195503421309873
1.010752688172043
1.002932551319648
0.9921798631476052
0.981427174975562
0.9716520039100685
0.9628543499511242
0.9530791788856304
0.9452590420332356
0.9374389051808406
0.9286412512218964
0.9188660801564028
0.9071358748778104
0.8993157380254154
0.895405669599218
0.895405669599218
0.9110459433040078
0.9550342130987292
1.0361681329423265
1.1564027370478984
1.3128054740957966
1.4965786901270772
1.694037145650049
1.8914956011730208
2.074291300097752
2.233626588465298
2.350928641251222
2.4359726295210167
2.5083088954056696
2.5640273704789838
2.603128054740958
2.6265884652981426
2.638318670576735
2.6422287390029324
2.6402737047898337
2.633431085043988
2.621700879765396
2.606060606060606
2.587487781036168
2.5650048875855327
2.5386119257087
2.5083088954056696
2.4604105571847508
2.412512218963832
2.372434017595308
2.318670576735093
2.254154447702835
2.1788856304985336
2.0948191593352883
2.006842619745845
1.916911045943304
1.8387096774193548
1.7702834799608993
1.699902248289345
1.6344086021505375
1.5757575757575757
1.525904203323558
1.4868035190615836
1.457478005865103
1.435972629521017
1.4193548387096775
1.4076246334310851
1.3978494623655917
1.3919843597262953
1.3861192570869991
1.3773216031280548
1.367546432062561
1.356793743890518
1.3724340175953078
1.4007820136852396
1.4086021505376345
1.4056695992179864
1.3958944281524928
1.3812316715542523
1.3655913978494625
1.3509286412512218
1.3411534701857282
1.3343108504398826
1.3255131964809383
1.3147605083088951
1.303030303030303
1.289345063538612
1.2756598240469208
1.2609970674486803
1.2473118279569892
1.2355816226783969
1.224828934506354
1.2140762463343109
1.2072336265884651
1.2013685239491692
1.1906158357771262
1.176930596285435
1.1652003910068427
1.164222873900293
1.181818181818182
1.2267839687194526
1.3069403714565004
1.4242424242424243
1.5747800586510263
1.7497556207233629
1.935483870967742
2.0948191593352883
2.23069403714565
2.363636363636364
2.4789833822091887
2.56891495601173
2.634408602150537
2.677419354838709
2.7008797653958942
2.7096774193548385
2.708699902248289
2.6989247311827955
2.681329423264907
2.659824046920821
2.635386119257087
2.6099706744868034
2.581622678396872
2.550342130987292
2.5161290322580645
2.4789833822091887
2.4359726295210167
2.3841642228739004
2.32355816226784
2.2551319648093844
2.1808406647116323
2.099706744868035
2.0234604105571847
1.9501466275659824
1.869012707722385
1.7878787878787878
1.710654936461388
1.640273704789834
1.5786901270772238
1.5249266862170088
1.479960899315738
1.4437927663734116
1.414467253176931
1.3900293255131966
1.3734115347018572
1.3616813294232648
1.3479960899315735
1.3333333333333333
1.3176930596285434
1.3010752688172045
1.284457478005865
1.2688172043010753
1.2541544477028348
1.2394916911045943
1.224828934506354
1.209188660801564
1.1925708699902249
1.1808406647116323
1.1720430107526882
1.1593352883675463
1.144672531769306
1.1300097751710656
1.1163245356793745
1.1036168132942326
1.0869990224828934
1.0772238514173995
1.067448680351906
1.0547409579667644
1.0498533724340176
1.0478983382209188
1.0410557184750733
1.0283479960899315
1.013685239491691
1.0019550342130987
0.9990224828934506
1.0381231671554252
1.0957966764418376
1.1593352883675463
1.2717497556207231
1.5141739980449658
1.6871945259042034
1.8484848484848484
2.0879765395894427
2.2385141739980448
2.3655913978494625
2.466275659824047
2.539589442815249
2.590420332355816
2.622678396871945
2.641251221896383
2.6480938416422286
2.6471163245356792
2.6392961876832843
2.627565982404692
2.606060606060606
2.5884652981427174
2.567937438905181
2.530791788856305
2.498533724340176
2.4594330400782014
2.4144672531769307
2.363636363636364
2.303030303030303
2.232649071358749
2.1652003910068425
2.096774193548387
2.01564027370479
1.927663734115347
1.8377321603128052
1.7497556207233629
1.6656891495601174
1.5894428152492668
1.5249266862170088
1.4701857282502444
1.4252199413489737
1.3900293255131966
1.367546432062561
1.3528836754643203
1.3372434017595307
1.3206256109481915
1.3040078201368523
1.2873900293255132
1.270772238514174
1.2541544477028348
1.2375366568914956
1.2189638318670577
1.2013685239491692
1.18475073313783
1.1691104594330402
1.1583577712609971
1.1515151515151516
1.1407624633431086
1.1280547409579669
1.1143695014662756
1.1016617790811338
1.0899315738025417
1.0791788856304985
1.0694037145650048
1.0606060606060606
1.0527859237536656
1.04594330400782
1.04594330400782
1.04594330400782
1.0449657869012707
1.0420332355816226
1.0391006842619743
1.0332355816226784
1.0254154447702837
1.018572825024438
1.0205278592375366
1.040078201368524
1.0850439882697946
1.1495601173020529
1.2404692082111437
1.3734115347018572
1.5395894428152492
1.7272727272727273
1.9227761485826005
2.1114369501466275
2.2825024437927666
2.4281524926686218
2.5434995112414467
2.63049853372434
2.69208211143695
2.7331378299120237
2.755620723362659
2.7653958944281527
2.7702834799608995
2.7702834799608995
2.766373411534702
2.757575757575758
2.744868035190616
2.730205278592375
2.7126099706744866
2.6901270772238512
2.6637341153470184
2.632453567937439
2.598240469208211
2.557184750733138
2.506353861192571
2.44672531769306
2.377321603128055
2.2991202346041058
2.2160312805474094
2.1300097751710654
2.04594330400782
1.967741935483871
1.8973607038123168
1.835777126099707
1.782991202346041
1.7429130009775171
1.7126099706744868
1.6842619745845553
1.6588465298142718
1.635386119257087
1.6148582600195502
1.5972629521016617
1.5796676441837731
1.5620723362658846
1.544477028347996
1.5239491691104594
1.5063538611925709
1.4965786901270772
1.4868035190615836
1.474095796676442
1.4604105571847508
1.4457478005865103
1.43108504398827
1.4164222873900294
1.401759530791789
1.3870967741935485
1.3734115347018572
1.3607038123167154
1.348973607038123
1.3372434017595307
1.3284457478005864
1.3225806451612905
1.313782991202346
1.305962854349951
1.2991202346041055
1.29227761485826
1.2834799608993157
1.273704789833822
1.262952101661779
1.2512218963831867
1.2404692082111437
1.2453567937438903
1.2668621700879763
1.3010752688172045
1.3636363636363635
1.4643206256109482
1.606060606060606
1.7820136852394917
1.981427174975562
2.189638318670577
2.3900293255131966
2.56891495601173
2.719452590420332
2.835777126099707
2.920821114369501
2.9745845552297165
3.003910068426197
3.0234604105571847
3.032258064516129
3.032258064516129
3.0254154447702835
3.010752688172043
2.991202346041056
2.9657869012707723
2.9374389051808407
2.906158357771261
2.8719452590420333
2.8367546432062563
2.798631476050831
2.7546432062561097
2.704789833822092
2.6451612903225805
2.5747800586510263
2.49266862170088
2.401759530791789
2.303030303030303
2.20039100684262
2.0977517106549364
1.9990224828934504
1.9071358748778104
1.833822091886608
1.7732160312805474
1.7145650048875856
1.6627565982404693
1.6187683284457477
1.581622678396872
1.5513196480938416
1.525904203323558
1.5053763440860215
1.4868035190615836
1.469208211143695
1.4496578690127078
1.4330400782013686
1.4193548387096775
1.401759530791789
1.380254154447703
1.3577712609970674
1.335288367546432
1.3157380254154447
1.2971652003910068
1.2795698924731185
1.262952101661779
1.24633431085044
1.23069403714565
1.2150537634408602
1.2043010752688172
1.1964809384164223
1.1867057673509287
1.1749755620723363
1.163245356793744
1.1534701857282503
1.1456500488758554
1.1378299120234605
1.130987292277615
1.1231671554252198
1.1124144672531768
1.1016617790811338
1.0987292277614855
1.1065493646138806
1.1300097751710656
1.1827956989247312
1.273704789833822
1.4066471163245358
1.5757575757575757
1.772238514173998
1.981427174975562
2.188660801564027
2.377321603128055
2.5386119257087
2.667644183773216
2.7565982404692084
2.81622678396872
2.863147605083089
2.895405669599218
2.913978494623656
2.921798631476051
2.921798631476051
2.9149560117302054
2.902248289345064
2.8836754643206257
2.86217008797654
2.8367546432062563
2.811339198435973
2.773216031280548
2.736070381231672
2.705767350928641
2.665689149560117
2.6129032258064515
2.548387096774193
2.474095796676442
2.391006842619746
2.2991202346041058
2.2023460410557183
2.1065493646138806
2.0146627565982405
1.93841642228739
1.8748778103616808
1.8113391984359728
1.7556207233626588
1.7086999022482894
1.6705767350928642
1.6412512218963833
1.619745845552297
1.6050830889540566
1.5943304007820136
1.585532746823069
1.5777126099706744
1.5718475073313782
1.5669599217986314
1.5571847507331378
1.5464320625610948
1.5347018572825024
1.52297165200391
1.512218963831867
1.501466275659824
1.4916911045943304
1.4809384164222874
1.4701857282502444
1.4594330400782014
1.452590420332356
1.4486803519061584
1.4437927663734116
1.439882697947214
1.435972629521017
1.4330400782013686
1.43108504398827
1.4301075268817205
1.4301075268817205
1.4301075268817205
1.4301075268817205
1.4301075268817205
1.4281524926686218
1.4281524926686218
1.4271749755620724
1.4222873900293256
1.4164222873900294
1.414467253176931
1.426197458455523
1.4613880742913
1.5317693059628543
1.6441837732160314
1.7976539589442817
1.9833822091886608
2.190615835777126
2.376344086021505
2.541544477028348
2.710654936461388
2.8611925708699903
2.981427174975562
3.071358748778104
3.133919843597263
3.174975562072336
3.196480938416422
3.204301075268817
3.201368523949169
3.190615835777126
3.1730205278592374
3.1495601173020527
3.1221896383186705
3.0928641251221896
3.060606060606061
3.0254154447702835
2.9853372434017595
2.9393939393939394
2.884652981427175
2.820136852394917
2.7438905180840663
2.656891495601173
2.5610948191593352
2.4701857282502444
2.3822091886608017
2.2844574780058653
2.1847507331378297
2.088954056695992
2.002932551319648
1.9266862170087975
1.8602150537634408
1.8054740957966764
1.7595307917888563
1.721407624633431
1.689149560117302
1.66177908113392
1.6412512218963833
1.624633431085044
1.6050830889540566
1.5835777126099706
1.5620723362658846
1.5395894428152492
1.517106549364614
1.4946236559139785
1.4721407624633431
1.4486803519061584
1.4271749755620724
1.4066471163245358
1.391006842619746
1.3782991202346042
1.3626588465298142
1.3450635386119256
1.3264907135874875
1.3088954056695992
1.2942326490713587
1.2805474095796676
1.267839687194526
1.2561094819159335
1.2443792766373412
1.2326490713587488
1.2228739002932552
1.2179863147605083
1.2150537634408602
1.2101661779081134
1.2013685239491692
1.187683284457478
1.173998044965787
1.1671554252199414
1.1710654936461389
1.1974584555229717
1.2590420332355816
1.364613880742913
1.5141739980449658
1.672531769305963
1.839687194525904
2.038123167155425
2.243401759530792
2.436950146627566
2.6041055718475072
2.739980449657869
2.8426197458455524
2.9159335288367547
2.964809384164223
2.994134897360704
3.0097751710654936
3.0146627565982405
3.0087976539589443
2.9960899315738025
2.981427174975562
2.961876832844575
2.9393939393939394
2.865102639296188
2.7624633431085046
2.6930596285435
2.636363636363636
2.5835777126099706
2.5268817204301075
2.463343108504399
2.39980449657869
2.334310850439883
2.2580645161290325
2.172043010752688
2.0791788856304985
1.9833822091886608
1.8885630498533723
1.7986314760508308
1.715542521994135
1.6412512218963833
1.576735092864125
1.52297165200391
1.478005865102639
1.4457478005865103
1.423264907135875
1.4007820136852396
1.3792766373411536
1.3577712609970674
1.335288367546432
1.3128054740957966
1.29227761485826
1.2717497556207231
1.2512218963831867
