ppg
1.3098729227761483
1.2991202346041055
1.2913000977517106
1.2825024437927663
1.273704789833822
1.2658846529814272
1.2590420332355816
1.2531769305962854
1.2482893450635386
1.2443792766373412
1.2404692082111437
1.2375366568914956
1.2336265884652982
1.2316715542521994
1.2316715542521994
1.2336265884652982
1.2443792766373412
1.2717497556207231
1.324535679374389
1.409579667644184
1.530791788856305
1.6852394916911049
1.8670576735092863
2.064516129032258
2.2639296187683287
2.452590420332356
2.60019550342131
2.713587487781036
2.81622678396872
2.8963831867057674
2.951124144672532
2.978494623655914
2.9824046920821115
2.9657869012707723
2.9315738025415445
2.8826979472140764
2.823069403714565
2.7536656891495603
2.6832844574780057
2.610948191593353
2.529814271749756
2.442815249266862
2.3528836754643208
2.26197458455523
2.1700879765395893
2.080156402737048
1.992179863147605
1.9071358748778104
1.8269794721407624
1.7526881720430108
1.4916911045943304
1.4721407624633431
1.452590420332356
1.4330400782013686
1.4134897360703813
1.3949169110459434
1.3763440860215057
1.3587487781036167
1.3411534701857282
1.327468230694037
1.3157380254154447
1.3020527859237536
1.2873900293255132
1.2727272727272727
1.2570869990224829
1.2443792766373412
1.2346041055718475
1.2267839687194526
1.219941348973607
1.2140762463343109
1.2072336265884651
1.2013685239491692
1.1974584555229717
1.195503421309873
1.1906158357771262
1.18475073313783
1.176930596285435
1.1710654936461389
1.1700879765395895
1.1798631476050832
1.2082111436950147
1.2649071358748778
1.3548387096774193
1.478983382209189
1.608993157380254
1.7487781036168133
1.919843597262952
2.102639296187683
2.280547409579668
2.4408602150537635
2.575757575757576
2.679374389051808
2.750733137829912
2.792766373411535
2.807429130009776
2.7976539589442817
2.768328445747801
2.7262952101661777
2.674486803519061
2.608993157380254
2.533724340175953
2.4516129032258065
2.363636363636364
2.272727272727273
2.179863147605083
2.086021505376344
1.9931573802541545
1.9012707722385145
1.812316715542522
1.321603128054741
1.300097751710655
1.278592375366569
1.2561094819159335
1.238514173998045
1.2228739002932552
1.2043010752688172
1.18475073313783
1.166177908113392
1.147605083088954
1.1300097751710656
1.1133919843597262
1.0987292277614855
1.0840664711632453
1.0703812316715542
1.0586510263929618
1.0478983382209188
1.0420332355816226
1.0391006842619743
1.0342130987292275
1.0283479960899315
1.0224828934506354
1.0166177908113392
1.010752688172043
1.0048875855327468
0.9980449657869012
0.9921798631476052
0.989247311827957
0.9941348973607038
1.0087976539589445
1.0391006842619743
1.0948191593352885
1.181818181818182
1.3020527859237536
1.4535679374389052
1.6275659824046922
1.8142717497556209
2.0009775171065494
2.1739980449657867
2.32355816226784
2.442815249266862
2.5288367546432062
2.578690127077224
2.5992179863147604
2.5992179863147604
2.5777126099706744
2.5376344086021505
2.4809384164222874
2.4115347018572826
2.3313782991202348
2.244379276637341
2.1524926686217007
2.0576735092864125
1.9608993157380252
1.8758553274682308
1.7976539589442817
1.3695014662756595
1.356793743890518
1.343108504398827
1.3284457478005864
1.3128054740957966
1.300097751710655
1.2883675464320623
1.273704789833822
1.2570869990224829
1.241446725317693
1.2258064516129032
1.2101661779081134
1.195503421309873
1.181818181818182
1.1691104594330402
1.1573802541544478
1.147605083088954
1.141739980449658
1.1368523949169111
1.1300097751710656
1.1231671554252198
1.118279569892473
1.1133919843597262
1.1094819159335287
1.104594330400782
1.099706744868035
1.0948191593352885
1.0909090909090908
1.0928641251221896
1.1055718475073313
1.1290322580645162
1.1720430107526882
1.24633431085044
1.3558162267839686
1.501466275659824
1.6774193548387095
1.8729227761485825
2.074291300097752
2.269794721407625
2.44672531769306
2.5972629521016617
2.716520039100684
2.793743890518084
2.838709677419355
2.866080156402737
2.8729227761485827
2.859237536656892
2.827956989247312
2.7810361681329425
2.721407624633431
2.652003910068426
2.573802541544477
2.489736070381232
2.40078201368524
2.3088954056695994
2.2248289345063537
2.144672531769306
2.0576735092864125
1.9696969696969695
1.8826979472140764
1.7986314760508308
1.7194525904203324
1.560117302052786
1.5454545454545454
1.5386119257087
1.5356793743890518
1.5268817204301075
1.5151515151515151
1.498533724340176
1.478983382209189
1.4594330400782014
1.439882697947214
1.4203323558162269
1.401759530791789
1.3841642228739004
1.367546432062561
1.3519061583577712
1.3372434017595307
1.324535679374389
1.3157380254154447
1.3088954056695992
1.3010752688172045
1.2932551319648091
1.2854349951124144
1.278592375366569
1.2717497556207231
1.2649071358748778
1.2580645161290325
1.2512218963831867
1.24633431085044
1.2482893450635386
1.260019550342131
1.2873900293255132
1.3411534701857282
1.4301075268817205
1.5562072336265884
1.7174975562072337
1.905180840664712
2.10752688172043
2.3118279569892475
2.504398826979472
2.674486803519061
2.814271749755621
2.9100684261974585
2.9716520039100685
3.01564027370479
3.037145650048876
3.0361681329423265
3.01564027370479
2.9765395894428157
2.9227761485826003
2.8563049853372435
2.780058651026393
2.6959921798631474
2.606060606060606
2.512218963831867
2.426197458455523
2.343108504398827
2.2521994134897363
2.158357771260997
2.064516129032258
1.9726295210166176
1.458455522971652
1.4437927663734116
1.4252199413489737
1.404692082111437
1.3841642228739004
1.3626588465298142
1.3411534701857282
1.3206256109481915
1.3010752688172045
1.2834799608993157
1.2658846529814272
1.249266862170088
1.2326490713587488
1.2209188660801564
1.2111436950146628
1.1994134897360704
1.1867057673509287
1.1749755620723363
1.163245356793744
1.1534701857282503
1.144672531769306
1.1368523949169111
1.1290322580645162
1.121212121212121
1.1133919843597262
1.1085043988269794
1.1055718475073313
1.1006842619745845
1.0987292277614855
1.1065493646138806
1.1319648093841643
1.1837732160312806
1.267839687194526
1.388074291300098
1.542521994134897
1.7243401759530792
1.921798631476051
2.121212121212121
2.286412512218964
2.423264907135875
2.5532746823069403
2.659824046920821
2.73802541544477
2.78494623655914
2.8025415444770285
2.793743890518084
2.7624633431085046
2.7126099706744866
2.6480938416422286
2.570869990224829
2.493646138807429
2.41544477028348
2.326490713587488
2.231671554252199
2.133919843597263
2.035190615835777
1.9374389051808407
1.842619745845552
1.7517106549364614
1.4193548387096775
1.4037145650048877
1.3861192570869991
1.3665689149560116
1.3470185728250244
1.327468230694037
1.3069403714565004
1.2873900293255132
1.2688172043010753
1.2502443792766371
1.2316715542521994
1.2179863147605083
1.206256109481916
1.1925708699902249
1.1779081133919844
1.1622678396871946
1.147605083088954
1.133919843597263
1.121212121212121
1.1085043988269794
1.096774193548387
1.0869990224828934
1.0772238514173995
1.0684261974584557
1.0635386119257086
1.0596285434995112
1.0527859237536656
1.0469208211143697
1.0478983382209188
1.06158357771261
1.096774193548387
1.1612903225806452
1.260019550342131
1.3949169110459434
1.563049853372434
1.75366568914956
1.9286412512218964
2.089931573802541
2.26197458455523
2.423264907135875
2.5591397849462365
2.6637341153470184
2.736070381231672
2.7751710654936463
2.7839687194525906
2.7673509286412514
2.7282502443792764
2.6715542521994133
2.601173020527859
2.5288367546432062
2.452590420332356
2.364613880742913
2.269794721407625
2.1710654936461387
2.071358748778104
1.9716520039100685
1.8748778103616808
1.7810361681329423
1.6920821114369502
1.608993157380254
1.498533724340176
1.490713587487781
1.479960899315738
1.4672531769305963
1.452590420332356
1.436950146627566
1.4203323558162269
1.4027370478983383
1.3861192570869991
1.3695014662756595
1.3528836754643203
1.3362658846529814
1.3235581622678396
1.3128054740957966
1.300097751710655
1.2864125122189638
1.2727272727272727
1.260019550342131
1.2482893450635386
1.2375366568914956
1.227761485826002
1.2189638318670577
1.2111436950146628
1.203323558162268
1.195503421309873
1.1896383186705768
1.18475073313783
1.1798631476050832
1.1808406647116323
1.1935483870967742
1.227761485826002
1.29227761485826
1.3919843597262953
1.5298142717497556
1.7008797653958945
1.8963831867057677
2.102639296187683
2.280547409579668
2.434017595307918
2.5884652981427174
2.7253176930596283
2.834799608993157
2.913978494623656
2.963831867057673
2.9853372434017595
2.983382209188661
2.960899315738025
2.921798631476051
2.8690127077223853
2.8044965786901277
2.73802541544477
2.667644183773216
2.587487781036168
2.501466275659824
2.410557184750733
2.317693059628544
2.222873900293255
2.1280547409579667
2.035190615835777
1.9442815249266865
1.857282502443793
1.7761485826001957
1.7086999022482894
1.5180840664711632
1.501466275659824
1.482893450635386
1.4633431085043989
1.4437927663734116
1.423264907135875
1.4027370478983383
1.383186705767351
1.3636363636363635
1.346041055718475
1.3294232649071358
1.316715542521994
1.3069403714565004
1.295210166177908
1.2834799608993157
1.2717497556207231
1.2609970674486803
1.252199413489736
1.2443792766373412
1.2365591397849462
1.2287390029325511
1.2218963831867058
1.217008797653959
1.2140762463343109
1.2121212121212122
1.2082111436950147
1.203323558162268
1.1994134897360704
1.1994134897360704
1.2101661779081134
1.2394916911045943
1.295210166177908
1.3851417399804498
1.5102639296187683
1.667644183773216
1.8504398826979471
2.018572825024438
2.174975562072336
2.3440860215053765
2.5034213098729228
2.641251221896383
2.748778103616813
2.825024437927664
2.8699902248289346
2.8856304985337244
2.875855327468231
2.844574780058651
2.7966764418377323
2.739980449657869
2.675464320625611
2.598240469208211
2.512218963831867
2.420332355816227
2.324535679374389
2.225806451612903
2.126099706744868
2.026392961876833
1.9286412512218964
1.833822091886608
1.3626588465298142
1.3401759530791788
1.316715542521994
1.2932551319648091
1.2697947214076246
1.2473118279569892
1.224828934506354
1.2072336265884651
1.1925708699902249
1.1759530791788857
1.1573802541544478
1.1397849462365592
1.1221896383186705
1.1055718475073313
1.0909090909090908
1.0772238514173995
1.064516129032258
1.0527859237536656
1.0420332355816226
1.032258064516129
1.0263929618768328
1.0234604105571847
1.018572825024438
1.0127077223851415
1.0068426197458455
1.0
0.9921798631476052
0.9863147605083088
0.9853372434017597
0.9951124144672532
1.0234604105571847
1.078201368523949
1.147605083088954
1.2404692082111437
1.3734115347018572
1.5386119257087
1.726295210166178
1.920821114369501
2.10850439882698
2.2766373411534704
2.4173998044965788
2.5249266862170088
2.5972629521016617
2.636363636363636
2.6451612903225805
2.631476050830889
2.598240469208211
2.5464320625610948
2.4789833822091887
2.39980449657869
2.3118279569892475
2.217986314760508
2.120234604105572
2.0195503421309877
1.9188660801564028
1.8201368523949168
1.3812316715542523
1.3655913978494625
1.348973607038123
1.3304007820136852
1.3118279569892473
1.29227761485826
1.2766373411534702
1.262952101661779
1.24633431085044
1.2287390029325511
1.2111436950146628
1.1945259042033236
1.1779081133919844
1.1612903225806452
1.1466275659824048
1.1319648093841643
1.1192570869990224
1.1065493646138806
1.0957966764418376
1.0879765395894427
1.083088954056696
1.078201368523949
1.072336265884653
1.064516129032258
1.056695992179863
1.0488758553274682
1.0420332355816226
1.0371456500488758
1.040078201368524
1.056695992179863
1.096774193548387
1.1534701857282503
1.2326490713587488
1.3528836754643203
1.5102639296187683
1.6959921798631477
1.8983382209188664
2.103616813294233
2.2961876832844577
2.4672531769305963
2.6080156402737047
2.7145650048875853
2.787878787878788
2.8289345063538613
2.8406647116324537
2.8289345063538613
2.80058651026393
2.7546432062561097
2.6940371456500487
2.622678396871945
2.541544477028348
2.453567937438905
2.360703812316716
2.2658846529814274
2.1700879765395893
2.074291300097752
1.989247311827957
1.9120234604105573
1.8299120234604105
1.7468230694037146
1.6686217008797657
1.5806451612903225
1.5679374389051808
1.552297165200391
1.5356793743890518
1.5180840664711632
1.499511241446725
1.479960899315738
1.4594330400782014
1.4418377321603129
1.426197458455523
1.409579667644184
1.392961876832845
1.375366568914956
1.3587487781036167
1.343108504398827
1.3284457478005864
1.313782991202346
1.300097751710655
1.2873900293255132
1.2766373411534702
1.2697947214076246
1.2649071358748778
1.2590420332355816
1.2531769305962854
1.24633431085044
1.2394916911045943
1.2326490713587488
1.2258064516129032
1.2228739002932552
1.2287390029325511
1.2502443792766371
1.2961876832844574
1.3734115347018572
1.4652981427174976
1.5786901270772238
1.7341153470185728
1.9188660801564028
2.1192570869990224
2.318670576735093
2.5034213098729228
2.664711632453568
2.795698924731183
2.89345063538612
2.9589442815249267
2.995112414467253
3.0019550342130987
2.988269794721408
2.9589442815249267
2.9149560117302054
2.857282502443793
2.788856304985337
2.7126099706744866
2.6295210166177907
2.541544477028348
2.450635386119257
2.357771260997068
2.2629521016617797
2.1681329423264906
2.0840664711632453
2.006842619745845
1.924731182795699
1.842619745845552
1.512218963831867
1.490713587487781
1.469208211143695
1.4467253176930597
1.4242424242424243
1.4056695992179864
1.3900293255131966
1.3714565004887584
1.3519061583577712
1.332355816226784
1.3128054740957966
1.2942326490713587
1.2756598240469208
1.2580645161290325
1.241446725317693
1.2258064516129032
1.2121212121212122
1.2023460410557183
1.195503421309873
1.1867057673509287
1.1779081133919844
1.1700879765395895
1.163245356793744
1.1564027370478984
1.1485826001955035
1.1407624633431086
1.1319648093841643
1.1241446725317692
1.1202346041055715
1.1251221896383188
1.1407624633431086
1.1730205278592376
1.2346041055718475
1.3304007820136852
1.4623655913978495
1.6256109481915937
1.812316715542522
2.0087976539589443
2.2023460410557183
2.3792766373411536
2.529814271749756
2.6480938416422286
2.7253176930596283
2.76930596285435
2.793743890518084
2.7966764418377323
2.7781036168132944
2.739980449657869
2.686217008797654
2.618768328445748
2.541544477028348
2.4565004887585533
2.3655913978494625
2.269794721407625
2.1730205278592374
2.086021505376344
2.004887585532747
1.916911045943304
1.827956989247312
1.7409579667644184
1.3509286412512218
1.3304007820136852
1.313782991202346
1.2981427174975562
1.2795698924731185
1.260019550342131
1.2394916911045943
1.2189638318670577
1.198435972629521
1.1788856304985338
1.1593352883675463
1.1407624633431086
1.1241446725317692
1.10752688172043
1.0928641251221896
1.0821114369501466
1.0742913000977516
1.064516129032258
1.053763440860215
1.043010752688172
1.0342130987292275
1.0263929618768328
1.018572825024438
1.0117302052785924
1.0039100684261977
0.997067448680352
0.9902248289345064
0.9872922776148584
0.9902248289345064
1.0009775171065494
1.0283479960899315
1.0811339198435972
1.166177908113392
1.2864125122189638
1.4389051808406648
1.6177908113391983
1.8103616813294232
2.0019550342130987
2.1808406647116323
2.335288367546432
2.447702834799609
2.5239491691104594
2.581622678396872
2.613880742913001
2.618768328445748
2.60019550342131
2.560117302052786
2.5034213098729228
2.4330400782013686
2.3519061583577714
2.2629521016617797
2.16911045943304
2.083088954056696
2.0009775171065494
1.911045943304008
1.8172043010752688
1.7233626588465298
1.632453567937439
1.392961876832845
1.3851417399804498
1.3763440860215057
1.3655913978494625
1.3528836754643203
1.3411534701857282
1.3304007820136852
1.3157380254154447
1.300097751710655
1.284457478005865
1.2688172043010753
1.2531769305962854
1.2375366568914956
1.2228739002932552
1.2082111436950147
1.1945259042033236
1.1808406647116323
1.1720430107526882
1.1652003910068427
1.1573802541544478
1.1485826001955035
1.1397849462365592
1.1319648093841643
1.1251221896383188
1.118279569892473
1.1114369501466277
1.104594330400782
1.0987292277614855
1.0957966764418376
1.1006842619745845
1.1163245356793745
1.147605083088954
1.2072336265884651
1.3010752688172045
1.43108504398827
1.595307917888563
1.7849462365591398
1.988269794721408
2.1915933528836757
2.3822091886608017
2.549364613880743
2.686217008797654
2.780058651026393
2.838709677419355
2.8807429130009776
2.9012707722385143
2.8993157380254155
2.87683284457478
2.8377321603128056
2.782991202346041
2.716520039100684
2.641251221896383
2.5591397849462365
2.4711632453567938
2.380254154447703
2.2961876832844577
2.2170087976539588
2.1300097751710654
2.040078201368524
1.9501466275659824
1.8621700879765395
1.7771260997067448
1.6979472140762464
1.530791788856305
1.5141739980449658
1.4965786901270772
1.478005865102639
1.4623655913978495
1.447702834799609
1.43108504398827
1.412512218963832
1.392961876832845
1.3743890518084063
1.3558162267839686
1.3372434017595307
1.3196480938416422
1.303030303030303
1.2873900293255132
1.2727272727272727
1.262952101661779
1.2551319648093842
1.24633431085044
1.2365591397849462
1.227761485826002
1.219941348973607
1.2121212121212122
1.2052785923753666
1.198435972629521
1.1906158357771262
1.1827956989247312
1.176930596285435
1.176930596285435
1.1857282502443791
1.2072336265884651
1.2531769305962854
1.3313782991202343
1.444770283479961
1.5933528836754642
1.7712609970674489
1.9667644183773216
2.166177908113392
2.355816226783969
2.5249266862170088
2.664711632453568
2.7614858260019552
2.8240469208211145
2.8699902248289346
2.89247311827957
2.89345063538612
2.8729227761485827
2.834799608993157
2.7810361681329425
2.7155425219941347
2.6402737047898337
2.5562072336265884
2.4672531769305963
2.3870967741935485
2.320625610948192
2.24633431085044
2.158357771260997
2.065493646138808
1.9716520039100685
1.8797653958944285
1.4242424242424243
1.4066471163245358
1.3900293255131966
1.370478983382209
1.348973607038123
1.327468230694037
1.3049853372434017
1.2834799608993157
1.2609970674486803
1.2394916911045943
1.2189638318670577
1.1994134897360704
1.1808406647116323
1.163245356793744
1.1515151515151516
1.142717497556207
1.130987292277615
1.1202346041055715
1.1094819159335287
1.0987292277614855
1.0879765395894427
1.078201368523949
1.0703812316715542
1.0635386119257086
1.0557184750733135
1.0478983382209188
1.043010752688172
1.040078201368524
1.0371456500488758
1.0410557184750733
1.0606060606060606
1.1036168132942326
1.1779081133919844
1.2883675464320623
1.4330400782013686
1.607038123167155
1.8005865102639296
1.9980449657869013
2.1867057673509285
2.3362658846529816
2.452590420332356
2.5562072336265884
2.634408602150537
2.6832844574780057
2.701857282502444
2.6940371456500487
2.662756598240469
2.6129032258064515
2.5464320625610948
2.4682306940371457
2.3812316715542523
2.2981427174975564
2.2160312805474094
2.124144672531769
2.027370478983382
1.9296187683284456
1.8328445747800584
1.7390029325513197
1.3998044965786902
1.3870967741935485
1.375366568914956
1.3636363636363635
1.3479960899315735
1.3304007820136852
1.3118279569892473
1.29227761485826
1.2717497556207231
1.252199413489736
1.2326490713587488
1.2140762463343109
1.1964809384164223
1.1788856304985338
1.1652003910068427
1.1534701857282503
1.1397849462365592
1.126099706744868
1.1133919843597262
1.1006842619745845
1.0879765395894427
1.0762463343108504
1.0654936461388074
1.0557184750733135
1.0469208211143697
1.0381231671554252
1.032258064516129
1.0283479960899315
1.024437927663734
1.0254154447702837
1.0391006842619743
1.0733137829912025
1.1378299120234605
1.2375366568914956
1.3734115347018572
1.541544477028348
1.7331378299120237
1.935483870967742
2.133919843597263
2.2961876832844577
2.426197458455523
2.547409579667644
2.644183773216031
2.7116324535679373
2.7497556207233624
2.758553274682307
2.7419354838709675
2.7038123167155423
2.6480938416422286
2.5777126099706744
2.496578690127077
2.4173998044965788
2.3382209188660803
2.247311827956989
2.1515151515151514
2.0527859237536656
1.9550342130987293
1.858260019550342
1.7644183773216031
1.675464320625611
1.5923753665689149
1.5454545454545454
1.5376344086021505
1.5278592375366569
1.5161290322580645
1.5053763440860215
1.4946236559139785
1.479960899315738
1.4633431085043989
1.4467253176930597
1.4291300097751711
1.4115347018572826
1.393939393939394
1.375366568914956
1.3577712609970674
1.3411534701857282
1.3255131964809383
1.313782991202346
1.3040078201368523
1.2932551319648091
1.2825024437927663
1.2717497556207231
1.2619745845552297
1.2531769305962854
1.2453567937438903
1.2375366568914956
1.2297165200391007
1.2218963831867058
1.2140762463343109
1.2072336265884651
1.2072336265884651
1.2160312805474096
1.2394916911045943
1.2883675464320623
1.370478983382209
1.4887585532746823
1.6441837732160314
1.828934506353861
2.03128054740958
2.239491691104594
2.4379276637341154
2.6158357771261
2.747800586510264
2.843597262952102
2.9237536656891496
2.9804496578690127
3.0117302052785924
3.018572825024438
2.992179863147605
2.9423264907135875
2.8856304985337244
2.820136852394917
2.7468230694037143
2.665689149560117
2.579667644183773
2.498533724340176
2.418377321603128
2.3304007820136854
2.2375366568914954
2.1436950146627565
2.0498533724340176
1.9579667644183771
1.8699902248289344
1.7869012707722385
1.5249266862170088
1.5073313782991202
1.4916911045943304
1.4760508308895406
1.457478005865103
1.436950146627566
1.41544477028348
1.3949169110459434
1.3743890518084063
1.35386119257087
1.3343108504398826
1.3157380254154447
1.2971652003910068
1.2795698924731185
1.262952101661779
1.2502443792766371
1.2404692082111437
1.2287390029325511
1.217008797653959
1.2052785923753666
1.1945259042033236
1.1837732160312806
1.173998044965787
1.1652003910068427
1.1564027370478984
1.1466275659824048
1.1358748778103618
1.1290322580645162
1.1251221896383188
1.1241446725317692
1.1329423264907137
1.1612903225806452
1.217008797653959
1.3069403714565004
1.4330400782013686
1.5923753665689149
1.7771260997067448
1.975562072336266
2.172043010752688
2.35386119257087
2.4946236559139785
2.60019550342131
2.69208211143695
2.760508308895406
2.801564027370479
2.81622678396872
2.806451612903226
2.776148582600196
2.7282502443792764
2.665689149560117
2.591397849462365
2.5083088954056696
2.4271749755620724
2.347018572825025
2.2580645161290325
2.164222873900293
2.067448680351906
1.9716520039100685
1.8778103616813293
1.7869012707722385
1.3782991202346042
1.3607038123167154
1.3411534701857282
1.3196480938416422
1.2981427174975562
1.2766373411534702
1.2541544477028348
1.2326490713587488
1.2121212121212122
1.1925708699902249
1.173998044965787
1.155425219941349
1.141739980449658
1.1300097751710656
1.1173020527859236
1.104594330400782
1.0918866080156402
1.0791788856304985
1.0664711632453567
1.0557184750733135
1.04594330400782
1.0371456500488758
1.0283479960899315
1.0205278592375366
1.0156402737047898
1.0127077223851415
1.007820136852395
1.0019550342130987
0.9980449657869012
1.0009775171065494
1.018572825024438
1.0596285434995112
1.1300097751710656
1.2346041055718475
1.3734115347018572
1.541544477028348
1.729227761485826
1.8973607038123168
2.0498533724340176
2.207233626588465
2.3499511241446727
2.4672531769305963
2.552297165200391
2.6041055718475072
2.6236559139784945
2.613880742913001
2.581622678396872
2.529814271749756
2.462365591397849
2.3919843597262958
2.318670576735093
2.232649071358749
2.1388074291300097
2.0410557184750733
1.9413489736070384
1.842619745845552
1.7458455522971652
1.6520039100684265
1.3685239491691104
1.3616813294232648
