ppg
1.2365591397849462
1.2150537634408602
1.1925708699902249
1.1700879765395895
1.147605083088954
1.130987292277615
1.1270772238514175
1.1397849462365592
1.176930596285435
1.249266862170088
1.3616813294232648
1.512218963831867
1.6920821114369502
1.8875855327468232
2.083088954056696
2.2639296187683287
2.419354838709677
2.5425219941348973
2.63049853372434
2.681329423264907
2.7038123167155423
2.7067448680351904
2.6911045943304006
2.659824046920821
2.616813294232649
2.563049853372434
2.5024437927663734
2.4359726295210167
2.366568914956012
2.2932551319648096
2.217986314760508
2.1407624633431084
2.071358748778104
2.004887585532747
1.9315738025415443
1.8533724340175952
1.7741935483870968
1.6950146627565983
1.6158357771260996
1.5376344086021505
1.4594330400782014
1.3841642228739004
1.3118279569892473
1.2443792766373412
1.1925708699902249
1.152492668621701
1.1143695014662756
1.0840664711632453
1.0654936461388074
1.0586510263929618
1.0654936461388074
1.083088954056696
1.110459433040078
1.1456500488758554
1.18475073313783
1.2258064516129032
1.2649071358748778
1.2991202346041055
1.3284457478005864
1.3548387096774193
1.3763440860215057
1.3919843597262953
1.4027370478983383
1.4076246334310851
1.4076246334310851
1.4027370478983383
1.392961876832845
1.3782991202346042
1.3616813294232648
1.3479960899315735
1.335288367546432
1.3196480938416422
1.3020527859237536
1.2834799608993157
1.2639296187683284
1.2453567937438903
1.2316715542521994
1.2297165200391007
1.2482893450635386
1.2981427174975562
1.3851417399804498
1.512218963831867
1.6480938416422288
1.7947214076246334
1.9736070381231672
2.1622678396871944
2.3411534701857284
2.498533724340176
2.624633431085044
2.717497556207233
2.777126099706745
2.806451612903226
2.811339198435973
2.7966764418377323
2.76930596285435
2.7311827956989245
2.6823069403714563
2.624633431085044
2.560117302052786
2.490713587487781
2.4173998044965788
2.3411534701857284
2.2629521016617797
2.182795698924731
2.101661779081134
2.0195503421309877
1.9364613880742916
1.8631476050830889
1.7956989247311828
1.7204301075268815
1.643206256109482
1.5650048875855327
1.4887585532746823
1.41544477028348
1.3479960899315735
1.2864125122189638
1.2346041055718475
1.1925708699902249
1.163245356793744
1.1378299120234605
1.121212121212121
1.1221896383186705
1.13880742913001
1.1681329423264908
1.2052785923753666
1.249266862170088
1.295210166177908
1.3411534701857282
1.3841642228739004
1.423264907135875
1.456500488758553
1.4838709677419355
1.504398826979472
1.5180840664711632
1.5268817204301075
1.5298142717497556
1.5268817204301075
1.5190615835777126
1.5063538611925709
1.490713587487781
1.474095796676442
1.456500488758553
1.4389051808406648
1.4203323558162269
1.4056695992179864
1.3919843597262953
1.3763440860215057
1.364613880742913
1.3665689149560116
1.3919843597262953
1.4506353861192571
1.5483870967741935
1.6871945259042034
1.86119257086999
2.0576735092864125
2.26197458455523
2.4330400782013686
2.576735092864125
2.7145650048875853
2.8299120234604107
2.9159335288367547
2.9716520039100685
2.99902248289345
3.0019550342130987
2.98435972629521
2.951124144672532
2.9042033235581624
2.8484848484848486
2.78494623655914
2.7223851417399803
2.6578690127077222
2.5855327468230693
2.509286412512219
2.4301075268817205
2.3489736070381237
2.2668621700879767
2.1837732160312804
2.099706744868035
2.0146627565982405
1.9296187683284456
1.8455522971652003
1.7732160312805474
1.7067448680351909
1.6344086021505375
1.5610948191593352
1.490713587487781
1.426197458455523
1.370478983382209
1.3255131964809383
1.2942326490713587
1.2776148582600195
1.2746823069403714
1.2854349951124144
1.3069403714565004
1.3333333333333333
1.3636363636363635
1.3998044965786902
1.436950146627566
1.4731182795698925
1.5053763440860215
1.5327468230694037
1.555229716520039
1.5718475073313782
1.5826001955034212
1.5865102639296187
1.585532746823069
1.581622678396872
1.573802541544477
1.5591397849462365
1.5405669599217986
1.5180840664711632
1.4946236559139785
1.4701857282502444
1.4457478005865103
1.4193548387096775
1.3919843597262953
1.364613880742913
1.3401759530791788
1.327468230694037
1.3294232649071358
1.3548387096774193
1.414467253176931
1.5161290322580645
1.656891495601173
1.828934506353861
2.0205278592375366
2.2140762463343107
2.3949169110459434
2.552297165200391
2.67644183773216
2.7653958944281527
2.81622678396872
2.8367546432062563
2.8377321603128056
2.820136852394917
2.7859237536656893
2.7390029325513194
2.681329423264907
2.6158357771261
2.5454545454545454
2.469208211143695
2.3900293255131966
2.30791788856305
2.2238514173998043
2.147605083088954
2.075268817204301
1.9960899315738023
1.9130009775171064
1.828934506353861
1.7429130009775171
1.656891495601173
1.5698924731182795
1.482893450635386
1.3978494623655917
1.3147605083088951
1.2365591397849462
1.173998044965787
1.1231671554252198
1.0733137829912025
1.0312805474095796
1.0
0.9833822091886608
0.9804496578690128
0.9912023460410556
1.013685239491691
1.0439882697947214
1.0801564027370478
1.118279569892473
1.1564027370478984
1.1896383186705768
1.2189638318670577
1.2443792766373412
1.2649071358748778
1.2805474095796676
1.2903225806451613
1.295210166177908
1.295210166177908
1.289345063538612
1.2795698924731185
1.2649071358748778
1.24633431085044
1.2316715542521994
1.2179863147605083
1.2003910068426198
1.1808406647116323
1.1612903225806452
1.1407624633431086
1.1202346041055715
1.1016617790811338
1.0909090909090908
1.096774193548387
1.1290322580645162
1.1964809384164223
1.305962854349951
1.4291300097751711
1.5708699902248289
1.7517106549364614
1.949169110459433
2.145650048875855
2.324535679374389
2.4750733137829912
2.591397849462365
2.6725317693059627
2.719452590420332
2.7370478983382207
2.7311827956989245
2.708699902248289
2.673509286412512
2.625610948191593
2.56891495601173
2.505376344086021
2.436950146627566
2.363636363636364
2.2873900293255134
2.209188660801564
2.1300097751710654
2.0498533724340176
1.967741935483871
1.8856304985337244
1.8142717497556209
1.747800586510264
1.6735092864125125
1.595307917888563
1.5161290322580645
1.436950146627566
1.3607038123167154
1.2883675464320623
1.2209188660801564
1.1612903225806452
1.1124144672531768
1.0742913000977516
1.0527859237536656
1.0439882697947214
1.0449657869012707
1.056695992179863
1.078201368523949
1.1085043988269794
1.1456500488758554
1.1867057673509287
1.2287390029325511
1.2688172043010753
1.3049853372434017
1.3362658846529814
1.3607038123167154
1.3792766373411536
1.392961876832845
1.401759530791789
1.4037145650048877
1.3998044965786902
1.391006842619746
1.3782991202346042
1.3616813294232648
1.3421309872922775
1.3225806451612905
1.3020527859237536
1.2825024437927663
1.267839687194526
1.2541544477028348
1.2365591397849462
1.2179863147605083
1.2052785923753666
1.2072336265884651
1.2326490713587488
1.2932551319648091
1.392961876832845
1.5317693059628543
1.7038123167155426
1.8983382209188664
2.099706744868035
2.2688172043010755
2.409579667644184
2.5454545454545454
2.658846529814272
2.7438905180840663
2.798631476050831
2.819159335288368
2.812316715542522
2.790811339198436
2.755620723362659
2.7096774193548385
2.654936461388074
2.5992179863147604
2.541544477028348
2.4760508308895406
2.406647116324536
2.333333333333333
2.2580645161290325
2.1808406647116323
2.102639296187683
2.0234604105571847
1.9442815249266865
1.866080156402737
1.7878787878787878
1.7204301075268815
1.6588465298142718
1.5913978494623655
1.521994134897361
1.4535679374389052
1.3900293255131966
1.3333333333333333
1.2854349951124144
1.249266862170088
1.2267839687194526
1.217008797653959
1.219941348973607
1.2365591397849462
1.2609970674486803
1.2903225806451613
1.327468230694037
1.3685239491691104
1.4105571847507332
1.4506353861192571
1.4868035190615836
1.5180840664711632
1.543499511241447
1.5620723362658846
1.5747800586510263
1.581622678396872
1.58455522971652
1.5835777126099706
1.576735092864125
1.565982404692082
1.552297165200391
1.5356793743890518
1.5180840664711632
1.500488758553275
1.4838709677419355
1.4672531769305963
1.4486803519061584
1.4301075268817205
1.4164222873900294
1.4115347018572826
1.4203323558162269
1.452590420332356
1.5190615835777126
1.624633431085044
1.76930596285435
1.9442815249266865
2.1378299120234603
2.334310850439883
2.5180840664711632
2.677419354838709
2.8054740957966766
2.8914956011730206
2.9423264907135875
2.975562072336266
2.9872922776148583
2.979472140762464
2.9550342130987293
2.9159335288367547
2.866080156402737
2.807429130009776
2.742913000977517
2.6725317693059627
2.598240469208211
2.5210166177908118
2.449657869012708
2.3812316715542523
2.3059628543499517
2.2267839687194524
2.146627565982405
2.065493646138808
1.9833822091886608
1.9012707722385145
1.8201368523949168
1.7409579667644184
1.6627565982404693
1.587487781036168
1.5249266862170088
1.4711632453567938
1.4164222873900294
1.3665689149560116
1.3264907135874875
1.2981427174975562
1.2825024437927663
1.281524926686217
1.29227761485826
1.3128054740957966
1.3401759530791788
1.3724340175953078
1.4056695992179864
1.435972629521017
1.4613880742913
1.4858260019550342
1.5053763440860215
1.5190615835777126
1.5268817204301075
1.5288367546432062
1.5249266862170088
1.5151515151515151
1.500488758553275
1.4819159335288368
1.4604105571847508
1.4408602150537635
1.423264907135875
1.401759530791789
1.3782991202346042
1.35386119257087
1.3284457478005864
1.3020527859237536
1.2766373411534702
1.2541544477028348
1.2434017595307918
1.2531769305962854
1.2942326490713587
1.375366568914956
1.474095796676442
1.5943304007820136
1.7556207233626588
1.9413489736070384
2.131964809384164
2.3118279569892475
2.4672531769305963
2.590420332355816
2.679374389051808
2.7341153470185726
2.758553274682307
2.7565982404692084
2.7370478983382207
2.7038123167155423
2.6578690127077222
2.6021505376344085
2.5386119257087
2.469208211143695
2.3958944281524928
2.3196480938416424
2.241446725317693
2.161290322580645
2.081133919843597
2.0
1.9188660801564028
1.847507331378299
1.7810361681329423
1.70772238514174
1.6304985337243405
1.5513196480938416
1.4721407624633431
1.393939393939394
1.3186705767350928
1.2473118279569892
1.181818181818182
1.1231671554252198
1.075268817204301
1.0439882697947214
1.0263929618768328
1.0175953079178883
1.0195503421309873
1.0332355816226784
1.056695992179863
1.0879765395894427
1.1241446725317692
1.163245356793744
1.2013685239491692
1.2375366568914956
1.2688172043010753
1.2942326490713587
1.313782991202346
1.3294232649071358
1.3391984359726294
1.343108504398827
1.3421309872922775
1.3362658846529814
1.3255131964809383
1.3118279569892473
1.2942326490713587
1.2756598240469208
1.2570869990224829
1.2394916911045943
1.2258064516129032
1.2140762463343109
1.198435972629521
1.1808406647116323
1.163245356793744
1.1515151515151516
1.1534701857282503
1.1798631476050832
1.2394916911045943
1.33822091886608
1.4760508308895406
1.6471163245356797
1.8377321603128052
2.007820136852395
2.161290322580645
2.317693059628544
2.4574780058651027
2.570869990224829
2.653958944281525
2.705767350928641
2.729227761485826
2.729227761485826
2.7096774193548385
2.675464320625611
2.6285434995112413
2.578690127077224
2.525904203323558
2.464320625610948
2.396871945259042
2.3255131964809386
2.251221896383187
2.174975562072336
2.0977517106549364
2.018572825024438
1.9393939393939397
1.8592375366568916
1.7790811339198436
1.7086999022482894
1.643206256109482
1.5708699902248289
1.4965786901270772
1.4242424242424243
1.35386119257087
1.2883675464320623
1.23069403714565
1.181818181818182
1.1436950146627567
1.118279569892473
1.1065493646138806
1.1085043988269794
1.1202346041055715
1.141739980449658
1.1700879765395895
1.2043010752688172
1.2424242424242424
1.281524926686217
1.3196480938416422
1.35386119257087
1.383186705767351
1.4066471163245358
1.4242424242424243
1.435972629521017
1.4428152492668622
1.4437927663734116
1.4389051808406648
1.4291300097751711
1.414467253176931
1.396871945259042
1.3773216031280548
1.356793743890518
1.3372434017595307
1.3176930596285434
1.2981427174975562
1.278592375366569
1.2590420332355816
1.2453567937438903
1.2375366568914956
1.238514173998045
1.260019550342131
1.310850439882698
1.3988269794721409
1.525904203323558
1.6871945259042034
1.871945259042033
2.067448680351906
2.2580645161290325
2.43108504398827
2.5620723362658846
2.658846529814272
2.739980449657869
2.7976539589442817
2.8299120234604107
2.8396871945259043
2.8289345063538613
2.801564027370479
2.7624633431085046
2.7126099706744866
2.6559139784946235
2.592375366568915
2.5239491691104594
2.4594330400782014
2.3958944281524928
2.3255131964809386
2.251221896383187
2.174975562072336
2.0977517106549364
2.0195503421309877
1.9423264907135875
1.865102639296188
1.7888563049853372
1.7135874877810362
1.6392961876832846
1.5757575757575757
1.521016617790811
1.4643206256109482
1.409579667644184
1.3607038123167154
1.3225806451612905
1.295210166177908
1.281524926686217
1.2805474095796676
1.29227761485826
1.3147605083088951
1.3450635386119256
1.3812316715542523
1.4164222873900294
1.4496578690127078
1.4848484848484849
1.5180840664711632
1.547409579667644
1.5718475073313782
1.5913978494623655
1.6050830889540566
1.6129032258064515
1.6158357771260996
1.6129032258064515
1.606060606060606
1.5972629521016617
1.5865102639296187
1.5718475073313782
1.555229716520039
1.5386119257087
1.521016617790811
1.5034213098729228
1.4848484848484849
1.466275659824047
1.4486803519061584
1.4379276637341154
1.4437927663734116
1.4760508308895406
1.5268817204301075
1.6041055718475072
1.726295210166178
1.8856304985337244
2.070381231671554
2.2639296187683287
2.450635386119257
2.6177908113391983
2.7546432062561097
2.8582600195503423
2.927663734115347
2.9657869012707723
2.975562072336266
2.963831867057673
2.93841642228739
2.900293255131965
2.852394916911046
2.795698924731183
2.7331378299120237
2.665689149560117
2.5943304007820136
2.5190615835777126
2.4408602150537635
2.360703812316716
2.2795698924731185
2.207233626588465
2.1388074291300097
2.0625610948191597
1.981427174975562
1.8993157380254155
1.8162267839687196
1.732160312805474
1.6490713587487782
1.5679374389051808
1.4897360703812317
1.4164222873900294
1.3499511241446724
1.2991202346041055
1.260019550342131
1.2258064516129032
1.2003910068426198
1.1867057673509287
1.1867057673509287
1.1974584555229717
1.2179863147605083
1.2453567937438903
1.2756598240469208
1.3069403714565004
1.3372434017595307
1.3636363636363635
1.3861192570869991
1.4027370478983383
1.41544477028348
1.423264907135875
1.426197458455523
1.423264907135875
1.4164222873900294
1.404692082111437
1.3890518084066472
1.370478983382209
1.3499511241446724
1.3284457478005864
1.310850439882698
1.295210166177908
1.2756598240469208
1.2531769305962854
1.2287390029325511
1.2043010752688172
1.1837732160312806
1.1749755620723363
1.1896383186705768
1.2365591397849462
1.3225806451612905
1.4486803519061584
1.6099706744868034
1.7683284457478006
1.924731182795699
2.0987292277614857
2.267839687194526
2.41544477028348
2.532746823069404
2.616813294232649
2.667644183773216
2.689149560117302
2.687194525904203
2.664711632453568
2.627565982404692
2.5835777126099706
2.532746823069404
2.4731182795698925
2.406647116324536
2.3362658846529816
2.2629521016617797
2.1867057673509285
2.1094819159335287
2.03128054740958
1.9521016617790807
1.873900293255132
1.7956989247311828
1.7174975562072337
1.6500488758553276
1.5865102639296187
1.5161290322580645
1.4428152492668622
1.3685239491691104
1.2971652003910068
1.23069403714565
1.1700879765395895
1.118279569892473
1.0762463343108504
1.0469208211143697
1.032258064516129
1.0312805474095796
1.0410557184750733
1.0606060606060606
1.088954056695992
1.1231671554252198
1.1622678396871946
1.2013685239491692
1.2394916911045943
1.273704789833822
1.3040078201368523
1.3294232649071358
1.3479960899315735
1.3616813294232648
1.370478983382209
1.3734115347018572
1.3695014662756595
1.3607038123167154
1.3479960899315735
1.3313782991202343
1.3128054740957966
1.2932551319648091
1.2746823069403714
1.2570869990224829
1.2394916911045943
1.2209188660801564
1.206256109481916
1.1935483870967742
1.1798631476050832
1.1720430107526882
1.1788856304985338
1.2111436950146628
1.2776148582600195
1.383186705767351
1.5268817204301075
1.699902248289345
1.8914956011730208
2.086021505376344
2.2482893450635384
2.3822091886608017
2.5083088954056696
2.610948191593353
2.6852394916911044
2.730205278592375
2.748778103616813
2.7438905180840663
2.721407624633431
2.6852394916911044
2.6373411534701856
2.581622678396872
2.5190615835777126
2.4594330400782014
2.39980449657869
2.332355816226784
2.260019550342131
2.1847507331378297
2.10752688172043
2.0283479960899315
1.945259042033236
1.8602150537634408
1.7771260997067448
1.6950146627565983
1.6148582600195502
1.5464320625610948
1.4848484848484849
1.418377321603128
1.3509286412512218
1.2883675464320623
1.2316715542521994
1.18475073313783
1.1495601173020529
1.1270772238514175
1.1163245356793745
1.1192570869990224
1.133919843597263
1.1573802541544478
1.18475073313783
1.2160312805474096
1.252199413489736
1.2903225806451613
1.327468230694037
1.3607038123167154
1.3890518084066472
1.4115347018572826
1.4271749755620724
1.436950146627566
1.4418377321603129
1.439882697947214
1.435972629521017
1.4301075268817205
1.4193548387096775
1.404692082111437
1.388074291300098
1.370478983382209
1.35386119257087
1.3372434017595307
1.3206256109481915
1.3040078201368523
1.2873900293255132
1.2746823069403714
1.270772238514174
1.278592375366569
1.305962854349951
1.3636363636363635
1.4594330400782014
1.5943304007820136
1.7624633431085044
1.9530791788856303
2.1524926686217007
2.345063538611926
2.517106549364614
2.659824046920821
2.76930596285435
2.838709677419355
2.875855327468231
2.895405669599218
2.895405669599218
2.877810361681329
2.8455522971652005
2.8025415444770285
2.7497556207233624
2.689149560117302
2.621700879765396
2.550342130987292
2.4760508308895406
2.40078201368524
2.3313782991202348
2.264907135874878
2.1925708699902247
2.1163245356793743
2.038123167155425
1.959921798631476
1.881720430107527
1.8035190615835777
1.7272727272727273
1.6529814271749756
1.581622678396872
1.5141739980449658
1.4594330400782014
1.414467253176931
1.3714565004887584
1.335288367546432
1.3098729227761483
1.2971652003910068
1.2971652003910068
1.3098729227761483
1.3333333333333333
1.364613880742913
1.4007820136852396
1.439882697947214
1.478983382209189
1.512218963831867
1.5405669599217986
1.565982404692082
1.587487781036168
1.6041055718475072
1.6148582600195502
1.619745845552297
1.619745845552297
1.6148582600195502
1.6050830889540566
1.5913978494623655
1.573802541544477
1.5581622678396871
1.543499511241447
1.5268817204301075
1.509286412512219
1.4897360703812317
1.469208211143695
1.4486803519061584
1.4301075268817205
1.418377321603128
1.4222873900293256
1.452590420332356
1.5190615835777126
1.6265884652981428
1.7468230694037146
1.8826979472140764
2.0557184750733137
2.244379276637341
2.4301075268817205
2.5962854349951123
2.7331378299120237
2.834799608993157
2.902248289345064
2.9374389051808407
2.9442815249266863
2.929618768328446
2.8993157380254155
2.857282502443793
2.803519061583578
2.740957966764418
2.6715542521994133
2.5962854349951123
2.517106549364614
2.4349951124144678
2.3499511241446727
2.2639296187683287
2.176930596285435
2.088954056695992
2.0009775171065494
1.9237536656891496
1.8533724340175952
1.7761485826001957
1.6959921798631477
1.6138807429130009
1.5327468230694037
1.452590420332356
1.375366568914956
1.303030303030303
1.2365591397849462
1.1779081133919844
1.130987292277615
1.1006842619745845
1.0840664711632453
1.0762463343108504
1.0791788856304985
1.093841642228739
1.1173020527859236
1.1456500488758554
1.1779081133919844
1.2101661779081134
1.241446725317693
1.2697947214076246
1.2932551319648091
1.3118279569892473
1.3255131964809383
1.3343108504398826
1.33822091886608
1.3362658846529814
1.3294232649071358
1.3186705767350928
1.303030303030303
1.284457478005865
1.2639296187683284
1.2424242424242424
1.2209188660801564
1.1994134897360704
1.1827956989247312
1.1681329423264908
1.1495601173020529
1.1300097751710656
1.1133919843597262
1.1055718475073313
1.1163245356793745
1.155425219941349
1.2316715542521994
1.3470185728250244
1.499511241446725
1.6803519061583578
1.8494623655913975
2.007820136852395
2.176930596285435
2.333333333333333
2.464320625610948
2.5640273704789838
2.631476050830889
2.668621700879765
2.678396871945259
2.6666666666666665
2.638318670576735
2.5962854349951123
2.544477028347996
2.4916911045943304
2.4359726295210167
2.3714565004887587
2.3010752688172045
2.2277614858260018
2.1515151515151514
2.072336265884653
1.992179863147605
1.9120234604105573
1.83088954056696
1.750733137829912
1.6705767350928642
1.6011730205278591
1.5376344086021505
1.466275659824047
1.3919843597262953
1.3176930596285434
1.24633431085044
1.1798631476050832
1.1202346041055715
1.0694037145650048
1.0303030303030305
1.0039100684261977
0.9912023460410556
0.9921798631476052
1.0039100684261977
1.0254154447702837
1.0557184750733135
1.0918866080156402
1.1319648093841643
1.1730205278592376
1.2130987292277615
1.2502443792766371
1.2825024437927663
1.3088954056695992
1.3284457478005864
1.3421309872922775
1.3519061583577712
1.356793743890518
1.3558162267839686
1.348973607038123
1.33822091886608
1.324535679374389
1.3088954056695992
1.2913000977517106
1.273704789833822
1.2561094819159335
1.2394916911045943
1.2218963831867058
1.2043010752688172
1.1915933528836755
1.1925708699902249
1.203323558162268
1.2287390029325511
1.2805474095796676
1.3685239491691104
1.495601173020528
1.656891495601173
1.842619745845552
2.0391006842619745
2.23069403714565
2.404692082111437
2.536656891495601
2.632453567937439
2.7116324535679373
2.7653958944281527
2.792766373411535
2.7966764418377323
2.7810361681329425
2.7497556207233624
2.705767350928641
2.652003910068426
2.590420332355816
2.5219941348973607
2.449657869012708
2.3812316715542523
2.315738025415445
2.242424242424242
2.1652003910068425
2.086021505376344
2.005865102639296
1.924731182795699
1.8435972629521016
1.7624633431085044
1.6803519061583578
1.5992179863147604
1.5190615835777126
1.452590420332356
1.393939393939394
1.3313782991202343
1.2697947214076246
1.2140762463343109
1.1681329423264908
1.133919843597263
1.1114369501466277
1.1026392961876832
1.10752688172043
1.126099706744868
1.155425219941349
1.1925708699902249
1.2316715542521994
1.270772238514174
1.3128054740957966
1.3548387096774193
1.392961876832845
1.4271749755620724
1.455522971652004
1.478005865102639
1.4946236559139785
1.504398826979472
1.509286412512219
1.5083088954056696
1.5053763440860215
1.499511241446725
1.4887585532746823
1.4750733137829912
1.4613880742913
1.447702834799609
1.434017595307918
1.4203323558162269
1.404692082111437
1.3900293255131966
1.3782991202346042
1.3782991202346042
1.3988269794721409
1.436950146627566
1.500488758553275
1.607038123167155
1.7526881720430108
1.9296187683284456
2.1251221896383186
2.321603128054741
2.506353861192571
2.6666666666666665
2.795698924731183
2.8914956011730206
2.9530791788856305
2.9824046920821115
2.986314760508309
2.973607038123167
2.946236559139785
2.906158357771261
2.8563049853372435
2.7976539589442817
2.7341153470185726
2.665689149560117
2.5943304007820136
2.520039100684262
2.442815249266862
2.363636363636364
2.29227761485826
2.2238514173998043
2.1495601173020527
2.071358748778104
1.992179863147605
1.9130009775171064
1.833822091886608
1.7546432062561097
