ppg
2.294232649071359
2.2385141739980448
2.189638318670577
2.142717497556207
2.0987292277614857
2.059628543499511
2.026392961876833
1.997067448680352
1.970674486803519
1.9472140762463344
1.9257086999022484
1.903225806451613
1.881720430107527
1.8641251221896384
1.847507331378299
1.827956989247312
1.8054740957966764
1.7820136852394917
1.7565982404692082
1.729227761485826
1.699902248289345
1.6715542521994136
1.6451612903225807
1.6187683284457477
1.5933528836754642
1.5698924731182795
1.5493646138807429
1.530791788856305
1.509286412512219
1.4858260019550342
1.4623655913978495
1.439882697947214
1.4193548387096775
1.3998044965786902
1.380254154447703
1.3626588465298142
1.346041055718475
1.3313782991202343
1.3196480938416422
1.3098729227761483
1.2981427174975562
1.2854349951124144
1.2727272727272727
1.2619745845552297
1.2541544477028348
1.2473118279569892
1.241446725317693
1.2355816226783969
1.2297165200391007
1.2228739002932552
1.2150537634408602
1.2111436950146628
1.209188660801564
1.2052785923753666
1.2003910068426198
1.1964809384164223
1.1935483870967742
1.1915933528836755
1.1886608015640274
1.1857282502443791
1.1808406647116323
1.176930596285435
1.1730205278592376
1.1720430107526882
1.1720430107526882
1.1710654936461389
1.1700879765395895
1.1700879765395895
1.1681329423264908
1.166177908113392
1.164222873900293
1.1622678396871946
1.1622678396871946
1.1681329423264908
1.18475073313783
1.2179863147605083
1.2619745845552297
1.3206256109481915
1.4076246334310851
1.521016617790811
1.6549364613880744
1.804496578690127
1.963831867057673
2.126099706744868
2.2854349951124147
2.4349951124144678
2.570869990224829
2.69208211143695
2.7839687194525906
2.854349951124145
2.9237536656891496
2.9853372434017595
3.037145650048876
3.080156402737048
3.113391984359726
3.136852394916911
3.150537634408602
3.1544477028347995
3.1485826001955037
3.132942326490713
3.10752688172043
3.0733137829912023
3.032258064516129
2.9824046920821115
2.9237536656891496
2.855327468230694
2.780058651026393
2.699902248289345
2.616813294232649
2.533724340175953
2.4516129032258065
2.3743890518084068
2.302052785923754
2.241446725317693
2.189638318670577
2.1407624633431084
2.0948191593352883
2.0527859237536656
2.0146627565982405
1.981427174975562
1.951124144672532
1.9237536656891496
1.8963831867057677
1.8699902248289344
1.823069403714565
1.7663734115347018
1.7282502443792769
1.699902248289345
1.672531769305963
1.64613880742913
1.6187683284457477
1.5913978494623655
1.564027370478983
1.5376344086021505
1.5102639296187683
1.4809384164222874
1.452590420332356
1.4252199413489737
1.4027370478983383
1.3822091886608017
1.359726295210166
1.3372434017595307
1.3157380254154447
1.2942326490713587
1.273704789833822
1.2551319648093842
1.2365591397849462
1.2189638318670577
1.2023460410557183
1.18475073313783
1.1671554252199414
1.1544477028347997
1.1436950146627567
1.130987292277615
1.118279569892473
1.1055718475073313
1.0928641251221896
1.0801564027370478
1.0684261974584557
1.0586510263929618
1.0498533724340176
1.043010752688172
1.0371456500488758
1.035190615835777
1.0342130987292275
1.0312805474095796
1.0273704789833822
1.0224828934506354
1.0175953079178883
1.0127077223851415
1.007820136852395
1.002932551319648
0.9990224828934506
0.9960899315738024
0.9931573802541545
0.9941348973607038
0.9960899315738024
0.9951124144672532
0.9931573802541545
0.9902248289345064
0.9863147605083088
0.981427174975562
0.975562072336266
0.9687194525904204
0.9648093841642228
0.9638318670576737
0.9687194525904204
0.9843597262952102
1.010752688172043
1.050830889540567
1.1114369501466277
1.195503421309873
1.3020527859237536
1.4281524926686218
1.5679374389051808
1.7174975562072337
1.868035190615836
2.01564027370479
2.155425219941349
2.2844574780058653
2.386119257086999
2.466275659824047
2.5464320625610948
2.619745845552297
2.6823069403714563
2.7331378299120237
2.7722385141739982
2.7996089931573804
2.817204301075269
2.8260019550342133
2.8240469208211145
2.8132942326490715
2.793743890518084
2.7653958944281527
2.729227761485826
2.6852394916911044
2.633431085043988
2.5747800586510263
2.5083088954056696
2.436950146627566
2.3626588465298144
2.2883675464320627
2.2140762463343107
2.142717497556207
2.0762463343108504
2.0205278592375366
1.9726295210166176
1.924731182795699
1.8807429130009776
1.8406647116324533
1.804496578690127
1.7732160312805474
1.7458455522971652
1.721407624633431
1.699902248289345
1.6803519061583578
1.66177908113392
1.643206256109482
1.6265884652981428
1.611925708699902
1.5943304007820136
1.573802541544477
1.552297165200391
1.5288367546432062
1.5034213098729228
1.47702834799609
1.4496578690127078
1.4222873900293256
1.3958944281524928
1.3714565004887584
1.3528836754643203
1.3362658846529814
1.3176930596285434
1.2981427174975562
1.2776148582600195
1.2570869990224829
1.2355816226783969
1.2150537634408602
1.1964809384164223
1.1788856304985338
1.1622678396871946
1.1466275659824048
1.1319648093841643
1.1231671554252198
1.115347018572825
1.1065493646138806
1.096774193548387
1.086021505376344
1.075268817204301
1.064516129032258
1.0547409579667644
1.0469208211143697
1.0391006842619743
1.032258064516129
1.0263929618768328
1.024437927663734
1.0254154447702837
1.0254154447702837
1.0234604105571847
1.0205278592375366
1.0166177908113392
1.0127077223851415
1.0097751710654936
1.0058651026392962
1.002932551319648
1.0009775171065494
0.9990224828934506
0.9960899315738024
0.9951124144672532
0.997067448680352
0.997067448680352
0.9960899315738024
0.9941348973607038
0.9912023460410556
0.9882697947214076
0.9833822091886608
0.978494623655914
0.9736070381231672
0.9696969696969696
0.9696969696969696
0.9765395894428152
0.9921798631476052
1.0205278592375366
1.0654936461388074
1.1319648093841643
1.219941348973607
1.3304007820136852
1.4594330400782014
1.6041055718475072
1.7575757575757576
1.9130009775171064
2.064516129032258
2.207233626588465
2.320625610948192
2.4144672531769307
2.5083088954056696
2.5943304007820136
2.668621700879765
2.7311827956989245
2.782991202346041
2.8240469208211145
2.855327468230694
2.875855327468231
2.884652981427175
2.884652981427175
2.8729227761485827
2.8514173998044967
2.8240469208211145
2.789833822091887
2.748778103616813
2.6989247311827955
2.641251221896383
2.576735092864125
2.506353861192571
2.432062561094819
2.357771260997068
2.2844574780058653
2.2130987292277613
2.150537634408602
2.0957966764418376
2.0410557184750733
1.989247311827957
1.9423264907135875
1.9012707722385145
1.866080156402737
1.8347996089931573
1.8074291300097751
1.7839687194525904
1.7634408602150538
1.7438905180840665
1.726295210166178
1.7086999022482894
1.6901270772238517
1.6695992179863148
1.6490713587487782
1.6265884652981428
1.6041055718475072
1.581622678396872
1.5581622678396871
1.5327468230694037
1.5063538611925709
1.478983382209189
1.4506353861192571
1.4271749755620724
1.4056695992179864
1.3822091886608017
1.3587487781036167
1.3372434017595307
1.3157380254154447
1.295210166177908
1.2756598240469208
1.2570869990224829
1.238514173998045
1.2209188660801564
1.2043010752688172
1.1925708699902249
1.1827956989247312
1.0469208211143697
1.04594330400782
1.043010752688172
1.0391006842619743
1.0342130987292275
1.029325513196481
1.024437927663734
1.018572825024438
1.013685239491691
1.0087976539589445
1.0087976539589445
1.013685239491691
1.0234604105571847
1.0449657869012707
1.0821114369501466
1.141739980449658
1.2238514173998043
1.3294232649071358
1.455522971652004
1.5992179863147604
1.7546432062561097
1.913978494623656
2.072336265884653
2.2052785923753664
2.3196480938416424
2.4379276637341154
2.550342130987292
2.652003910068426
2.739980449657869
2.814271749755621
2.874877810361681
2.9227761485826003
2.9589442815249267
2.98435972629521
3.0
3.003910068426197
2.9980449657869013
2.9872922776148583
2.9687194525904204
2.941348973607038
2.9042033235581624
2.857282502443793
2.7996089931573804
2.735092864125122
2.6637341153470184
2.5865102639296187
2.50733137829912
2.4281524926686218
2.356793743890518
2.291300097751711
2.2248289345063537
2.161290322580645
2.102639296187683
2.0498533724340176
2.002932551319648
1.9608993157380252
1.9257086999022484
1.8944281524926687
1.8670576735092863
1.842619745845552
1.822091886608016
1.8025415444770283
1.7820136852394917
1.7605083088954057
1.7390029325513197
1.7174975562072337
1.6959921798631477
1.672531769305963
1.6490713587487782
1.624633431085044
1.5992179863147604
1.5728250244379276
1.5464320625610948
1.5239491691104594
1.504398826979472
1.482893450635386
1.4604105571847508
1.4379276637341154
1.41544477028348
1.393939393939394
1.3714565004887584
1.348973607038123
1.327468230694037
1.305962854349951
1.2854349951124144
1.2697947214076246
1.2570869990224829
1.2404692082111437
1.2238514173998043
1.2072336265884651
1.1915933528836755
1.1759530791788857
1.1612903225806452
1.147605083088954
1.133919843597263
1.1221896383186705
1.1114369501466277
1.1026392961876832
1.096774193548387
1.0948191593352885
1.0928641251221896
1.0899315738025417
1.086021505376344
1.0821114369501466
1.078201368523949
1.0742913000977516
1.0694037145650048
1.064516129032258
1.0606060606060606
1.056695992179863
1.0557184750733135
1.0576735092864125
1.056695992179863
1.0557184750733135
1.053763440860215
1.050830889540567
1.0498533724340176
1.0488758553274682
1.0469208211143697
1.0439882697947214
1.0391006842619743
1.0342130987292275
1.029325513196481
1.0273704789833822
1.029325513196481
1.0342130987292275
1.0478983382209188
1.0772238514173995
1.1251221896383188
1.195503421309873
1.2903225806451613
1.4066471163245358
1.541544477028348
1.689149560117302
1.8455522971652003
1.9824046920821117
2.1065493646138806
2.241446725317693
2.375366568914956
2.4995112414467253
2.6099706744868034
2.70772238514174
2.792766373411535
2.866080156402737
2.9257086999022484
2.973607038123167
3.0097751710654936
3.034213098729228
3.043010752688172
3.0410557184750733
3.034213098729228
3.0205278592375366
2.997067448680352
2.964809384164223
2.9227761485826003
2.870967741935484
2.8103616813294234
2.7419354838709675
2.6666666666666665
2.5884652981427174
2.515151515151515
2.44672531769306
2.3743890518084068
2.304007820136853
2.236559139784946
2.174975562072336
2.118279569892473
2.067448680351906
2.0234604105571847
1.9843597262952104
1.949169110459433
1.9178885630498532
1.8885630498533723
1.8641251221896384
1.842619745845552
1.8201368523949168
1.796676441837732
1.7732160312805474
1.750733137829912
1.7282502443792769
1.7038123167155426
1.6793743890518085
1.6549364613880744
1.6304985337243405
1.6041055718475072
1.581622678396872
1.560117302052786
1.5347018572825024
1.5073313782991202
1.479960899315738
1.4535679374389052
1.4291300097751711
1.4056695992179864
1.383186705767351
1.3616813294232648
1.3411534701857282
1.321603128054741
1.303030303030303
1.2883675464320623
1.2756598240469208
1.260019550342131
1.2443792766373412
1.2287390029325511
1.2130987292277615
1.1974584555229717
1.18475073313783
1.173998044965787
1.164222873900293
1.155425219941349
1.1466275659824048
1.141739980449658
1.13880742913001
1.1329423264907137
1.1270772238514175
1.1221896383186705
1.118279569892473
1.115347018572825
1.1124144672531768
1.1094819159335287
1.1065493646138806
1.1036168132942326
1.1006842619745845
1.0987292277614855
1.099706744868035
1.1026392961876832
1.104594330400782
1.104594330400782
1.104594330400782
1.104594330400782
1.1055718475073313
1.1065493646138806
1.10752688172043
1.1085043988269794
1.10752688172043
1.104594330400782
1.1026392961876832
1.1026392961876832
1.1026392961876832
1.1036168132942326
1.110459433040078
1.1270772238514175
1.1593352883675463
1.2101661779081134
1.2834799608993157
1.380254154447703
1.498533724340176
1.635386119257087
1.7634408602150538
1.889540566959922
2.034213098729228
2.1837732160312804
2.329423264907136
2.4652981427174976
2.5884652981427174
2.6989247311827955
2.7947214076246336
2.87683284457478
2.945259042033236
3.0009775171065494
3.0449657869012707
3.071358748778104
3.085043988269794
3.096774193548387
3.103616813294233
3.103616813294233
3.0957966764418376
3.080156402737048
3.0547409579667644
3.0195503421309877
2.9745845552297165
2.920821114369501
2.859237536656892
2.795698924731183
2.730205278592375
2.656891495601173
2.5806451612903225
2.504398826979472
2.43108504398827
2.361681329423265
2.2981427174975564
2.2404692082111435
2.188660801564027
2.1436950146627565
2.104594330400782
2.070381231671554
2.042033235581622
2.0175953079178885
1.9931573802541545
1.9687194525904204
1.945259042033236
1.921798631476051
1.8993157380254155
1.8758553274682308
1.8514173998044965
1.8269794721407624
1.8035190615835777
1.7790811339198436
1.7565982404692082
1.7350928641251222
1.710654936461388
1.6842619745845553
1.6588465298142718
1.6334310850439884
1.6080156402737047
1.5826001955034212
1.5581622678396871
1.5327468230694037
1.5073313782991202
1.482893450635386
1.4594330400782014
1.439882697947214
1.4222873900293256
1.4037145650048877
1.3851417399804498
1.3665689149560116
1.3470185728250244
1.3294232649071358
1.3147605083088951
1.3010752688172045
1.2873900293255132
1.273704789833822
1.260019550342131
1.2502443792766371
1.2424242424242424
1.2336265884652982
1.2238514173998043
1.2150537634408602
1.2072336265884651
1.2003910068426198
1.1915933528836755
1.181818181818182
1.1730205278592376
1.164222873900293
1.1564027370478984
1.1485826001955035
1.144672531769306
1.142717497556207
1.1397849462365592
1.1368523949169111
1.1348973607038124
1.1319648093841643
1.1270772238514175
1.1231671554252198
1.118279569892473
1.1124144672531768
1.1065493646138806
1.099706744868035
1.0957966764418376
1.0928641251221896
1.0879765395894427
1.083088954056696
1.0801564027370478
1.083088954056696
1.0948191593352885
1.1202346041055715
1.163245356793744
1.227761485826002
1.3157380254154447
1.426197458455523
1.5542521994134897
1.6764418377321604
1.796676441837732
1.9335288367546437
2.0772238514174
2.217986314760508
2.3499511241446727
2.469208211143695
2.5747800586510263
2.665689149560117
2.7438905180840663
2.8103616813294234
2.863147605083089
2.897360703812317
2.916911045943304
2.9335288367546437
2.943304007820137
2.945259042033236
2.9393939393939394
2.9257086999022484
2.903225806451613
2.8719452590420333
2.83088954056696
2.780058651026393
2.720430107526881
2.652003910068426
2.58455522971652
2.5161290322580645
2.4408602150537635
2.3626588465298144
2.286412512218964
2.212121212121212
2.1417399804496577
2.0772238514174
2.018572825024438
1.9657869012707725
1.919843597262952
1.8807429130009776
1.8484848484848484
1.822091886608016
1.796676441837732
1.772238514173998
1.7487781036168133
1.7272727272727273
1.7057673509286413
1.6842619745845553
1.6627565982404693
1.640273704789834
1.616813294232649
1.5923753665689149
1.5669599217986314
1.544477028347996
1.5249266862170088
1.501466275659824
1.47702834799609
1.4516129032258065
1.426197458455523
1.3998044965786902
1.3734115347018572
1.3479960899315735
1.3235581622678396
1.300097751710655
1.2766373411534702
1.2590420332355816
1.24633431085044
1.23069403714565
1.2140762463343109
1.1974584555229717
1.181818181818182
1.1652003910068427
1.1495601173020529
1.1358748778103618
1.1221896383186705
1.1085043988269794
1.0957966764418376
1.0850439882697946
1.0801564027370478
1.0772238514173995
1.072336265884653
1.067448680351906
1.06158357771261
1.0557184750733135
1.0488758553274682
1.043010752688172
1.0371456500488758
1.032258064516129
1.0263929618768328
1.021505376344086
1.0195503421309873
1.0205278592375366
1.018572825024438
1.0156402737047898
1.0127077223851415
1.010752688172043
1.007820136852395
1.0058651026392962
1.002932551319648
1.0
0.997067448680352
0.9941348973607038
0.9941348973607038
0.9951124144672532
0.9951124144672532
0.9960899315738024
0.9980449657869012
1.0048875855327468
1.0224828934506354
1.0547409579667644
1.10752688172043
1.181818181818182
1.2795698924731185
1.3978494623655917
1.5317693059628543
1.6578690127077225
1.780058651026393
1.9188660801564028
2.06158357771261
2.19941348973607
2.3274682306940373
2.443792766373412
2.5454545454545454
2.632453567937439
2.702834799608993
2.760508308895406
2.8054740957966766
2.831867057673509
2.84652981427175
2.8582600195503423
2.8641251221896384
2.863147605083089
2.8533724340175954
2.811339198435973
2.748778103616813
2.695014662756598
2.6422287390029324
2.5855327468230693
2.52297165200391
2.455522971652004
2.3919843597262958
2.329423264907136
2.260997067448681
2.1915933528836757
2.12316715542522
2.058651026392962
1.9990224828934504
1.945259042033236
1.8963831867057677
1.8533724340175952
1.8172043010752688
1.7859237536656891
1.7624633431085044
1.7419354838709675
1.7223851417399805
1.704789833822092
1.6871945259042034
1.6686217008797657
1.6500488758553276
1.6314760508308896
1.6129032258064515
1.5933528836754642
1.5728250244379276
1.5532746823069403
1.5327468230694037
1.5141739980449658
1.4965786901270772
1.4750733137829912
1.4506353861192571
1.4252199413489737
1.3998044965786902
1.375366568914956
1.3509286412512218
1.3264907135874875
1.3040078201368523
1.2825024437927663
1.2619745845552297
1.2482893450635386
1.2365591397849462
1.2218963831867058
1.2072336265884651
1.1925708699902249
1.1788856304985338
1.1652003910068427
1.152492668621701
1.1397849462365592
1.1270772238514175
1.115347018572825
1.104594330400782
1.0957966764418376
1.0909090909090908
1.088954056695992
1.0850439882697946
1.0811339198435972
1.0762463343108504
1.0703812316715542
1.0635386119257086
1.0576735092864125
1.050830889540567
1.0449657869012707
1.040078201368524
1.035190615835777
1.0332355816226784
1.0332355816226784
1.0312805474095796
1.029325513196481
1.0273704789833822
1.0263929618768328
1.0263929618768328
1.0263929618768328
1.0263929618768328
1.024437927663734
1.021505376344086
1.0175953079178883
1.013685239491691
1.0127077223851415
1.013685239491691
1.013685239491691
1.018572825024438
1.032258064516129
1.0576735092864125
1.099706744868035
1.1622678396871946
1.24633431085044
1.3499511241446724
1.4711632453567938
1.606060606060606
1.7302052785923754
1.8484848484848484
1.9804496578690127
2.113391984359726
2.2404692082111435
2.356793743890518
2.4613880742913
2.5513196480938416
2.627565982404692
2.6901270772238512
2.739980449657869
2.7781036168132944
2.806451612903226
2.819159335288368
2.8211143695014664
2.819159335288368
2.8103616813294234
2.7947214076246336
2.7702834799608995
2.73802541544477
2.696969696969697
2.6480938416422286
2.590420332355816
2.525904203323558
2.4545454545454546
2.3870967741935485
2.321603128054741
2.251221896383187
2.1818181818181817
2.114369501466276
2.0518084066471163
1.994134897360704
1.9423264907135875
1.8973607038123168
1.8592375366568916
1.826001955034213
1.7976539589442817
1.7741935483870968
1.7556207233626588
1.7390029325513197
1.721407624633431
1.7038123167155426
1.686217008797654
1.667644183773216
1.6480938416422288
1.6285434995112416
1.607038123167155
1.58455522971652
1.5610948191593352
1.5376344086021505
1.517106549364614
1.4975562072336266
1.4760508308895406
1.4535679374389052
1.43108504398827
1.4086021505376345
1.3861192570869991
1.3636363636363635
1.3401759530791788
1.3176930596285434
1.295210166177908
1.2727272727272727
1.2502443792766371
1.2316715542521994
1.2150537634408602
1.1945259042033236
1.1720430107526882
1.1495601173020529
1.1251221896383188
1.1016617790811338
1.0791788856304985
1.0586510263929618
1.0381231671554252
1.018572825024438
1.0009775171065494
0.989247311827957
0.9824046920821116
0.9736070381231672
0.9648093841642228
0.9560117302052786
0.9491691104594332
0.9452590420332356
0.9442815249266864
0.946236559139785
0.9530791788856304
0.9628543499511242
0.9765395894428152
0.9921798631476052
1.0097751710654936
1.0283479960899315
1.0478983382209188
1.0664711632453567
1.0850439882697946
1.1016617790811338
1.1173020527859236
1.130987292277615
1.1436950146627567
1.1534701857282503
1.1612903225806452
1.166177908113392
1.1700879765395895
1.1730205278592376
1.1730205278592376
1.1720430107526882
1.1730205278592376
1.1788856304985338
1.1935483870967742
1.2209188660801564
1.2658846529814272
1.3304007820136852
1.41544477028348
1.520039100684262
1.6226783968719452
1.729227761485826
1.855327468230694
1.989247311827957
2.12316715542522
2.2502443792766376
2.3655913978494625
2.4682306940371457
2.5562072336265884
2.6285434995112413
2.686217008797654
2.730205278592375
2.7624633431085046
2.7781036168132944
2.782991202346041
2.782991202346041
2.777126099706745
2.7653958944281527
2.745845552297165
2.718475073313783
2.6823069403714563
2.638318670576735
2.5855327468230693
2.525904203323558
2.4613880742913
2.40078201368524
2.3411534701857284
2.27761485826002
2.2140762463343107
2.1544477028347995
2.0987292277614857
2.048875855327468
2.004887585532747
1.967741935483871
1.9364613880742916
1.9090909090909087
1.884652981427175
1.8641251221896384
1.847507331378299
1.8318670576735088
1.8142717497556209
1.7976539589442817
1.780058651026393
1.7624633431085044
1.7429130009775171
1.7223851417399805
1.7008797653958945
1.6774193548387095
1.6520039100684265
1.6265884652981428
1.6275659824046922
1.640273704789834
1.6304985337243405
1.6109481915933528
1.587487781036168
1.563049853372434
1.5395894428152492
1.5161290322580645
1.4926686217008798
1.4711632453567938
1.4506353861192571
1.43108504398827
1.4134897360703813
1.401759530791789
1.3919843597262953
1.3812316715542523
1.370478983382209
1.359726295210166
1.348973607038123
1.33822091886608
1.327468230694037
1.3176930596285434
1.3098729227761483
1.303030303030303
1.2981427174975562
1.2961876832844574
1.2981427174975562
1.3010752688172045
1.3049853372434017
1.3088954056695992
1.310850439882698
1.3118279569892473
1.3118279569892473
1.3118279569892473
1.3118279569892473
1.3118279569892473
1.3118279569892473
1.3118279569892473
1.3128054740957966
1.313782991202346
1.313782991202346
1.3128054740957966
1.3128054740957966
1.3128054740957966
1.3128054740957966
1.3128054740957966
1.3128054740957966
1.3128054740957966
1.3128054740957966
1.3128054740957966
1.3147605083088951
1.316715542521994
1.3176930596285434
1.3196480938416422
1.3225806451612905
1.3313782991202343
1.3509286412512218
1.3851417399804498
1.4379276637341154
1.512218963831867
1.6099706744868034
1.7282502443792769
1.8641251221896384
1.9902248289345064
2.112414467253177
2.251221896383187
2.3949169110459434
2.536656891495601
2.6695992179863146
2.791788856304985
2.8993157380254155
2.9931573802541545
3.0733137829912023
3.1407624633431084
3.196480938416422
3.231671554252199
3.254154447702835
3.275659824046921
3.2932551319648096
3.304007820136853
3.3069403714565007
3.3010752688172045
3.286412512218964
3.260997067448681
3.2267839687194524
3.1818181818181817
3.126099706744868
3.0635386119257086
3.0
2.9335288367546437
2.859237536656892
2.782013685239492
2.702834799608993
2.6236559139784945
2.548387096774193
2.47702834799609
2.410557184750733
2.3519061583577714
2.300097751710655
2.2551319648093844
2.218963831867057
2.1867057673509285
2.155425219941349
2.126099706744868
2.096774193548387
2.0664711632453567
2.037145650048876
2.005865102639296
1.9736070381231672
1.9423264907135875
1.911045943304008
1.8807429130009776
1.8494623655913975
1.822091886608016
1.796676441837732
1.7683284457478006
1.7390029325513197
1.710654936461388
1.6823069403714566
1.653958944281525
1.6265884652981428
1.6001955034213098
1.5747800586510263
1.5493646138807429
1.5239491691104594
1.5034213098729228
1.4848484848484849
