ppg
3.222873900293255
3.267839687194526
3.2844574780058653
3.278592375366569
3.2551319648093844
3.218963831867057
3.104594330400782
2.951124144672532
2.8475073313782997
2.768328445747801
2.699902248289345
2.636363636363636
2.573802541544477
2.5112414467253177
2.4486803519061584
2.386119257086999
2.32355816226784
2.2668621700879767
2.2130987292277613
2.156402737047898
2.099706744868035
2.043010752688172
1.9872922776148585
1.9335288367546437
1.8826979472140764
1.835777126099707
1.7927663734115349
1.75366568914956
1.718475073313783
1.6881720430107527
1.664711632453568
1.64613880742913
1.6265884652981428
1.6109481915933528
1.6011730205278591
1.5933528836754642
1.587487781036168
1.581622678396872
1.5757575757575757
1.5718475073313782
1.565982404692082
1.560117302052786
1.5571847507331378
1.5532746823069403
1.5464320625610948
1.5366568914956011
1.5268817204301075
1.520039100684262
1.5073313782991202
1.4887585532746823
1.4760508308895406
1.474095796676442
1.4897360703812317
1.5327468230694037
1.576735092864125
1.6471163245356797
1.76930596285435
1.9071358748778104
2.047898338220919
2.1788856304985336
2.291300097751711
2.377321603128055
2.4349951124144678
2.4652981427174976
2.472140762463343
2.4604105571847508
2.436950146627566
2.404692082111437
2.3626588465298144
2.314760508308896
2.2629521016617797
2.2082111436950145
2.1515151515151514
2.093841642228739
2.035190615835777
1.9765395894428155
1.916911045943304
1.857282502443793
1.7976539589442817
1.7458455522971652
1.6979472140762464
1.6451612903225807
1.5913978494623655
1.5376344086021505
1.4848484848484849
1.434017595307918
1.3870967741935485
1.3440860215053765
1.3049853372434017
1.2717497556207231
1.2434017595307918
1.2238514173998043
1.2101661779081134
1.1994134897360704
1.1925708699902249
1.1886608015640274
1.1896383186705768
1.1925708699902249
1.1974584555229717
1.203323558162268
1.209188660801564
1.2140762463343109
1.219941348973607
1.224828934506354
1.23069403714565
1.2365591397849462
1.2404692082111437
1.2434017595307918
1.2453567937438903
1.2453567937438903
1.241446725317693
1.2346041055718475
1.2267839687194526
1.2238514173998043
1.2346041055718475
1.267839687194526
1.316715542521994
1.3870967741935485
1.4926686217008798
1.624633431085044
1.7702834799608993
1.9149560117302051
2.046920821114369
2.155425219941349
2.236559139784946
2.2883675464320627
2.314760508308896
2.318670576735093
2.3059628543499517
2.283479960899316
2.2531769305962857
2.21505376344086
2.1710654936461387
2.1221896383186705
2.069403714565005
2.013685239491691
1.9560117302052784
1.895405669599218
1.833822091886608
1.7712609970674489
1.7086999022482894
1.653958944281525
1.6041055718475072
1.5493646138807429
1.4936461388074291
1.4389051808406648
1.3861192570869991
1.335288367546432
1.2873900293255132
1.2443792766373412
1.2052785923753666
1.1710654936461389
1.142717497556207
1.1192570869990224
1.104594330400782
1.096774193548387
1.088954056695992
1.0840664711632453
1.0821114369501466
1.0840664711632453
1.0879765395894427
1.093841642228739
1.1016617790811338
1.1114369501466277
1.121212121212121
1.1300097751710656
1.1397849462365592
1.1495601173020529
1.1564027370478984
1.1622678396871946
1.1652003910068427
1.166177908113392
1.164222873900293
1.1583577712609971
1.1505376344086022
1.1436950146627567
1.144672531769306
1.1612903225806452
1.2023460410557183
1.2590420332355816
1.335288367546432
1.4457478005865103
1.5777126099706744
1.7194525904203324
1.8563049853372435
1.9765395894428155
2.072336265884653
2.1407624633431084
2.1808406647116323
2.198435972629521
2.196480938416422
2.1818181818181817
2.158357771260997
2.1251221896383186
2.0840664711632453
2.038123167155425
1.9872922776148585
1.932551319648094
1.8748778103616808
1.8162267839687196
1.7565982404692082
1.696969696969697
1.6373411534701858
1.576735092864125
1.5249266862170088
1.47702834799609
1.423264907135875
1.3655913978494625
1.305962854349951
1.2453567937438903
1.1867057673509287
1.1300097751710656
1.075268817204301
1.0234604105571847
0.975562072336266
0.9335288367546432
0.9042033235581622
0.8836754643206256
0.8641251221896383
0.8484848484848485
0.8387096774193549
0.8347996089931574
0.8367546432062561
0.844574780058651
0.8572825024437928
0.8719452590420332
0.8866080156402737
0.9002932551319648
0.9149560117302052
0.9286412512218964
0.93841642228739
0.9452590420332356
0.9452590420332356
0.9452590420332356
0.9452590420332356
0.9452590420332356
0.9452590420332356
0.9452590420332356
0.9452590420332356
1.8299120234604105
1.7859237536656891
1.7438905180840665
1.7028347996089932
1.6549364613880744
1.6021505376344083
1.5493646138807429
1.4975562072336266
1.4486803519061584
1.401759530791789
1.3577712609970674
1.3176930596285434
1.2825024437927663
1.2512218963831867
1.2297165200391007
1.2150537634408602
1.2003910068426198
1.1886608015640274
1.1808406647116323
1.1779081133919844
1.1788856304985338
1.18475073313783
1.1935483870967742
1.203323558162268
1.2140762463343109
1.224828934506354
1.2355816226783969
1.2453567937438903
1.2561094819159335
1.2639296187683284
1.2697947214076246
1.2746823069403714
1.278592375366569
1.2805474095796676
1.2805474095796676
1.2766373411534702
1.2697947214076246
1.262952101661779
1.2619745845552297
1.270772238514174
1.2942326490713587
1.343108504398827
1.4193548387096775
1.5239491691104594
1.6490713587487782
1.7839687194525904
1.916911045943304
2.0361681329423265
2.132942326490713
2.2052785923753664
2.2521994134897363
2.2766373411534704
2.2844574780058653
2.278592375366569
2.2629521016617797
2.2375366568914954
2.204301075268817
2.164222873900293
2.1192570869990224
2.070381231671554
2.0175953079178885
1.962854349951124
1.906158357771261
1.8484848484848484
1.7996089931573802
1.7546432062561097
1.704789833822092
1.6520039100684265
1.6001955034213098
1.5493646138807429
1.500488758553275
1.452590420332356
1.4076246334310851
1.3665689149560116
1.3294232649071358
1.2971652003910068
1.2697947214076246
1.252199413489736
1.241446725317693
1.2316715542521994
1.224828934506354
1.2218963831867058
1.2228739002932552
1.2267839687194526
1.2336265884652982
1.2424242424242424
1.2531769305962854
1.2649071358748778
1.2766373411534702
1.2883675464320623
1.2991202346041055
1.3088954056695992
1.3157380254154447
1.3206256109481915
1.324535679374389
1.3255131964809383
1.324535679374389
1.3206256109481915
1.313782991202346
1.3069403714565004
1.305962854349951
1.3186705767350928
1.3440860215053765
1.3900293255131966
1.466275659824047
1.5718475073313782
1.7008797653958945
1.8416422287390029
1.9804496578690127
2.104594330400782
2.206256109481916
2.2825024437927666
2.332355816226784
2.3597262952101663
2.36950146627566
2.3655913978494625
2.350928641251222
2.3284457478005867
2.2991202346041058
2.2629521016617797
2.222873900293255
2.177908113391984
2.1300097751710654
2.0791788856304985
2.026392961876833
1.9726295210166176
1.9188660801564028
1.871945259042033
1.8299120234604105
1.7820136852394917
1.732160312805474
1.6823069403714566
1.6344086021505375
1.5884652981427174
1.5454545454545454
1.5053763440860215
1.469208211143695
1.4379276637341154
1.4105571847507332
1.3919843597262953
1.3792766373411536
1.3685239491691104
1.3607038123167154
1.356793743890518
1.3577712609970674
1.3636363636363635
1.3724340175953078
1.383186705767351
1.3958944281524928
1.4086021505376345
1.4193548387096775
1.4291300097751711
1.4389051808406648
1.4467253176930597
1.452590420332356
1.456500488758553
1.458455522971652
1.458455522971652
1.455522971652004
1.4496578690127078
1.439882697947214
1.4281524926686218
1.4193548387096775
1.4222873900293256
1.436950146627566
1.4711632453567938
1.5347018572825024
1.629521016617791
1.7497556207233629
1.884652981427175
2.021505376344086
2.1485826001955037
2.2551319648093844
2.3362658846529816
2.3929618768328447
2.426197458455523
2.439882697947214
2.4379276637341154
2.4252199413489737
2.403714565004888
2.3743890518084068
2.3382209188660803
2.297165200391007
2.2521994134897363
2.204301075268817
2.1544477028347995
2.103616813294233
2.0518084066471163
2.0
1.9550342130987293
1.9130009775171064
1.8670576735092863
1.8211143695014664
1.775171065493646
1.729227761485826
1.6852394916911049
1.643206256109482
1.6041055718475072
1.5679374389051808
1.5356793743890518
1.5073313782991202
1.4868035190615836
1.4721407624633431
1.4594330400782014
1.4506353861192571
1.4457478005865103
1.4457478005865103
1.4506353861192571
1.458455522971652
1.4672531769305963
1.478005865102639
1.4887585532746823
1.4975562072336266
1.5053763440860215
1.5131964809384164
1.5190615835777126
1.52297165200391
1.5249266862170088
1.5249266862170088
1.521994134897361
1.517106549364614
1.5102639296187683
1.499511241446725
1.4868035190615836
1.474095796676442
1.4682306940371457
1.4711632453567938
1.4887585532746823
1.5317693059628543
1.603128054740958
1.7018572825024438
1.823069403714565
1.9550342130987293
2.0840664711632453
2.20039100684262
2.2952101661779083
2.3655913978494625
2.4115347018572826
2.4349951124144678
2.4408602150537635
2.434017595307918
2.4173998044965788
2.3929618768328447
2.361681329423265
2.324535679374389
2.283479960899316
2.2385141739980448
2.1915933528836757
2.142717497556207
2.0928641251221896
2.043010752688172
1.9980449657869013
1.956989247311828
1.9618768328445748
1.9853372434017595
1.962854349951124
1.9188660801564028
1.866080156402737
1.8093841642228736
1.750733137829912
1.694037145650049
1.6412512218963833
1.5943304007820136
1.5542521994134897
1.5268817204301075
1.5083088954056696
1.4936461388074291
1.4858260019550342
1.4838709677419355
1.4868035190615836
1.495601173020528
1.5083088954056696
1.521994134897361
1.5366568914956011
1.5493646138807429
1.5610948191593352
1.5728250244379276
1.5826001955034212
1.5894428152492668
1.5933528836754642
1.5943304007820136
1.5923753665689149
1.587487781036168
1.5796676441837731
1.56891495601173
1.552297165200391
1.5317693059628543
1.512218963831867
1.500488758553275
1.5034213098729228
1.5288367546432062
1.587487781036168
1.6871945259042034
1.8269794721407624
1.9980449657869013
2.1837732160312804
2.367546432062561
2.5317693059628543
2.664711632453568
2.7624633431085046
2.8240469208211145
2.8533724340175954
2.8582600195503423
2.8455522971652005
2.817204301075269
2.777126099706745
2.727272727272727
2.6695992179863146
2.606060606060606
2.5386119257087
2.4682306940371457
2.396871945259042
2.324535679374389
2.251221896383187
2.187683284457478
2.129032258064516
2.064516129032258
1.9990224828934504
1.9335288367546437
1.8699902248289344
1.8093841642228736
1.750733137829912
1.6959921798631477
1.64613880742913
1.6011730205278591
1.5620723362658846
1.5347018572825024
1.5151515151515151
1.4965786901270772
1.4819159335288368
1.474095796676442
1.4731182795698925
1.478005865102639
1.4897360703812317
1.5063538611925709
1.525904203323558
1.547409579667644
1.5698924731182795
1.5913978494623655
1.6099706744868034
1.6256109481915937
1.6383186705767352
1.6480938416422288
1.6549364613880744
1.6588465298142718
1.6608015640273706
1.6598240469208212
1.656891495601173
1.651026392961877
1.640273704789834
1.6275659824046922
1.6187683284457477
1.6158357771260996
1.6265884652981428
1.6608015640273706
1.729227761485826
1.8377321603128052
1.9824046920821117
2.1524926686217007
2.333333333333333
2.50733137829912
2.659824046920821
2.780058651026393
2.866080156402737
2.913978494623656
2.9345063538611926
2.9374389051808407
2.9237536656891496
2.8963831867057674
2.8582600195503423
2.811339198435973
2.7565982404692084
2.696969696969697
2.632453567937439
2.565982404692082
2.4975562072336266
2.4349951124144678
2.375366568914956
2.3088954056695994
2.239491691104594
2.1700879765395893
2.1006842619745845
2.032258064516129
1.9667644183773216
1.903225806451613
1.8435972629521016
1.7898338220918866
1.7419354838709675
1.7008797653958945
1.672531769305963
1.6520039100684265
1.6334310850439884
1.6217008797653958
1.6158357771260996
1.6148582600195502
1.6187683284457477
1.6275659824046922
1.6392961876832846
1.6520039100684265
1.664711632453568
1.6764418377321604
1.6881720430107527
1.6989247311827955
1.70772238514174
1.7135874877810362
1.7165200391006843
1.7165200391006843
1.715542521994135
1.7126099706744868
1.70772238514174
1.699902248289345
1.6871945259042034
1.672531769305963
1.66177908113392
1.6578690127077225
1.664711632453568
1.6950146627565983
1.7595307917888563
1.865102639296188
2.0087976539589443
2.182795698924731
2.36950146627566
2.552297165200391
2.713587487781036
2.843597262952102
2.9374389051808407
2.9902248289345064
3.0117302052785924
3.0146627565982405
3.0
2.970674486803519
2.927663734115347
2.875855327468231
2.817204301075269
2.752688172043011
2.6832844574780057
2.610948191593353
2.5376344086021505
2.4711632453567938
2.407624633431085
2.3391984359726297
2.267839687194526
2.196480938416422
2.1251221896383186
2.0557184750733137
1.989247311827957
1.9257086999022484
1.866080156402737
1.8103616813294232
1.7595307917888563
1.715542521994135
1.683284457478006
1.6598240469208212
1.6392961876832846
1.6226783968719452
1.6129032258064515
1.6099706744868034
1.6129032258064515
1.6207233626588464
1.632453567937439
1.64613880742913
1.6598240469208212
1.6715542521994136
1.683284457478006
1.694037145650049
1.7028347996089932
1.7086999022482894
1.710654936461388
1.7096774193548387
1.7067448680351909
1.7008797653958945
1.6930596285434996
1.6813294232649072
1.664711632453568
1.6451612903225807
1.6265884652981428
1.616813294232649
1.6226783968719452
1.651026392961877
1.7135874877810362
1.8162267839687196
1.9579667644183771
2.129032258064516
2.314760508308896
2.4975562072336266
2.66177908113392
2.7947214076246336
2.8944281524926687
2.95405669599218
2.983382209188661
2.994134897360704
2.986314760508309
2.962854349951124
2.9266862170087977
2.878787878787879
2.823069403714565
2.7614858260019552
2.695014662756598
2.624633431085044
2.5532746823069403
2.4819159335288368
2.4173998044965788
2.356793743890518
2.290322580645161
2.222873900293255
2.155425219941349
2.088954056695992
2.024437927663734
1.9618768328445748
1.8084066471163245
1.6080156402737047
1.478983382209189
1.3890518084066472
1.3294232649071358
1.2883675464320623
1.2541544477028348
1.2287390029325511
1.2121212121212122
1.2052785923753666
1.2082111436950147
1.217008797653959
1.2297165200391007
1.2434017595307918
1.2570869990224829
1.270772238514174
1.2825024437927663
1.2932551319648091
1.3020527859237536
1.3079178885630498
1.310850439882698
1.310850439882698
1.3079178885630498
1.3010752688172045
1.2913000977517106
1.2766373411534702
1.2561094819159335
1.23069403714565
1.2043010752688172
1.187683284457478
1.1857282502443791
1.209188660801564
1.2746823069403714
1.3919843597262953
1.5610948191593352
1.7732160312805474
2.010752688172043
2.251221896383187
2.472140762463343
2.656891495601173
2.7966764418377323
2.8905180840664717
2.9393939393939394
2.956011730205278
2.952101661779081
2.9286412512218964
2.887585532746823
2.832844574780059
2.7673509286412514
2.6930596285435
2.611925708699902
2.5268817204301075
2.4379276637341154
2.347996089931574
2.267839687194526
2.1925708699902247
2.110459433040078
2.024437927663734
1.93841642228739
1.8523949169110456
1.76930596285435
1.6881720430107527
1.6099706744868034
1.5366568914956011
1.4672531769305963
1.404692082111437
1.3509286412512218
1.310850439882698
1.281524926686217
1.2570869990224829
1.2404692082111437
1.23069403714565
1.2297165200391007
1.2355816226783969
1.2453567937438903
1.2590420332355816
1.2746823069403714
1.2903225806451613
1.3049853372434017
1.3176930596285434
1.327468230694037
1.3343108504398826
1.3372434017595307
1.3372434017595307
1.3333333333333333
1.3264907135874875
1.316715542521994
1.3020527859237536
1.281524926686217
1.2541544477028348
1.2228739002932552
1.1945259042033236
1.176930596285435
1.1798631476050832
1.2130987292277615
1.2913000977517106
1.4222873900293256
1.6021505376344083
1.818181818181818
2.0518084066471163
2.2795698924731185
2.482893450635386
2.649071358748778
2.771260997067449
2.844574780058651
2.8807429130009776
2.89345063538612
2.8826979472140764
2.852394916911046
2.8054740957966766
2.744868035190616
2.673509286412512
2.5943304007820136
2.509286412512219
2.420332355816227
2.3284457478005867
2.2355816226783967
2.1524926686217007
2.0733137829912023
1.986314760508309
1.8973607038123168
1.8084066471163245
1.721407624633431
1.6392961876832846
1.560117302052786
1.4858260019550342
1.4173998044965788
1.3558162267839686
1.3010752688172045
1.2609970674486803
1.2297165200391007
1.2023460410557183
1.1808406647116323
1.1681329423264908
1.164222873900293
1.1691104594330402
1.1827956989247312
1.203323558162268
1.2267839687194526
1.252199413489736
1.2776148582600195
1.300097751710655
1.3206256109481915
1.3391984359726294
1.3548387096774193
1.3665689149560116
1.3743890518084063
1.3792766373411536
1.380254154447703
1.3782991202346042
1.3734115347018572
1.3655913978494625
1.35386119257087
1.3372434017595307
1.3225806451612905
1.310850439882698
1.3040078201368523
1.3157380254154447
1.3616813294232648
1.4545454545454546
1.598240469208211
1.7898338220918866
2.0146627565982405
2.2531769305962857
2.484848484848485
2.689149560117302
2.838709677419355
2.941348973607038
3.0195503421309877
3.0684261974584555
3.0879765395894427
3.081133919843597
3.0518084066471163
3.004887585532747
2.9442815249266863
2.873900293255132
2.792766373411535
2.7038123167155423
2.608993157380254
2.5190615835777126
2.4330400782013686
2.3382209188660803
2.2404692082111435
2.1417399804496577
2.0439882697947214
1.946236559139785
1.8504398826979471
1.7575757575757576
1.6705767350928642
1.587487781036168
1.5112414467253177
1.4516129032258065
1.404692082111437
1.359726295210166
1.321603128054741
1.2913000977517106
1.270772238514174
1.2609970674486803
1.260019550342131
1.2658846529814272
1.278592375366569
1.295210166177908
1.3128054740957966
1.3304007820136852
1.3470185728250244
1.3616813294232648
1.3734115347018572
1.380254154447703
1.3822091886608017
1.3792766373411536
1.3734115347018572
1.3636363636363635
1.3499511241446724
1.3333333333333333
1.313782991202346
1.289345063538612
1.2688172043010753
1.2531769305962854
1.2453567937438903
1.260019550342131
1.3128054740957966
1.414467253176931
1.56891495601173
1.7712609970674489
2.004887585532747
2.2482893450635384
2.479960899315738
2.681329423264907
2.8406647116324537
2.9442815249266863
3.005865102639296
3.043010752688172
3.053763440860215
3.040078201368524
3.004887585532747
2.952101661779081
2.8826979472140764
2.801564027370479
2.7116324535679373
2.6148582600195502
2.5141739980449658
2.4222873900293256
2.333333333333333
2.236559139784946
2.1358748778103616
2.035190615835777
1.9345063538611929
1.835777126099707
1.739980449657869
1.6480938416422288
1.560117302052786
1.478005865102639
1.4037145650048877
1.3372434017595307
1.2873900293255132
1.2502443792766371
1.176930596285435
1.0918866080156402
1.04594330400782
1.024437927663734
1.018572825024438
1.0234604105571847
1.0361681329423265
1.053763440860215
1.0713587487781036
1.0879765395894427
1.1026392961876832
1.1163245356793745
1.126099706744868
1.1329423264907137
1.1368523949169111
1.1358748778103618
1.1300097751710656
1.121212121212121
1.1085043988269794
1.0918866080156402
1.0694037145650048
1.0410557184750733
1.0087976539589445
0.9843597262952102
0.9726295210166178
0.9804496578690128
1.024437927663734
1.1202346041055715
1.273704789833822
1.479960899315738
1.7243401759530792
1.9853372434017595
2.2385141739980448
2.4613880742913
2.643206256109482
2.766373411534702
2.8426197458455524
2.8914956011730206
2.911045943304008
2.903225806451613
2.870967741935484
2.8181818181818183
2.7497556207233624
2.6695992179863146
2.579667644183773
2.4809384164222874
2.378299120234604
2.272727272727273
2.177908113391984
2.089931573802541
1.9931573802541545
1.8934506353861196
1.7927663734115349
1.694037145650049
1.5972629521016617
1.504398826979472
1.4164222873900294
1.332355816226784
1.2541544477028348
1.1837732160312806
1.1300097751710656
1.088954056695992
1.0518084066471165
1.021505376344086
1.0009775171065494
0.9912023460410556
0.9902248289345064
0.9951124144672532
1.0048875855327468
1.018572825024438
1.0332355816226784
1.0488758553274682
1.064516129032258
1.0791788856304985
1.0909090909090908
1.0987292277614855
1.1026392961876832
1.1016617790811338
1.096774193548387
1.0869990224828934
1.0742913000977516
1.0586510263929618
1.0371456500488758
1.0097751710654936
0.978494623655914
0.9521016617790812
0.9345063538611924
0.9266862170087976
0.946236559139785
1.0117302052785924
1.133919843597263
1.313782991202346
1.543499511241447
1.804496578690127
2.072336265884653
2.321603128054741
2.535679374389052
2.6881720430107525
2.789833822091887
2.8641251221896384
2.903225806451613
2.9100684261974585
2.8905180840664717
2.8475073313782997
2.7869012707722387
2.710654936461388
2.6236559139784945
2.5288367546432062
2.4271749755620724
2.321603128054741
2.225806451612903
2.133919843597263
2.0332355816226784
1.9286412512218964
1.823069403714565
1.718475073313783
1.616813294232649
1.5151515151515151
1.41544477028348
1.3206256109481915
1.2316715542521994
1.1505376344086022
1.0879765395894427
1.0381231671554252
0.9912023460410556
0.9511241446725318
0.9208211143695014
0.8983382209188661
0.8856304985337243
0.8807429130009775
0.8836754643206256
0.8914956011730205
0.9022482893450636
0.9130009775171064
0.9227761485826002
0.9335288367546432
0.9433040078201368
0.9491691104594332
0.9511241446725318
0.9491691104594332
0.9442815249266864
0.9364613880742912
0.9257086999022482
0.913978494623656
0.9002932551319648
0.8836754643206256
0.8621700879765396
0.8426197458455523
0.823069403714565
0.7976539589442815
0.7781036168132942
0.7771260997067448
0.8123167155425219
0.8983382209188661
1.043010752688172
1.241446725317693
1.482893450635386
1.7458455522971652
2.006842619745845
2.244379276637341
2.4242424242424243
2.5542521994134897
2.659824046920821
2.732160312805474
2.7702834799608995
2.7781036168132944
2.7614858260019552
2.724340175953079
2.668621700879765
2.5972629521016617
2.5131964809384164
2.420332355816227
2.3313782991202348
2.243401759530792
2.1436950146627565
2.038123167155425
1.9315738025415443
1.825024437927664
1.7194525904203324
1.6148582600195502
1.512218963831867
1.412512218963832
1.3176930596285434
1.2287390029325511
1.147605083088954
1.086021505376344
1.0391006842619743
0.9980449657869012
0.9667644183773216
0.9481915933528836
0.9413489736070382
0.9452590420332356
0.9579667644183774
0.978494623655914
1.0039100684261977
1.032258064516129
1.0606060606060606
1.086021505376344
1.1065493646138806
1.1251221896383188
1.1397849462365592
1.1495601173020529
1.155425219941349
1.1573802541544478
1.1544477028347997
1.147605083088954
1.1368523949169111
1.1231671554252198
1.1055718475073313
1.0840664711632453
1.064516129032258
1.04594330400782
1.0273704789833822
1.0205278592375366
1.0410557184750733
1.1026392961876832
1.217008797653959
1.3851417399804498
1.5992179863147604
1.842619745845552
2.093841642228739
2.3304007820136854
2.5131964809384164
2.649071358748778
2.763440860215054
2.8426197458455524
2.884652981427175
2.89345063538612
2.8729227761485827
2.8289345063538613
2.764418377321604
2.6832844574780057
2.589442815249267
2.484848484848485
2.372434017595308
2.2688172043010755
2.16911045943304
2.059628543499511
1.945259042033236
1.828934506353861
1.7135874877810362
1.6001955034213098
1.490713587487781
1.3841642228739004
1.2825024437927663
1.187683284457478
