ppg
1.5679374389051808
1.5366568914956011
1.509286412512219
1.4926686217008798
1.490713587487781
1.509286412512219
1.5571847507331378
1.640273704789834
1.7595307917888563
1.9100684261974583
2.081133919843597
2.260019550342131
2.4301075268817205
2.578690127077224
2.697947214076246
2.7839687194525906
2.832844574780059
2.852394916911046
2.852394916911046
2.8367546432062563
2.807429130009776
2.764418377321604
2.7126099706744866
2.6559139784946235
2.5972629521016617
2.5386119257087
2.479960899315738
2.423264907135875
2.3714565004887587
2.320625610948192
2.264907135874878
2.2082111436950145
2.1515151515151514
2.096774193548387
2.0410557184750733
1.9843597262952104
1.9266862170087975
1.870967741935484
1.8191593352883677
1.7712609970674489
1.7331378299120237
1.7028347996089932
1.678396871945259
1.6637341153470186
1.6608015640273706
1.6715542521994136
1.6920821114369502
1.7194525904203324
1.7487781036168133
1.7761485826001957
1.801564027370479
1.8201368523949168
1.83088954056696
1.8347996089931573
1.8328445747800584
1.825024437927664
1.8113391984359728
1.793743890518084
1.7732160312805474
1.7497556207233629
1.7223851417399805
1.6911045943304008
1.6598240469208212
1.629521016617791
1.6001955034213098
1.5747800586510263
1.5483870967741935
1.517106549364614
1.4838709677419355
1.4457478005865103
1.4076246334310851
1.375366568914956
1.3558162267839686
1.356793743890518
1.388074291300098
1.455522971652004
1.560117302052786
1.696969696969697
1.8328445747800584
1.9687194525904204
2.120234604105572
2.2658846529814274
2.3919843597262958
2.490713587487781
2.5591397849462365
2.598240469208211
2.6099706744868034
2.60019550342131
2.573802541544477
2.535679374389052
2.493646138807429
2.449657869012708
2.3978494623655915
2.3411534701857284
2.2825024437927666
2.2238514173998043
2.167155425219941
2.110459433040078
2.0518084066471163
1.992179863147605
1.9335288367546437
1.8748778103616808
1.8172043010752688
1.7663734115347018
1.718475073313783
1.6637341153470186
1.6080156402737047
1.5532746823069403
1.504398826979472
1.4623655913978495
1.4320625610948192
1.41544477028348
1.4134897360703813
1.4242424242424243
1.4457478005865103
1.469208211143695
1.4946236559139785
1.52297165200391
1.5513196480938416
1.5777126099706744
1.598240469208211
1.611925708699902
1.6177908113391983
1.6158357771260996
1.6080156402737047
1.5943304007820136
1.5777126099706744
1.5581622678396871
1.5405669599217986
1.521994134897361
1.499511241446725
1.4750733137829912
1.4467253176930597
1.41544477028348
1.3841642228739004
1.35386119257087
1.321603128054741
1.2864125122189638
1.2502443792766371
1.2189638318670577
1.2013685239491692
1.1974584555229717
1.2101661779081134
1.2512218963831867
1.3284457478005864
1.4428152492668622
1.5865102639296187
1.750733137829912
1.9227761485826005
2.086021505376344
2.2297165200391005
2.346041055718475
2.432062561094819
2.4838709677419355
2.50733137829912
2.5131964809384164
2.5024437927663734
2.47702834799609
2.4408602150537635
2.398826979472141
2.3499511241446727
2.2961876832844577
2.2404692082111435
2.1837732160312804
2.1251221896383186
2.071358748778104
2.0205278592375366
1.964809384164223
1.90811339198436
1.8514173998044965
1.796676441837732
1.7409579667644184
1.6823069403714566
1.6236559139784943
1.5679374389051808
1.517106549364614
1.4711632453567938
1.43108504398827
1.4027370478983383
1.3851417399804498
1.3763440860215057
1.3792766373411536
1.393939393939394
1.4193548387096775
1.4516129032258065
1.4858260019550342
1.5190615835777126
1.5493646138807429
1.576735092864125
1.598240469208211
1.611925708699902
1.6207233626588464
1.6226783968719452
1.616813294232649
1.606060606060606
1.5913978494623655
1.573802541544477
1.5542521994134897
1.5317693059628543
1.5102639296187683
1.4887585532746823
1.4652981427174976
1.4418377321603129
1.4222873900293256
1.4037145650048877
1.3782991202346042
1.3509286412512218
1.3235581622678396
1.303030303030303
1.2961876832844574
1.310850439882698
1.3558162267839686
1.4389051808406648
1.5591397849462365
1.7086999022482894
1.8543499511241448
1.9980449657869013
2.155425219941349
2.3069403714565007
2.4379276637341154
2.539589442815249
2.608993157380254
2.649071358748778
2.6637341153470184
2.6578690127077222
2.635386119257087
2.601173020527859
2.560117302052786
2.5190615835777126
2.4750733137829912
2.4252199413489737
2.3734115347018574
2.321603128054741
2.2688172043010755
2.21505376344086
2.161290322580645
2.10850439882698
2.0557184750733137
2.003910068426197
1.9530791788856303
1.9071358748778104
1.8621700879765395
1.8132942326490715
1.7653958944281525
1.7204301075268815
1.6803519061583578
1.651026392961877
1.6314760508308896
1.6236559139784943
1.6285434995112416
1.643206256109482
1.6666666666666667
1.6950146627565983
1.7223851417399805
1.747800586510264
1.775171065493646
1.8005865102639296
1.8172043010752688
1.8269794721407624
1.8347996089931573
1.835777126099707
1.83088954056696
1.8201368523949168
1.8054740957966764
1.7878787878787878
1.7712609970674489
1.7556207233626588
1.7360703812316716
1.7145650048875856
1.6920821114369502
1.6686217008797657
1.643206256109482
1.616813294232649
1.5884652981427174
1.5591397849462365
1.5317693059628543
1.5102639296187683
1.499511241446725
1.5053763440860215
1.5376344086021505
1.606060606060606
1.710654936461388
1.8465298142717497
2.006842619745845
2.176930596285435
2.3411534701857284
2.487781036168133
2.6070381231671558
2.6930596285435
2.745845552297165
2.7673509286412514
2.766373411534702
2.750733137829912
2.7223851417399803
2.684261974584555
2.6402737047898337
2.590420332355816
2.536656891495601
2.4819159335288368
2.4271749755620724
2.3714565004887587
2.314760508308896
2.2639296187683287
2.2160312805474094
2.1652003910068425
2.113391984359726
2.06158357771261
2.010752688172043
1.959921798631476
1.90811339198436
1.8543499511241448
1.8005865102639296
1.7517106549364614
1.70772238514174
1.6715542521994136
1.6490713587487782
1.6373411534701858
1.635386119257087
1.643206256109482
1.6608015640273706
1.686217008797654
1.7145650048875856
1.7419354838709675
1.7644183773216031
1.7820136852394917
1.793743890518084
1.796676441837732
1.793743890518084
1.7859237536656891
1.7741935483870968
1.758553274682307
1.739980449657869
1.718475073313783
1.6950146627565983
1.6686217008797657
1.640273704789834
1.6099706744868034
1.5777126099706744
1.544477028347996
1.5102639296187683
1.482893450635386
1.457478005865103
1.4252199413489737
1.391006842619746
1.359726295210166
1.3391984359726294
1.3362658846529814
1.3607038123167154
1.4173998044965788
1.5102639296187683
1.6363636363636365
1.7859237536656891
1.9257086999022484
2.0547409579667644
2.188660801564027
2.3098729227761488
2.407624633431085
2.4760508308895406
2.515151515151515
2.5268817204301075
2.5161290322580645
2.489736070381232
2.4516129032258065
2.404692082111437
2.3528836754643208
2.302052785923754
2.2531769305962857
2.19941348973607
2.1436950146627565
2.0869990224828934
2.032258064516129
1.978494623655914
1.9237536656891496
1.869012707722385
1.8142717497556209
1.758553274682307
1.7018572825024438
1.653958944281525
1.6099706744868034
1.560117302052786
1.5102639296187683
1.4643206256109482
1.426197458455523
1.3998044965786902
1.3841642228739004
1.3792766373411536
1.388074291300098
1.4066471163245358
1.4320625610948192
1.4613880742913
1.4887585532746823
1.5141739980449658
1.5376344086021505
1.5562072336265884
1.5679374389051808
1.5728250244379276
1.5718475073313782
1.564027370478983
1.5513196480938416
1.533724340175953
1.512218963831867
1.4897360703812317
1.4701857282502444
1.4516129032258065
1.4281524926686218
1.401759530791789
1.3734115347018572
1.3450635386119256
1.3176930596285434
1.2873900293255132
1.2541544477028348
1.2209188660801564
1.1935483870967742
1.1749755620723363
1.173998044965787
1.1906158357771262
1.23069403714565
1.3079178885630498
1.4193548387096775
1.5581622678396871
1.7145650048875856
1.87683284457478
2.0303030303030303
2.1622678396871944
2.2668621700879767
2.3421309872922778
2.388074291300098
2.407624633431085
2.4056695992179864
2.3870967741935485
2.357771260997068
2.3196480938416424
2.274682306940372
2.2238514173998043
2.1710654936461387
2.118279569892473
2.065493646138808
2.0097751710654936
1.9560117302052784
1.903225806451613
1.8563049853372435
1.8132942326490715
1.7673509286412512
1.718475073313783
1.667644183773216
1.6148582600195502
1.5620723362658846
1.5112414467253177
1.4643206256109482
1.4213098729227762
1.3841642228739004
1.356793743890518
1.3421309872922775
1.3391984359726294
1.3440860215053765
1.3587487781036167
1.380254154447703
1.4086021505376345
1.4389051808406648
1.4682306940371457
1.495601173020528
1.5180840664711632
1.5356793743890518
1.5464320625610948
1.5503421309872922
1.5513196480938416
1.5493646138807429
1.542521994134897
1.5317693059628543
1.517106549364614
1.500488758553275
1.4819159335288368
1.4604105571847508
1.4389051808406648
1.4164222873900294
1.391006842619746
1.3636363636363635
1.3421309872922775
1.3225806451612905
1.2991202346041055
1.2756598240469208
1.260019550342131
1.2590420332355816
1.281524926686217
1.335288367546432
1.4252199413489737
1.5503421309872922
1.699902248289345
1.8631476050830889
2.027370478983382
2.164222873900293
2.2737047898338223
2.372434017595308
2.447702834799609
2.4975562072336266
2.5219941348973607
2.5249266862170088
2.5112414467253177
2.484848484848485
2.4486803519061584
2.406647116324536
2.360703812316716
2.315738025415445
2.269794721407625
2.220918866080156
2.172043010752688
2.124144672531769
2.0762463343108504
2.0283479960899315
1.981427174975562
1.9345063538611929
1.8866080156402736
1.8377321603128052
1.7898338220918866
1.747800586510264
1.7096774193548387
1.6705767350928642
1.6314760508308896
1.595307917888563
1.5679374389051808
1.5513196480938416
1.5483870967741935
1.5581622678396871
1.5796676441837731
1.6109481915933528
1.6490713587487782
1.689149560117302
1.7233626588465298
1.7517106549364614
1.775171065493646
1.7917888563049853
1.801564027370479
1.804496578690127
1.7996089931573802
1.7898338220918866
1.7771260997067448
1.7624633431085044
1.7438905180840665
1.7223851417399805
1.7018572825024438
1.6793743890518085
1.6549364613880744
1.6304985337243405
1.606060606060606
1.581622678396872
1.5542521994134897
1.5249266862170088
1.495601173020528
1.4701857282502444
1.4535679374389052
1.456500488758553
1.4887585532746823
1.541544477028348
1.6217008797653958
1.7448680351906158
1.900293255131965
2.074291300097752
2.249266862170088
2.4115347018572826
2.548387096774193
2.6510263929618767
2.719452590420332
2.7546432062561097
2.7624633431085046
2.7517106549364616
2.7253176930596283
2.6852394916911044
2.634408602150537
2.578690127077224
2.5190615835777126
2.4574780058651027
2.396871945259042
2.337243401759531
2.280547409579668
2.2277614858260018
2.174975562072336
2.1221896383186705
2.074291300097752
2.029325513196481
1.981427174975562
1.9305962854349952
1.8758553274682308
1.8201368523949168
1.7653958944281525
1.7135874877810362
1.6686217008797657
1.6314760508308896
1.6041055718475072
1.5894428152492668
1.585532746823069
1.5923753665689149
1.6080156402737047
1.6304985337243405
1.6588465298142718
1.6871945259042034
1.7135874877810362
1.737047898338221
1.7526881720430108
1.758553274682307
1.758553274682307
1.7517106549364614
1.7390029325513197
1.7243401759530792
1.70772238514174
1.6852394916911049
1.6578690127077225
1.629521016617791
1.6011730205278591
1.5718475073313782
1.541544477028348
1.5102639296187683
1.478005865102639
1.444770283479961
1.4105571847507332
1.3792766373411536
1.3509286412512218
1.3196480938416422
1.29227761485826
1.2776148582600195
1.2864125122189638
1.327468230694037
1.4056695992179864
1.521994134897361
1.6695992179863148
1.8347996089931573
2.0019550342130987
2.158357771260997
2.280547409579668
2.372434017595308
2.447702834799609
2.4975562072336266
2.5210166177908118
2.520039100684262
2.5004887585532747
2.4652981427174976
2.418377321603128
2.363636363636364
2.3059628543499517
2.247311827956989
2.1945259042033234
2.145650048875855
2.0928641251221896
2.038123167155425
1.9824046920821117
1.9266862170087975
1.869012707722385
1.812316715542522
1.7556207233626588
1.6979472140762464
1.640273704789834
1.581622678396872
1.525904203323558
1.4838709677419355
1.4506353861192571
1.4193548387096775
1.3949169110459434
1.380254154447703
1.3763440860215057
1.3841642228739004
1.4027370478983383
1.4291300097751711
1.458455522971652
1.487781036168133
1.5161290322580645
1.5405669599217986
1.5591397849462365
1.5718475073313782
1.5796676441837731
1.5806451612903225
1.5747800586510263
1.564027370478983
1.547409579667644
1.5249266862170088
1.500488758553275
1.4760508308895406
1.4516129032258065
1.4271749755620724
1.4076246334310851
1.3890518084066472
1.3665689149560116
1.3421309872922775
1.3147605083088951
1.2864125122189638
1.2570869990224829
1.227761485826002
1.2023460410557183
1.1886608015640274
1.1964809384164223
1.2355816226783969
1.2971652003910068
1.3851417399804498
1.5151515151515151
1.6744868035190617
1.8455522971652003
2.0127077223851417
2.163245356793744
2.289345063538612
2.3822091886608017
2.443792766373412
2.4760508308895406
2.482893450635386
2.469208211143695
2.442815249266862
2.407624633431085
2.363636363636364
2.312805474095797
2.2580645161290325
2.201368523949169
2.144672531769306
2.089931573802541
2.035190615835777
1.9824046920821117
1.9315738025415443
1.8797653958944285
1.8347996089931573
1.7927663734115349
1.7448680351906158
1.6950146627565983
1.6441837732160314
1.5933528836754642
1.544477028347996
1.499511241446725
1.4594330400782014
1.4271749755620724
1.4066471163245358
1.3998044965786902
1.404692082111437
1.4193548387096775
1.4428152492668622
1.4731182795698925
1.5073313782991202
1.543499511241447
1.5777126099706744
1.6050830889540566
1.6236559139784943
1.6344086021505375
1.6383186705767352
1.635386119257087
1.6285434995112416
1.6226783968719452
1.616813294232649
1.607038123167155
1.5923753665689149
1.573802541544477
1.5503421309872922
1.5239491691104594
1.4975562072336266
1.4721407624633431
1.4467253176930597
1.4222873900293256
1.3949169110459434
1.370478983382209
1.3509286412512218
1.332355816226784
1.3235581622678396
1.335288367546432
1.3763440860215057
1.4545454545454546
1.5708699902248289
1.718475073313783
1.884652981427175
2.058651026392962
2.2267839687194524
2.3743890518084068
2.482893450635386
2.558162267839687
2.6148582600195502
2.650048875855328
2.662756598240469
2.670576735092864
2.6695992179863146
2.644183773216031
2.603128054740958
2.552297165200391
2.496578690127077
2.439882697947214
2.388074291300098
2.340175953079179
2.291300097751711
2.2404692082111435
2.188660801564027
2.1378299120234603
2.088954056695992
2.038123167155425
1.9853372434017595
1.932551319648094
1.8797653958944285
1.827956989247312
1.7790811339198436
1.7390029325513197
1.7067448680351909
1.6774193548387095
1.6559139784946235
1.64613880742913
1.6500488758553276
1.664711632453568
1.689149560117302
1.7223851417399805
1.758553274682307
1.7927663734115349
1.8240469208211143
1.8484848484848484
1.868035190615836
1.8836754643206255
1.8944281524926687
1.8973607038123168
1.89247311827957
1.8807429130009776
1.8641251221896384
1.842619745845552
1.8172043010752688
1.7917888563049853
1.7663734115347018
1.739980449657869
1.7174975562072337
1.696969696969697
1.672531769305963
1.6441837732160314
1.6129032258064515
1.5806451612903225
1.5483870967741935
1.521994134897361
1.5112414467253177
1.5278592375366569
1.5835777126099706
1.6813294232649072
1.7917888563049853
1.920821114369501
2.088954056695992
2.271749755620724
2.4486803519061584
2.6041055718475072
2.729227761485826
2.8181818181818183
2.870967741935484
2.8905180840664717
2.884652981427175
2.8582600195503423
2.814271749755621
2.764418377321604
2.710654936461388
2.6510263929618767
2.589442815249267
2.5268817204301075
2.4652981427174976
2.4056695992179864
2.347996089931574
2.2932551319648096
2.239491691104594
2.185728250244379
2.1309872922776147
2.081133919843597
2.03128054740958
1.9736070381231672
1.9130009775171064
1.8523949169110456
1.7947214076246334
1.7409579667644184
1.694037145650049
1.6588465298142718
1.6373411534701858
1.629521016617791
1.632453567937439
1.6441837732160314
1.66177908113392
1.6852394916911049
1.7145650048875856
1.7419354838709675
1.7644183773216031
1.7810361681329423
1.790811339198436
1.7927663734115349
1.7888563049853372
1.780058651026393
1.7663734115347018
1.747800586510264
1.7282502443792769
1.7057673509286413
1.675464320625611
1.6422287390029326
1.607038123167155
1.5708699902248289
1.5356793743890518
1.500488758553275
1.4643206256109482
1.4281524926686218
1.3900293255131966
1.3499511241446724
1.3118279569892473
1.284457478005865
1.2697947214076246
1.2688172043010753
1.295210166177908
1.3558162267839686
1.455522971652004
1.5933528836754642
1.758553274682307
1.9374389051808407
2.115347018572825
2.2766373411534704
2.410557184750733
2.5004887585532747
2.555229716520039
2.587487781036168
2.5962854349951123
2.58455522971652
2.5562072336265884
2.5131964809384164
2.4613880742913
2.403714565004888
2.3421309872922778
2.2795698924731185
2.2160312805474094
2.1544477028347995
2.101661779081134
2.0527859237536656
1.997067448680352
1.93841642228739
1.87683284457478
1.8162267839687196
1.7556207233626588
1.694037145650049
1.6314760508308896
1.5708699902248289
1.5161290322580645
1.466275659824047
1.4281524926686218
1.3998044965786902
1.3763440860215057
1.3626588465298142
1.3626588465298142
1.3743890518084063
1.396871945259042
1.4252199413489737
1.4545454545454546
1.482893450635386
1.5073313782991202
1.5288367546432062
1.5464320625610948
1.5591397849462365
1.5650048875855327
1.564027370478983
1.5562072336265884
1.541544477028348
1.521994134897361
1.4975562072336266
1.4711632453567938
1.444770283479961
1.418377321603128
1.3919843597262953
1.364613880742913
1.3401759530791788
1.3176930596285434
1.2903225806451613
1.2590420332355816
1.2238514173998043
1.187683284457478
1.1564027370478984
1.1358748778103618
1.1329423264907137
1.1612903225806452
1.2267839687194526
1.3304007820136852
1.4486803519061584
1.5806451612903225
1.7448680351906158
1.921798631476051
2.0928641251221896
2.242424242424242
2.361681329423265
2.4486803519061584
2.5024437927663734
2.5268817204301075
2.525904203323558
2.5034213098729228
2.464320625610948
2.421309872922776
2.3743890518084068
2.3196480938416424
2.260019550342131
2.198435972629521
2.1378299120234603
2.078201368523949
2.0205278592375366
1.9657869012707725
1.9120234604105573
1.857282502443793
1.801564027370479
1.7526881720430108
1.7067448680351909
1.6559139784946235
1.603128054740958
1.5493646138807429
1.4965786901270772
1.447702834799609
1.4066471163245358
1.3773216031280548
1.359726295210166
1.3558162267839686
1.367546432062561
1.3900293255131966
1.4173998044965788
1.447702834799609
1.482893450635386
1.5180840664711632
1.5513196480938416
1.5796676441837731
1.6001955034213098
1.6138807429130009
1.6177908113391983
1.6138807429130009
1.6041055718475072
1.5894428152492668
1.5747800586510263
1.5610948191593352
1.542521994134897
1.520039100684262
1.495601173020528
1.4711632453567938
1.4486803519061584
1.4252199413489737
1.4007820136852396
1.3743890518084063
1.3440860215053765
1.3118279569892473
1.2854349951124144
1.2717497556207231
1.2727272727272727
1.295210166177908
1.3499511241446724
1.4418377321603129
1.5708699902248289
1.729227761485826
1.9071358748778104
2.0879765395894427
2.259042033235582
2.4086021505376345
2.525904203323558
2.6041055718475072
2.6510263929618767
2.67644183773216
2.679374389051808
2.662756598240469
2.631476050830889
2.590420332355816
2.544477028347996
2.495601173020528
2.444770283479961
2.391006842619746
2.3362658846529816
2.2825024437927666
2.2346041055718477
2.190615835777126
2.1436950146627565
2.0977517106549364
2.048875855327468
1.9980449657869013
1.9472140762463344
1.8963831867057677
1.8455522971652003
1.7956989247311828
1.747800586510264
1.7038123167155426
1.6695992179863148
1.64613880742913
1.6314760508308896
1.6265884652981428
1.632453567937439
1.651026392961877
1.6803519061583578
1.7165200391006843
1.7526881720430108
1.7859237536656891
1.8162267839687196
1.8406647116324533
1.8563049853372435
1.866080156402737
1.869012707722385
1.8670576735092863
1.858260019550342
1.8435972629521016
1.825024437927664
1.8035190615835777
1.780058651026393
1.7556207233626588
1.7302052785923754
1.704789833822092
1.6793743890518085
1.6578690127077225
1.6392961876832846
1.6177908113391983
1.5884652981427174
1.5532746823069403
1.5180840664711632
1.490713587487781
1.478983382209189
1.4965786901270772
1.5513196480938416
1.6451612903225807
1.7771260997067448
1.9403714565004888
2.0948191593352883
2.239491691104594
2.3929618768328447
2.5347018572825024
2.652003910068426
2.736070381231672
2.7859237536656893
2.8044965786901277
2.7966764418377323
2.7702834799608995
2.730205278592375
2.6823069403714563
2.633431085043988
2.5835777126099706
2.527859237536657
2.4711632453567938
2.4134897360703813
2.3548387096774195
2.2961876832844577
2.2375366568914954
2.1788856304985336
2.120234604105572
2.0625610948191597
2.006842619745845
1.951124144672532
1.900293255131965
1.8523949169110456
1.7986314760508308
1.7468230694037146
1.6979472140762464
1.6559139784946235
1.6256109481915937
1.608993157380254
1.606060606060606
1.6138807429130009
1.6285434995112416
1.6500488758553276
1.672531769305963
1.694037145650049
1.7165200391006843
1.7360703812316716
1.750733137829912
1.7595307917888563
1.7624633431085044
1.7595307917888563
1.7487781036168133
1.732160312805474
1.710654936461388
1.686217008797654
1.6578690127077225
1.6314760508308896
1.6080156402737047
1.581622678396872
1.552297165200391
1.521016617790811
1.487781036168133
1.4535679374389052
1.418377321603128
1.380254154447703
1.3401759530791788
1.3020527859237536
1.2717497556207231
1.2551319648093842
1.2580645161290325
1.2873900293255132
1.3509286412512218
1.4516129032258065
1.585532746823069
1.7448680351906158
1.9159335288367547
2.086021505376344
2.241446725317693
2.36950146627566
2.464320625610948
2.5210166177908118
2.548387096774193
2.555229716520039
2.5434995112414467
2.5161290322580645
2.4750733137829912
2.4271749755620724
2.3734115347018574
2.315738025415445
2.2561094819159337
2.1955034213098727
2.1358748778103616
2.078201368523949
2.027370478983382
1.9824046920821117
1.9345063538611929
1.881720430107527
1.826001955034213
1.7702834799608993
1.7145650048875856
1.6578690127077225
1.6001955034213098
1.544477028347996
1.4916911045943304
1.4467253176930597
1.4164222873900294
1.3988269794721409
1.388074291300098
1.3890518084066472
1.4027370478983383
1.4252199413489737
1.4516129032258065
1.479960899315738
1.5073313782991202
1.530791788856305
1.5513196480938416
1.5679374389051808
1.5806451612903225
1.5894428152492668
1.5923753665689149
1.587487781036168
1.5757575757575757
1.560117302052786
1.5405669599217986
1.517106549364614
1.4916911045943304
1.4652981427174976
1.439882697947214
1.412512218963832
1.3822091886608017
1.3558162267839686
1.332355816226784
1.3040078201368523
1.2717497556207231
1.2394916911045943
1.209188660801564
1.1867057673509287
1.181818181818182
1.2043010752688172
1.2619745845552297
1.356793743890518
1.487781036168133
1.64613880742913
1.796676441837732
1.9393939393939397
2.0928641251221896
2.2346041055718477
2.3528836754643208
2.4408602150537635
2.4975562072336266
2.5249266862170088
2.527859237536657
2.5112414467253177
2.4789833822091887
2.4359726295210167
