ppg
1.1808406647116323
1.176930596285435
1.173998044965787
1.1730205278592376
1.1759530791788857
1.181818181818182
1.1867057673509287
1.1906158357771262
1.1935483870967742
1.1945259042033236
1.1935483870967742
1.1915933528836755
1.1886608015640274
1.1837732160312806
1.1779081133919844
1.1720430107526882
1.1691104594330402
1.166177908113392
1.1593352883675463
1.1505376344086022
1.141739980449658
1.133919843597263
1.130987292277615
1.1358748778103618
1.1534701857282503
1.1915933528836755
1.2541544477028348
1.3440860215053765
1.4418377321603129
1.5532746823069403
1.6950146627565983
1.857282502443793
2.0283479960899315
2.198435972629521
2.356793743890518
2.495601173020528
2.610948191593353
2.6989247311827955
2.7595307917888565
2.7751710654936463
2.7595307917888565
2.739980449657869
2.713587487781036
2.679374389051808
2.6392961876832843
2.595307917888563
2.547409579667644
2.498533724340176
2.4486803519061584
2.401759530791789
2.358748778103617
2.318670576735093
2.280547409579668
2.247311827956989
2.2160312805474094
2.182795698924731
2.147605083088954
2.110459433040078
2.072336265884653
2.0332355816226784
1.9951124144672527
1.959921798631476
1.927663734115347
1.8993157380254155
1.8758553274682308
1.8592375366568916
1.8494623655913975
1.8435972629521016
1.8406647116324533
1.8406647116324533
1.842619745845552
1.847507331378299
1.8533724340175952
1.858260019550342
1.86119257086999
1.86119257086999
1.8592375366568916
1.8543499511241448
1.8465298142717497
1.836754643206256
1.822091886608016
1.804496578690127
1.782991202346041
1.758553274682307
1.732160312805474
1.704789833822092
1.6764418377321604
1.6480938416422288
1.6187683284457477
1.5894428152492668
1.5610948191593352
1.5376344086021505
1.5180840664711632
1.4965786901270772
1.474095796676442
1.4506353861192571
1.4271749755620724
1.4056695992179864
1.3841642228739004
1.364613880742913
1.346041055718475
1.3284457478005864
1.3118279569892473
1.300097751710655
1.2913000977517106
1.2795698924731185
1.2658846529814272
1.252199413489736
1.2394916911045943
1.2267839687194526
1.2140762463343109
1.2023460410557183
1.1925708699902249
1.1837732160312806
1.1759530791788857
1.1681329423264908
1.163245356793744
1.160312805474096
1.1544477028347997
1.1466275659824048
1.13880742913001
1.1300097751710656
1.1221896383186705
1.115347018572825
1.1094819159335287
1.1036168132942326
1.0987292277614855
1.0948191593352885
1.0957966764418376
1.1006842619745845
1.104594330400782
1.1085043988269794
1.1114369501466277
1.1133919843597262
1.115347018572825
1.1173020527859236
1.1173020527859236
1.115347018572825
1.1124144672531768
1.10752688172043
1.1016617790811338
1.0987292277614855
1.096774193548387
1.0909090909090908
1.083088954056696
1.075268817204301
1.0684261974584557
1.0654936461388074
1.0703812316715542
1.088954056695992
1.126099706744868
1.1867057673509287
1.2746823069403714
1.3714565004887584
1.4819159335288368
1.624633431085044
1.7888563049853372
1.963831867057673
2.139784946236559
2.3069403714565007
2.4565004887585533
2.58455522971652
2.686217008797654
2.760508308895406
2.807429130009776
2.8299120234604107
2.83088954056696
2.8152492668621703
2.787878787878788
2.750733137829912
2.70772238514174
2.66177908113392
2.613880742913001
2.5650048875855327
2.5180840664711632
2.4731182795698925
2.432062561094819
2.393939393939394
2.3597262952101663
2.3274682306940373
2.2952101661779083
2.260997067448681
2.2248289345063537
2.187683284457478
2.1495601173020527
2.110459433040078
2.074291300097752
2.0410557184750733
2.0117302052785924
1.988269794721408
1.9696969696969695
1.956989247311828
1.9501466275659824
1.9472140762463344
1.9472140762463344
1.951124144672532
1.9560117302052784
1.9618768328445748
1.967741935483871
1.970674486803519
1.970674486803519
1.9687194525904204
1.962854349951124
1.9550342130987293
1.945259042033236
1.9315738025415443
1.9149560117302051
1.8944281524926687
1.871945259042033
1.8465298142717497
1.8191593352883677
1.790811339198436
1.761485826001955
1.7311827956989247
1.7018572825024438
1.672531769305963
1.6480938416422288
1.6275659824046922
1.6041055718475072
1.5796676441837731
1.555229716520039
1.5327468230694037
1.5102639296187683
1.4887585532746823
1.4682306940371457
1.447702834799609
1.4281524926686218
1.409579667644184
1.396871945259042
1.3870967741935485
1.3743890518084063
1.3616813294232648
1.348973607038123
1.3362658846529814
1.3225806451612905
1.3079178885630498
1.2942326490713587
1.281524926686217
1.2697947214076246
1.2590420332355816
1.252199413489736
1.2482893450635386
1.2424242424242424
1.2346041055718475
1.2258064516129032
1.217008797653959
1.2082111436950147
1.1994134897360704
1.1925708699902249
1.187683284457478
1.1837732160312806
1.181818181818182
1.1808406647116323
1.181818181818182
1.18475073313783
1.1867057673509287
1.1886608015640274
1.1906158357771262
1.1925708699902249
1.1935483870967742
1.1935483870967742
1.1925708699902249
1.1896383186705768
1.1857282502443791
1.181818181818182
1.1798631476050832
1.1788856304985338
1.1749755620723363
1.1691104594330402
1.163245356793744
1.1564027370478984
1.1485826001955035
1.142717497556207
1.1436950146627567
1.1573802541544478
1.1886608015640274
1.2443792766373412
1.327468230694037
1.4203323558162269
1.5298142717497556
1.6744868035190617
1.842619745845552
2.024437927663734
2.2111436950146626
2.391006842619746
2.5562072336265884
2.699902248289345
2.8181818181818183
2.90811339198436
2.9696969696969697
3.0009775171065494
3.0087976539589443
3.002932551319648
2.9824046920821115
2.949169110459433
2.8963831867057674
2.831867057673509
2.771260997067449
2.7145650048875853
2.659824046920821
2.608993157380254
2.5620723362658846
2.5190615835777126
2.4809384164222874
2.444770283479961
2.4086021505376345
2.3714565004887587
2.334310850439883
2.2961876832844577
2.257086999022483
2.217986314760508
2.1788856304985336
2.142717497556207
2.1094819159335287
2.080156402737048
2.056695992179863
2.040078201368524
2.0283479960899315
2.0205278592375366
2.016617790811339
2.016617790811339
2.0175953079178885
2.0205278592375366
2.024437927663734
2.0283479960899315
2.0303030303030303
2.0303030303030303
2.026392961876833
2.0195503421309877
2.0087976539589443
1.9931573802541545
1.9736070381231672
1.9501466275659824
1.9237536656891496
1.895405669599218
1.8641251221896384
1.8318670576735088
1.7996089931573802
1.7683284457478006
1.737047898338221
1.7086999022482894
1.683284457478006
1.6559139784946235
1.6265884652981428
1.5972629521016617
1.56891495601173
1.541544477028348
1.5161290322580645
1.4916911045943304
1.469208211143695
1.4467253176930597
1.4252199413489737
1.404692082111437
1.3890518084066472
1.375366568914956
1.359726295210166
1.3421309872922775
1.3255131964809383
1.3098729227761483
1.2961876832844574
1.2825024437927663
1.2688172043010753
1.2561094819159335
1.2443792766373412
1.2336265884652982
1.2258064516129032
1.219941348973607
1.2121212121212122
1.2023460410557183
1.1925708699902249
1.1837732160312806
1.1759530791788857
1.1681329423264908
1.160312805474096
1.1544477028347997
1.1485826001955035
1.1436950146627567
1.1397849462365592
1.13880742913001
1.141739980449658
1.1436950146627567
1.1456500488758554
1.147605083088954
1.1485826001955035
1.1485826001955035
1.147605083088954
1.1456500488758554
1.1436950146627567
1.1407624633431086
1.1358748778103618
1.133919843597263
1.133919843597263
1.1300097751710656
1.1251221896383188
1.1173020527859236
1.1094819159335287
1.1016617790811338
1.0977517106549364
1.099706744868035
1.1143695014662756
1.1485826001955035
1.2072336265884651
1.295210166177908
1.393939393939394
1.5083088954056696
1.6598240469208212
1.8387096774193548
2.0332355816226784
2.231671554252199
2.4252199413489737
2.603128054740958
2.758553274682307
2.886608015640274
2.983382209188661
3.047898338220919
3.078201368523949
3.083088954056696
3.071358748778104
3.042033235581622
2.99902248289345
2.946236559139785
2.8856304985337244
2.820136852394917
2.752688172043011
2.686217008797654
2.622678396871945
2.563049853372434
2.5083088954056696
2.4613880742913
2.418377321603128
2.375366568914956
2.332355816226784
2.290322580645161
2.249266862170088
2.209188660801564
2.1700879765395893
2.132942326490713
2.099706744868035
2.072336265884653
2.0498533724340176
2.0332355816226784
2.022482893450636
2.01564027370479
2.0146627565982405
2.018572825024438
2.0254154447702835
2.034213098729228
2.0449657869012707
2.053763440860215
2.06158357771261
2.0664711632453567
2.067448680351906
2.0635386119257086
2.0557184750733137
2.0439882697947214
2.0283479960899315
2.0097751710654936
1.988269794721408
1.963831867057673
1.9364613880742916
1.9071358748778104
1.8758553274682308
1.842619745845552
1.8084066471163245
1.7732160312805474
1.7429130009775171
1.7165200391006843
1.689149560117302
1.6608015640273706
1.632453567937439
1.6050830889540566
1.5786901270772238
1.5532746823069403
1.5288367546432062
1.5053763440860215
1.4838709677419355
1.4643206256109482
1.4486803519061584
1.4349951124144673
1.4193548387096775
1.4037145650048877
1.388074291300098
1.3724340175953078
1.3577712609970674
1.343108504398827
1.3294232649071358
1.316715542521994
1.3040078201368523
1.29227761485826
1.2795698924731185
1.270772238514174
1.2649071358748778
1.2561094819159335
1.24633431085044
1.2375366568914956
1.2297165200391007
1.2218963831867058
1.2150537634408602
1.2082111436950147
1.203323558162268
1.1994134897360704
1.195503421309873
1.195503421309873
1.198435972629521
1.1994134897360704
1.2013685239491692
1.203323558162268
1.2052785923753666
1.206256109481916
1.2072336265884651
1.2072336265884651
1.2072336265884651
1.2052785923753666
1.2023460410557183
1.1994134897360704
1.198435972629521
1.198435972629521
1.1945259042033236
1.187683284457478
1.1808406647116323
1.176930596285435
1.1798631476050832
1.195503421309873
1.23069403714565
1.2913000977517106
1.383186705767351
1.5083088954056696
1.6392961876832846
1.782991202346041
1.9657869012707725
2.1710654936461387
2.3851417399804498
2.5943304007820136
2.7869012707722387
2.95405669599218
3.089931573802541
3.1915933528836757
3.259042033235582
3.2952101661779083
3.303030303030303
3.286412512218964
3.2521994134897363
3.204301075268817
3.145650048875855
3.0791788856304985
3.007820136852395
2.935483870967742
2.8641251221896384
2.795698924731183
2.7311827956989245
2.6715542521994133
2.555229716520039
2.41544477028348
2.3284457478005867
2.267839687194526
2.218963831867057
2.175953079178885
2.136852394916911
2.099706744868035
2.064516129032258
2.03128054740958
2.0019550342130987
1.9775171065493649
1.9579667644183771
1.943304007820137
1.9335288367546437
1.9286412512218964
1.9286412512218964
1.9335288367546437
1.9413489736070384
1.9501466275659824
1.9589442815249267
1.967741935483871
1.9736070381231672
1.9765395894428155
1.9765395894428155
1.9726295210166176
1.964809384164223
1.95405669599218
1.9403714565004888
1.9227761485826005
1.902248289345064
1.8778103616813293
1.8514173998044965
1.822091886608016
1.7917888563049853
1.7605083088954057
1.729227761485826
1.6979472140762464
1.6666666666666667
1.640273704789834
1.6177908113391983
1.5943304007820136
1.5698924731182795
1.5464320625610948
1.52297165200391
1.500488758553275
1.479960899315738
1.4604105571847508
1.4418377321603129
1.4242424242424243
1.4076246334310851
1.3949169110459434
1.3841642228739004
1.3724340175953078
1.359726295210166
1.3470185728250244
1.335288367546432
1.3235581622678396
1.3118279569892473
1.3010752688172045
1.2903225806451613
1.2805474095796676
1.270772238514174
1.2609970674486803
1.2541544477028348
1.2482893450635386
1.2424242424242424
1.2355816226783969
1.2297165200391007
1.224828934506354
1.2218963831867058
1.219941348973607
1.219941348973607
1.2209188660801564
1.2238514173998043
1.2258064516129032
1.2287390029325511
1.2316715542521994
1.2326490713587488
1.2336265884652982
1.2336265884652982
1.2326490713587488
1.2297165200391007
1.2267839687194526
1.2238514173998043
1.219941348973607
1.2150537634408602
1.2082111436950147
1.2003910068426198
1.1964809384164223
1.1994134897360704
1.2101661779081134
1.2355816226783969
1.284457478005865
1.3626588465298142
1.4721407624633431
1.611925708699902
1.7790811339198436
1.9657869012707725
2.1622678396871944
2.358748778103617
2.5210166177908118
2.656891495601173
2.791788856304985
2.9100684261974585
3.003910068426197
3.070381231671554
3.1094819159335287
3.1221896383186705
3.113391984359726
3.0869990224828934
3.046920821114369
2.997067448680352
2.941348973607038
2.884652981427175
2.8289345063538613
2.7722385141739982
2.716520039100684
2.6637341153470184
2.6158357771261
2.5718475073313782
2.529814271749756
2.490713587487781
2.452590420332356
2.4144672531769307
2.3734115347018574
2.334310850439883
2.2961876832844577
2.2561094819159337
2.21505376344086
2.175953079178885
2.139784946236559
2.10752688172043
2.081133919843597
2.058651026392962
2.0410557184750733
2.027370478983382
2.0175953079178885
2.0097751710654936
2.003910068426197
2.0009775171065494
2.0
1.9980449657869013
1.9960899315738023
1.9931573802541545
1.988269794721408
1.9794721407624636
1.967741935483871
1.9521016617790807
1.9335288367546437
1.9120234604105573
1.8905180840664717
1.868035190615836
1.8406647116324533
1.8113391984359728
1.7790811339198436
1.7458455522971652
1.7116324535679377
1.6774193548387095
1.6441837732160314
1.611925708699902
1.5806451612903225
1.5513196480938416
1.5268817204301075
1.5053763440860215
1.4819159335288368
1.458455522971652
1.435972629521017
1.4134897360703813
1.392961876832845
1.3734115347018572
1.3548387096774193
1.33822091886608
1.3225806451612905
1.3069403714565004
1.29227761485826
1.281524926686217
1.2727272727272727
1.2609970674486803
1.2482893450635386
1.2355816226783969
1.2238514173998043
1.2121212121212122
1.2013685239491692
1.1915933528836755
1.1827956989247312
1.173998044965787
1.1652003910068427
1.160312805474096
1.1573802541544478
1.152492668621701
1.147605083088954
1.1436950146627567
1.1407624633431086
1.13880742913001
1.13880742913001
1.1397849462365592
1.1407624633431086
1.141739980449658
1.141739980449658
1.1407624633431086
1.1407624633431086
1.1407624633431086
1.13880742913001
1.133919843597263
1.1280547409579669
1.121212121212121
1.1133919843597262
1.104594330400782
1.0957966764418376
1.0918866080156402
1.0977517106549364
1.1202346041055715
1.1544477028347997
1.2072336265884651
1.2913000977517106
1.4076246334310851
1.5532746823069403
1.7243401759530792
1.9120234604105573
2.10752688172043
2.3010752688172045
2.482893450635386
2.643206256109482
2.777126099706745
2.881720430107527
2.946236559139785
2.9804496578690127
2.9980449657869013
2.9960899315738025
2.975562072336266
2.940371456500489
2.8944281524926687
2.8406647116324537
2.782013685239492
2.7233626588465296
2.664711632453568
2.6080156402737047
2.5562072336265884
2.509286412512219
2.464320625610948
2.421309872922776
2.380254154447703
2.340175953079179
2.300097751710655
2.259042033235582
2.2160312805474094
2.172043010752688
2.129032258064516
2.0879765395894427
2.048875855327468
2.01564027370479
1.9872922776148585
1.9618768328445748
1.9393939393939397
1.921798631476051
1.8807429130009776
1.83088954056696
1.8064516129032255
1.7947214076246334
1.7898338220918866
1.7888563049853372
1.7878787878787878
1.7859237536656891
1.782991202346041
1.7781036168132942
1.7712609970674489
1.761485826001955
1.7487781036168133
1.7331378299120237
1.7135874877810362
1.6911045943304008
1.6666666666666667
1.6392961876832846
1.608993157380254
1.5786901270772238
1.5513196480938416
1.5268817204301075
1.499511241446725
1.4711632453567938
1.4428152492668622
1.414467253176931
1.3870967741935485
1.359726295210166
1.3333333333333333
1.3079178885630498
1.2834799608993157
1.260019550342131
1.241446725317693
1.2258064516129032
1.209188660801564
1.1925708699902249
1.176930596285435
1.1622678396871946
1.1485826001955035
1.1348973607038124
1.1221896383186705
1.1094819159335287
1.096774193548387
1.0850439882697946
1.0733137829912025
1.0654936461388074
1.0596285434995112
1.050830889540567
1.0420332355816226
1.0332355816226784
1.0234604105571847
1.013685239491691
1.0058651026392962
0.9990224828934506
0.9941348973607038
0.9902248289345064
0.9882697947214076
0.989247311827957
0.9921798631476052
0.9951124144672532
0.997067448680352
0.9980449657869012
0.9990224828934506
1.0
1.0
1.0
0.9990224828934506
0.997067448680352
0.9941348973607038
0.9902248289345064
0.9872922776148584
0.9853372434017597
0.9804496578690128
0.9736070381231672
0.9667644183773216
0.9638318670576737
0.9706744868035192
0.9912023460410556
1.0332355816226784
1.1016617790811338
1.1994134897360704
1.3264907135874875
1.455522971652004
1.5923753665689149
1.7595307917888563
1.9403714565004888
2.121212121212121
2.291300097751711
2.442815249266862
2.56891495601173
2.6666666666666665
2.735092864125122
2.7751710654936463
2.789833822091887
2.782991202346041
2.7595307917888565
2.7233626588465296
2.677419354838709
2.6236559139784945
2.565982404692082
2.506353861192571
2.44672531769306
2.389051808406647
2.335288367546432
2.2854349951124147
2.2385141739980448
2.193548387096774
2.1524926686217007
2.114369501466276
2.074291300097752
2.034213098729228
1.9931573802541545
1.951124144672532
1.9100684261974583
1.870967741935484
1.8347996089931573
1.8035190615835777
1.7771260997067448
1.7565982404692082
1.7419354838709675
1.7311827956989247
1.7253176930596286
1.7233626588465298
1.7243401759530792
1.7272727272727273
1.7311827956989247
1.7341153470185728
1.7360703812316716
1.7350928641251222
1.7311827956989247
1.7243401759530792
1.7126099706744868
1.699902248289345
1.6852394916911049
1.6666666666666667
1.6451612903225807
1.6217008797653958
1.5972629521016617
1.5708699902248289
1.542521994134897
1.5141739980449658
1.4848484848484849
1.455522971652004
1.4271749755620724
1.4037145650048877
1.3822091886608017
1.3587487781036167
1.3343108504398826
1.3098729227761483
1.2873900293255132
1.2668621700879763
1.24633431085044
1.2267839687194526
1.2082111436950147
1.1906158357771262
1.1730205278592376
1.1564027370478984
1.144672531769306
1.1348973607038124
1.1231671554252198
1.1114369501466277
1.1006842619745845
1.0899315738025417
1.078201368523949
1.067448680351906
1.056695992179863
1.0469208211143697
1.0371456500488758
1.0273704789833822
1.0205278592375366
1.0156402737047898
1.0087976539589445
1.0009775171065494
0.9931573802541545
0.9863147605083088
0.9804496578690128
0.9765395894428152
0.9736070381231672
0.9726295210166178
0.9736070381231672
0.9765395894428152
0.9804496578690128
0.9863147605083088
0.9912023460410556
0.9941348973607038
0.9951124144672532
0.9951124144672532
0.9941348973607038
0.9931573802541545
0.9902248289345064
0.9863147605083088
0.981427174975562
0.975562072336266
0.9687194525904204
0.9638318670576737
0.9608993157380256
0.9589442815249268
0.9618768328445748
0.9775171065493646
1.0117302052785924
1.0703812316715542
1.1583577712609971
1.2766373411534702
1.4242424242424243
1.595307917888563
1.7820136852394917
1.9736070381231672
2.136852394916911
2.27761485826002
2.420332355816227
2.547409579667644
2.652003910068426
2.7282502443792764
2.776148582600196
2.798631476050831
2.7976539589442817
2.777126099706745
2.7419354838709675
2.696969696969697
2.6471163245356792
2.595307917888563
2.539589442815249
2.4838709677419355
2.429130009775171
2.376344086021505
2.326490713587488
2.2795698924731185
2.236559139784946
2.1945259042033234
2.1524926686217007
2.1114369501466275
2.069403714565005
2.0303030303030303
1.9931573802541545
1.9530791788856303
1.9120234604105573
1.8729227761485825
1.8377321603128052
1.8064516129032255
1.7820136852394917
1.7624633431085044
1.7487781036168133
1.7409579667644184
1.7380254154447703
1.7360703812316716
1.7360703812316716
1.7380254154447703
1.7409579667644184
1.7429130009775171
1.7429130009775171
1.739980449657869
1.7341153470185728
1.7243401759530792
1.7116324535679377
1.6950146627565983
1.675464320625611
1.6764418377321604
1.6901270772238517
1.686217008797654
1.6705767350928642
1.6471163245356797
1.6207233626588464
1.5923753665689149
1.563049853372434
1.5327468230694037
1.5024437927663734
1.4731182795698925
1.444770283479961
1.4164222873900294
1.392961876832845
1.3743890518084063
1.35386119257087
1.3333333333333333
1.3128054740957966
1.2932551319648091
1.2746823069403714
1.2580645161290325
1.2424242424242424
1.2267839687194526
1.2121212121212122
1.1974584555229717
1.1837732160312806
1.1730205278592376
1.164222873900293
1.1534701857282503
1.142717497556207
1.1319648093841643
1.121212121212121
1.1094819159335287
1.0987292277614855
1.0879765395894427
1.078201368523949
1.0694037145650048
1.0606060606060606
1.0557184750733135
1.0527859237536656
1.0478983382209188
1.0439882697947214
1.040078201368524
1.0381231671554252
1.0381231671554252
1.040078201368524
1.043010752688172
1.0469208211143697
1.050830889540567
1.0547409579667644
1.0576735092864125
1.0625610948191593
1.067448680351906
1.0684261974584557
1.067448680351906
1.064516129032258
1.0606060606060606
1.0547409579667644
1.0478983382209188
1.040078201368524
1.032258064516129
1.024437927663734
1.0195503421309873
1.0224828934506354
1.035190615835777
1.0635386119257086
1.1143695014662756
1.1945259042033236
1.3069403714565004
1.4506353861192571
1.6226783968719452
1.8162267839687196
2.0205278592375366
2.2238514173998043
2.4164222873900294
2.590420332355816
2.721407624633431
2.817204301075269
2.900293255131965
2.959921798631476
2.994134897360704
3.003910068426197
2.9902248289345064
2.9589442815249267
2.9149560117302054
2.86217008797654
2.8044965786901277
2.7438905180840663
2.6852394916911044
2.63049853372434
2.575757575757576
2.52297165200391
2.4731182795698925
2.426197458455523
2.3812316715542523
2.337243401759531
2.2932551319648096
2.2482893450635384
2.201368523949169
2.15347018572825
2.10850439882698
2.0664711632453567
2.024437927663734
1.9853372434017595
1.951124144672532
1.921798631476051
1.8993157380254155
1.8826979472140764
1.8729227761485825
1.869012707722385
1.869012707722385
1.871945259042033
1.87683284457478
1.8797653958944285
1.881720430107527
1.8826979472140764
1.8807429130009776
1.8748778103616808
1.8641251221896384
1.8494623655913975
1.83088954056696
1.8093841642228736
1.7859237536656891
1.7595307917888563
1.7311827956989247
1.704789833822092
1.678396871945259
1.6480938416422288
1.6158357771260996
1.5826001955034212
1.5483870967741935
1.5141739980449658
1.4809384164222874
1.4496578690127078
1.4203323558162269
1.3919843597262953
1.3655913978494625
1.3401759530791788
1.3196480938416422
1.3020527859237536
1.2825024437927663
1.2639296187683284
1.2453567937438903
1.2267839687194526
1.209188660801564
1.1915933528836755
1.1749755620723363
1.1583577712609971
1.142717497556207
1.1280547409579669
1.118279569892473
1.110459433040078
1.1006842619745845
1.0899315738025417
1.0801564027370478
1.0694037145650048
1.0586510263929618
1.0478983382209188
1.0371456500488758
1.0263929618768328
1.0166177908113392
1.0068426197458455
0.9990224828934506
0.9951124144672532
0.9951124144672532
0.9941348973607038
0.9941348973607038
0.9951124144672532
0.9980449657869012
1.0019550342130987
1.0068426197458455
1.010752688172043
1.013685239491691
1.0146627565982405
1.0146627565982405
1.0166177908113392
1.0175953079178883
1.0156402737047898
1.0127077223851415
1.0087976539589445
1.0039100684261977
0.9980449657869012
0.9912023460410556
0.9833822091886608
0.975562072336266
0.9726295210166178
0.978494623655914
