ppg
0.7438905180840665
0.8651026392961877
1.002932551319648
1.1436950146627567
1.2746823069403714
1.388074291300098
1.4809384164222874
1.5532746823069403
1.6099706744868034
1.6500488758553276
1.6793743890518085
1.7038123167155426
1.7233626588465298
1.7380254154447703
1.747800586510264
1.7546432062561097
1.7575757575757576
1.7575757575757576
1.7526881720430108
1.7438905180840665
1.732160312805474
1.7194525904203324
1.70772238514174
1.6989247311827955
1.6989247311827955
1.7145650048875856
1.7517106549364614
1.8142717497556209
1.9012707722385145
2.0097751710654936
2.134897360703812
2.269794721407625
2.404692082111437
2.533724340175953
2.635386119257087
2.7155425219941347
2.793743890518084
2.86217008797654
2.917888563049853
2.9589442815249267
2.9853372434017595
2.9980449657869013
2.9980449657869013
2.986314760508309
2.964809384164223
2.9345063538611926
2.898338220918866
2.857282502443793
2.809384164222874
2.755620723362659
2.696969696969697
2.632453567937439
2.563049853372434
2.4887585532746823
2.412512218963832
2.333333333333333
2.251221896383187
2.1681329423264906
2.085043988269794
2.013685239491691
1.949169110459433
1.884652981427175
1.825024437927664
1.7732160312805474
1.7311827956989247
1.6989247311827955
1.6744868035190617
1.6549364613880744
1.640273704789834
1.6275659824046922
1.6148582600195502
1.603128054740958
1.5913978494623655
1.576735092864125
1.560117302052786
1.541544477028348
1.521994134897361
1.5034213098729228
1.4848484848484849
1.466275659824047
1.447702834799609
1.4301075268817205
1.4105571847507332
1.3900293255131966
1.3724340175953078
1.3558162267839686
1.335288367546432
1.3128054740957966
1.2913000977517106
1.2697947214076246
1.249266862170088
1.23069403714565
1.2130987292277615
1.1964809384164223
1.1808406647116323
1.166177908113392
1.1564027370478984
1.1495601173020529
1.141739980449658
1.133919843597263
1.1270772238514175
1.1221896383186705
1.118279569892473
1.115347018572825
1.1124144672531768
1.1114369501466277
1.110459433040078
1.110459433040078
1.2013685239491692
1.3372434017595307
1.4056695992179864
1.367546432062561
1.380254154447703
1.4115347018572826
1.4682306940371457
1.5503421309872922
1.6588465298142718
1.7898338220918866
1.9364613880742916
2.0879765395894427
2.2375366568914954
2.3597262952101663
2.4594330400782014
2.555229716520039
2.638318670576735
2.705767350928641
2.758553274682307
2.7976539589442817
2.8260019550342133
2.84652981427175
2.86217008797654
2.8729227761485827
2.8797653958944283
2.8797653958944283
2.874877810361681
2.868035190615836
2.8582600195503423
2.844574780058651
2.8260019550342133
2.801564027370479
2.7702834799608995
2.732160312805474
2.687194525904203
2.636363636363636
2.5806451612903225
2.52297165200391
2.4701857282502444
2.4222873900293256
2.3743890518084068
2.3304007820136854
2.2932551319648096
2.26197458455523
2.2355816226783967
2.2140762463343107
2.1945259042033234
2.174975562072336
2.1544477028347995
2.133919843597263
2.113391984359726
2.093841642228739
2.074291300097752
2.0547409579667644
2.037145650048876
2.021505376344086
2.0087976539589443
1.9980449657869013
1.9872922776148585
1.9765395894428155
1.962854349951124
1.946236559139785
1.924731182795699
1.903225806451613
1.8807429130009776
1.8523949169110456
1.8211143695014664
1.7878787878787878
1.75366568914956
1.7204301075268815
1.6871945259042034
1.6549364613880744
1.6236559139784943
1.5923753665689149
1.5610948191593352
1.5356793743890518
1.5141739980449658
1.4897360703812317
1.4652981427174976
1.4418377321603129
1.4213098729227762
1.4037145650048877
1.3890518084066472
1.3763440860215057
1.3655913978494625
1.3558162267839686
1.346041055718475
1.335288367546432
1.3284457478005864
1.3225806451612905
1.313782991202346
1.3049853372434017
1.2971652003910068
1.2913000977517106
1.2873900293255132
1.2854349951124144
1.2854349951124144
1.2854349951124144
1.2854349951124144
1.284457478005865
1.284457478005865
1.2854349951124144
1.284457478005865
1.281524926686217
1.2776148582600195
1.2727272727272727
1.2688172043010753
1.2649071358748778
1.2609970674486803
1.2590420332355816
1.2580645161290325
1.2590420332355816
1.2609970674486803
1.2649071358748778
1.2697947214076246
1.2746823069403714
1.2795698924731185
1.2873900293255132
1.3040078201368523
1.3343108504398826
1.383186705767351
1.4535679374389052
1.5454545454545454
1.6578690127077225
1.7839687194525904
1.8993157380254155
2.0087976539589443
2.1280547409579667
2.243401759530792
2.347996089931574
2.4379276637341154
2.5102639296187683
2.565982404692082
2.606060606060606
2.632453567937439
2.6471163245356792
2.652003910068426
2.649071358748778
2.6392961876832843
2.622678396871945
2.6021505376344085
2.578690127077224
2.5513196480938416
2.5210166177908118
2.486803519061584
2.4486803519061584
2.406647116324536
2.361681329423265
2.312805474095797
2.260019550342131
2.2111436950146626
2.164222873900293
2.112414467253177
2.060606060606061
2.010752688172043
1.964809384164223
1.924731182795699
1.8914956011730208
1.8641251221896384
1.8416422287390029
1.823069403714565
1.8074291300097751
1.793743890518084
1.7839687194525904
1.775171065493646
1.7663734115347018
1.7575757575757576
1.7487781036168133
1.7409579667644184
1.7341153470185728
1.729227761485826
1.7253176930596286
1.7233626588465298
1.7223851417399805
1.7204301075268815
1.7194525904203324
1.7165200391006843
1.7116324535679377
1.7028347996089932
1.6911045943304008
1.6764418377321604
1.6598240469208212
1.6422287390029326
1.624633431085044
1.6080156402737047
1.5933528836754642
1.581622678396872
1.573802541544477
1.5698924731182795
1.56891495601173
1.5679374389051808
1.5679374389051808
1.5669599217986314
1.5650048875855327
1.564027370478983
1.5620723362658846
1.560117302052786
1.5581622678396871
1.5562072336265884
1.5542521994134897
1.5532746823069403
1.552297165200391
1.5493646138807429
1.5454545454545454
1.5405669599217986
1.5366568914956011
1.5327468230694037
1.5288367546432062
1.525904203323558
1.521994134897361
1.5190615835777126
1.5151515151515151
1.512218963831867
1.509286412512219
1.5024437927663734
1.4916911045943304
1.478983382209189
1.4643206256109482
1.447702834799609
1.4301075268817205
1.4115347018572826
1.393939393939394
1.3763440860215057
1.3577712609970674
1.3391984359726294
1.3235581622678396
1.3098729227761483
1.29227761485826
1.2746823069403714
1.2609970674486803
1.2590420332355816
1.2150537634408602
1.1681329423264908
1.198435972629521
1.2834799608993157
1.4066471163245358
1.552297165200391
1.6881720430107527
1.81524926686217
1.9501466275659824
2.0762463343108504
2.185728250244379
2.271749755620724
2.334310850439883
2.3743890518084068
2.3949169110459434
2.3978494623655915
2.3870967741935485
2.366568914956012
2.3391984359726297
2.3088954056695994
2.27761485826002
2.241446725317693
2.20039100684262
2.1544477028347995
2.103616813294233
2.047898338220919
1.9872922776148585
1.9237536656891496
1.8592375366568916
1.793743890518084
1.729227761485826
1.6735092864125125
1.6226783968719452
1.56891495601173
1.5151515151515151
1.4652981427174976
1.4213098729227762
1.3851417399804498
1.3558162267839686
1.3333333333333333
1.316715542521994
1.3049853372434017
1.2971652003910068
1.2913000977517106
1.289345063538612
1.2883675464320623
1.284457478005865
1.2776148582600195
1.267839687194526
1.2551319648093842
1.2394916911045943
1.2218963831867058
1.2023460410557183
1.1798631476050832
1.1564027370478984
1.130987292277615
1.110459433040078
1.0918866080156402
1.067448680351906
1.0410557184750733
1.013685239491691
0.9872922776148584
0.9628543499511242
0.9403714565004888
0.9208211143695014
0.9032258064516128
0.8885630498533724
0.8768328445747801
0.8670576735092864
0.863147605083089
0.863147605083089
0.8611925708699902
0.8592375366568915
0.8582600195503421
0.8572825024437928
0.8563049853372434
0.8563049853372434
0.8563049853372434
0.8572825024437928
0.8582600195503421
0.8592375366568915
0.8641251221896383
0.8699902248289345
0.8729227761485826
0.8748778103616813
0.8768328445747801
0.8797653958944281
0.8826979472140762
0.8856304985337243
0.8885630498533724
0.8934506353861192
0.8993157380254154
0.9071358748778104
0.9149560117302052
0.9266862170087976
0.9393939393939394
0.9511241446725318
0.9628543499511242
0.9736070381231672
0.9833822091886608
0.9931573802541545
1.0009775171065494
1.0068426197458455
1.010752688172043
1.013685239491691
1.018572825024438
1.0283479960899315
1.04594330400782
1.075268817204301
1.1241446725317692
1.198435972629521
1.3020527859237536
1.435972629521017
1.5943304007820136
1.7702834799608993
1.9560117302052784
2.139784946236559
2.3118279569892475
2.4652981427174976
2.581622678396872
2.668621700879765
2.7468230694037143
2.8103616813294234
2.857282502443793
2.8885630498533725
2.9071358748778104
2.916911045943304
2.918866080156403
2.9149560117302054
2.906158357771261
2.8944281524926687
2.87683284457478
2.855327468230694
2.832844574780059
2.807429130009776
2.779081133919844
2.745845552297165
2.70772238514174
2.664711632453568
2.6148582600195502
2.558162267839687
2.496578690127077
2.43108504398827
2.3626588465298144
2.2991202346041058
2.2404692082111435
2.177908113391984
2.1163245356793743
2.058651026392962
2.006842619745845
1.9618768328445748
1.9227761485826005
1.889540566959922
1.86119257086999
1.836754643206256
1.8142717497556209
1.7956989247311828
1.7790811339198436
1.7605083088954057
1.7409579667644184
1.7194525904203324
1.696969696969697
1.6735092864125125
1.6480938416422288
1.6217008797653958
1.5943304007820136
1.5679374389051808
1.542521994134897
1.517106549364614
1.4965786901270772
1.478005865102639
1.456500488758553
1.434017595307918
1.412512218963832
1.3919843597262953
1.3714565004887584
1.3528836754643203
1.3343108504398826
1.316715542521994
1.3010752688172045
1.2854349951124144
1.273704789833822
1.2639296187683284
1.252199413489736
1.2394916911045943
1.2267839687194526
1.2150537634408602
1.2043010752688172
1.1945259042033236
1.1867057673509287
1.1788856304985338
1.1710654936461389
1.164222873900293
1.1583577712609971
1.155425219941349
1.1544477028347997
1.1515151515151516
1.1485826001955035
1.1466275659824048
1.1456500488758554
1.1466275659824048
1.1485826001955035
1.152492668621701
1.1564027370478984
1.160312805474096
1.164222873900293
1.1700879765395895
1.1759530791788857
1.1808406647116323
1.18475073313783
1.187683284457478
1.1896383186705768
1.1915933528836755
1.1935483870967742
1.1945259042033236
1.195503421309873
1.1945259042033236
1.1925708699902249
1.1935483870967742
1.1974584555229717
1.2043010752688172
1.2189638318670577
1.2502443792766371
1.3040078201368523
1.3851417399804498
1.4965786901270772
1.6363636363636365
1.7986314760508308
1.975562072336266
2.156402737047898
2.3313782991202348
2.472140762463343
2.587487781036168
2.6989247311827955
2.795698924731183
2.873900293255132
2.932551319648094
2.973607038123167
2.9980449657869013
3.0097751710654936
3.010752688172043
3.004887585532747
2.992179863147605
2.972629521016618
2.948191593352884
2.9227761485826003
2.8944281524926687
2.863147605083089
2.8289345063538613
2.790811339198436
2.747800586510264
2.7008797653958942
2.6480938416422286
2.589442815249267
2.525904203323558
2.458455522971652
2.404692082111437
2.358748778103617
2.304007820136853
2.247311827956989
2.1925708699902247
2.1417399804496577
2.096774193548387
2.056695992179863
2.022482893450636
1.992179863147605
1.9657869012707725
1.9413489736070384
1.920821114369501
1.902248289345064
1.881720430107527
1.8592375366568916
1.835777126099707
1.8113391984359728
1.7849462365591398
1.7575757575757576
1.7302052785923754
1.7038123167155426
1.6764418377321604
1.6490713587487782
1.6217008797653958
1.5992179863147604
1.5796676441837731
1.5571847507331378
1.533724340175953
1.509286412512219
1.4848484848484849
1.4613880742913
1.4389051808406648
1.4173998044965788
1.3958944281524928
1.375366568914956
1.3558162267839686
1.3411534701857282
1.3294232649071358
1.3157380254154447
1.3020527859237536
1.2883675464320623
1.2746823069403714
1.2609970674486803
1.2482893450635386
1.2365591397849462
1.2267839687194526
1.2189638318670577
1.2121212121212122
1.2052785923753666
1.2023460410557183
1.2023460410557183
1.2013685239491692
1.1994134897360704
1.1974584555229717
1.195503421309873
1.1945259042033236
1.1945259042033236
1.1964809384164223
1.198435972629521
1.2013685239491692
1.2043010752688172
1.2101661779081134
1.2179863147605083
1.2228739002932552
1.2267839687194526
1.23069403714565
1.2326490713587488
1.2346041055718475
1.2365591397849462
1.2375366568914956
1.2394916911045943
1.2404692082111437
1.241446725317693
1.2404692082111437
1.241446725317693
1.2434017595307918
1.2443792766373412
1.249266862170088
1.2619745845552297
1.2883675464320623
1.3362658846529814
1.409579667644184
1.5102639296187683
1.6383186705767352
1.7878787878787878
1.9530791788856303
2.1006842619745845
2.2346041055718477
2.375366568914956
2.5083088954056696
2.624633431085044
2.719452590420332
2.792766373411535
2.84652981427175
2.881720430107527
2.903225806451613
2.9120234604105573
2.9100684261974585
2.900293255131965
2.8826979472140764
2.860215053763441
2.834799608993157
2.806451612903226
2.774193548387097
2.7390029325513194
2.7008797653958942
2.6578690127077222
2.6099706744868034
2.557184750733138
2.5004887585532747
2.439882697947214
2.3822091886608017
2.3274682306940373
2.267839687194526
2.2082111436950145
2.1524926686217007
2.101661779081134
2.056695992179863
2.0195503421309877
1.988269794721408
1.963831867057673
1.943304007820137
1.9257086999022484
1.9100684261974583
1.8973607038123168
1.8866080156402736
1.873900293255132
1.8602150537634408
1.8435972629521016
1.825024437927664
1.8054740957966764
1.7839687194525904
1.7605083088954057
1.7360703812316716
1.7116324535679377
1.6871945259042034
1.6656891495601174
1.64613880742913
1.624633431085044
1.6011730205278591
1.5777126099706744
1.555229716520039
1.5317693059628543
1.509286412512219
1.487781036168133
1.466275659824047
1.4457478005865103
1.426197458455523
1.4076246334310851
1.393939393939394
1.383186705767351
1.3695014662756595
1.3548387096774193
1.3411534701857282
1.3284457478005864
1.3176930596285434
1.3079178885630498
1.2981427174975562
1.289345063538612
1.2825024437927663
1.2766373411534702
1.2746823069403714
1.2756598240469208
1.2756598240469208
1.2746823069403714
1.2746823069403714
1.2746823069403714
1.2756598240469208
1.2776148582600195
1.2795698924731185
1.2825024437927663
1.2854349951124144
1.289345063538612
1.2942326490713587
1.3010752688172045
1.3079178885630498
1.313782991202346
1.3186705767350928
1.3225806451612905
1.3255131964809383
1.3284457478005864
1.3313782991202343
1.3343108504398826
1.3362658846529814
1.33822091886608
1.33822091886608
1.3401759530791788
1.343108504398827
1.346041055718475
1.3548387096774193
1.3743890518084063
1.4115347018572826
1.4731182795698925
1.5620723362658846
1.6803519061583578
1.8240469208211143
1.986314760508309
2.158357771260997
2.3069403714565007
2.4389051808406648
2.5747800586510263
2.7008797653958942
2.809384164222874
2.8963831867057674
2.961876832844575
3.007820136852395
3.037145650048876
3.0518084066471163
3.0547409579667644
3.048875855327468
3.0361681329423265
3.016617790811339
2.992179863147605
2.964809384164223
2.935483870967742
2.9042033235581624
2.8699902248289346
2.831867057673509
2.789833822091887
2.7438905180840663
2.6940371456500487
2.638318670576735
2.578690127077224
2.5210166177908118
2.4652981427174976
2.403714565004888
2.3411534701857284
2.280547409579668
2.2238514173998043
2.172043010752688
2.1270772238514173
2.0879765395894427
2.0547409579667644
2.0283479960899315
2.006842619745845
1.9872922776148585
1.9716520039100685
1.956989247311828
1.9423264907135875
1.9257086999022484
1.90811339198436
1.8875855327468232
1.865102639296188
1.8416422287390029
1.8172043010752688
1.7917888563049853
1.7653958944281525
1.7390029325513197
1.7165200391006843
1.6959921798631477
1.672531769305963
1.6480938416422288
1.624633431085044
1.6011730205278591
1.5786901270772238
1.5131964809384164
1.426197458455523
1.3724340175953078
1.3343108504398826
1.3049853372434017
1.2805474095796676
1.2619745845552297
1.2482893450635386
1.2336265884652982
1.2189638318670577
1.2043010752688172
1.1915933528836755
1.1798631476050832
1.1681329423264908
1.1573802541544478
1.1485826001955035
1.1407624633431086
1.133919843597263
1.130987292277615
1.1290322580645162
1.126099706744868
1.1231671554252198
1.1202346041055715
1.118279569892473
1.1173020527859236
1.1173020527859236
1.1173020527859236
1.1173020527859236
1.1192570869990224
1.121212121212121
1.1241446725317692
1.1290322580645162
1.133919843597263
1.1368523949169111
1.13880742913001
1.13880742913001
1.1378299120234605
1.1368523949169111
1.1368523949169111
1.1368523949169111
1.1358748778103618
1.1348973607038124
1.1329423264907137
1.133919843597263
1.13880742913001
1.1495601173020529
1.173998044965787
1.2189638318670577
1.2913000977517106
1.393939393939394
1.5268817204301075
1.6852394916911049
1.8621700879765395
2.046920821114369
2.228739002932551
2.3978494623655915
2.530791788856305
2.635386119257087
2.7331378299120237
2.814271749755621
2.87683284457478
2.921798631476051
2.951124144672532
2.9667644183773216
2.9696969696969697
2.963831867057673
2.951124144672532
2.9335288367546437
2.911045943304008
2.8856304985337244
2.859237536656892
2.832844574780059
2.8044965786901277
2.7722385141739982
2.736070381231672
2.695014662756598
2.650048875855328
2.598240469208211
2.5405669599217986
2.47702834799609
2.4086021505376345
2.3440860215053765
2.2825024437927666
2.2160312805474094
2.1485826001955037
2.0840664711632453
2.0254154447702835
1.9736070381231672
1.927663734115347
1.8885630498533723
1.8543499511241448
1.8240469208211143
1.7976539589442817
1.7761485826001957
1.7565982404692082
1.7360703812316716
1.7145650048875856
1.6920821114369502
1.6695992179863148
1.6451612903225807
1.619745845552297
1.5933528836754642
1.5669599217986314
1.5395894428152492
1.512218963831867
1.4848484848484849
1.4623655913978495
1.4428152492668622
1.4203323558162269
1.3978494623655917
1.375366568914956
1.3528836754643203
1.3304007820136852
1.3088954056695992
1.2883675464320623
1.267839687194526
1.2482893450635386
1.2297165200391007
1.217008797653959
1.206256109481916
1.1945259042033236
1.1808406647116323
1.1671554252199414
1.1544477028347997
1.142717497556207
1.1319648093841643
1.1221896383186705
1.1133919843597262
1.104594330400782
1.0977517106549364
1.0918866080156402
1.0899315738025417
1.088954056695992
1.0879765395894427
1.0869990224828934
1.0869990224828934
1.0879765395894427
1.088954056695992
1.0909090909090908
1.093841642228739
1.0957966764418376
1.0977517106549364
1.0987292277614855
1.1026392961876832
1.1065493646138806
1.1085043988269794
1.1094819159335287
1.110459433040078
1.110459433040078
1.6422287390029326
1.611925708699902
1.5826001955034212
1.5532746823069403
1.5249266862170088
1.4975562072336266
1.4701857282502444
1.447702834799609
1.4281524926686218
1.4056695992179864
1.383186705767351
1.359726295210166
1.3362658846529814
1.313782991202346
1.29227761485826
1.2717497556207231
1.252199413489736
1.2336265884652982
1.2160312805474096
1.203323558162268
1.1945259042033236
1.1827956989247312
1.1710654936461389
1.1593352883675463
1.1485826001955035
1.13880742913001
1.1300097751710656
1.1221896383186705
1.115347018572825
1.1094819159335287
1.104594330400782
1.1006842619745845
1.099706744868035
1.1006842619745845
1.1006842619745845
1.099706744868035
1.0977517106549364
1.0957966764418376
1.0948191593352885
1.093841642228739
1.093841642228739
1.0957966764418376
1.0977517106549364
1.099706744868035
1.1036168132942326
1.1085043988269794
1.0957966764418376
1.0733137829912025
1.0625610948191593
1.056695992179863
1.0527859237536656
1.050830889540567
1.0488758553274682
1.0478983382209188
1.0469208211143697
1.0449657869012707
1.04594330400782
1.0469208211143697
1.04594330400782
1.043010752688172
1.040078201368524
1.040078201368524
1.0488758553274682
1.072336265884653
1.1173020527859236
1.1906158357771262
1.2961876832844574
1.4330400782013686
1.5972629521016617
1.75366568914956
1.906158357771261
2.078201368523949
2.2502443792766376
2.410557184750733
2.550342130987292
2.665689149560117
2.7546432062561097
2.820136852394917
2.865102639296188
2.89247311827957
2.906158357771261
2.905180840664712
2.895405669599218
2.8826979472140764
2.866080156402737
2.8475073313782997
2.8269794721407626
2.8044965786901277
2.780058651026393
2.7536656891495603
2.724340175953079
2.6901270772238512
2.6510263929618767
2.6041055718475072
2.555229716520039
2.5034213098729228
2.442815249266862
2.375366568914956
2.302052785923754
2.2277614858260018
2.1544477028347995
2.085043988269794
2.0205278592375366
1.9618768328445748
1.911045943304008
1.868035190615836
1.833822091886608
1.8054740957966764
1.7781036168132942
1.7526881720430108
1.7282502443792769
1.7028347996089932
1.6774193548387095
1.651026392961877
1.624633431085044
1.5962854349951123
1.5669599217986314
1.5376344086021505
1.5083088954056696
1.4819159335288368
1.458455522971652
1.4320625610948192
1.404692082111437
1.3773216031280548
1.3499511241446724
1.3225806451612905
1.2961876832844574
1.270772238514174
1.2453567937438903
1.219941348973607
1.1964809384164223
1.1779081133919844
1.1622678396871946
1.144672531769306
1.126099706744868
1.1085043988269794
1.0918866080156402
1.0762463343108504
1.06158357771261
1.0478983382209188
1.0361681329423265
1.0254154447702837
1.0166177908113392
1.0087976539589445
1.0048875855327468
1.002932551319648
1.0
0.9951124144672532
0.9902248289345064
0.9863147605083088
0.9833822091886608
0.981427174975562
0.9804496578690128
0.9804496578690128
0.9804496578690128
0.981427174975562
0.9843597262952102
0.9902248289345064
0.9941348973607038
0.9980449657869012
1.0019550342130987
1.0048875855327468
1.007820136852395
1.0097751710654936
1.0117302052785924
1.0127077223851415
1.013685239491691
1.0146627565982405
1.0146627565982405
1.0175953079178883
1.021505376344086
1.0234604105571847
1.0234604105571847
1.0224828934506354
1.0195503421309873
1.0166177908113392
1.0156402737047898
1.0205278592375366
1.0371456500488758
1.0713587487781036
1.1300097751710656
1.2013685239491692
1.29227761485826
1.4213098729227762
1.581622678396872
1.7624633431085044
1.95405669599218
2.1436950146627565
2.321603128054741
2.479960899315738
2.613880742913001
2.721407624633431
2.803519061583578
2.86217008797654
2.8944281524926687
2.909090909090909
2.916911045943304
2.9159335288367547
2.90811339198436
2.8944281524926687
2.87683284457478
2.8563049853372435
2.831867057673509
2.8054740957966766
2.7751710654936463
2.7419354838709675
2.705767350928641
2.6666666666666665
2.622678396871945
2.5718475073313782
2.5131964809384164
2.4486803519061584
2.380254154447703
2.3088954056695994
2.236559139784946
2.166177908113392
2.1006842619745845
2.0410557184750733
1.989247311827957
1.948191593352884
1.9149560117302051
1.884652981427175
1.857282502443793
1.8328445747800584
1.8103616813294232
1.7888563049853372
1.7663734115347018
1.7429130009775171
1.718475073313783
1.6930596285434996
1.6656891495601174
1.6422287390029326
1.619745845552297
1.5933528836754642
1.564027370478983
1.533724340175953
1.5034213098729228
1.4731182795698925
1.4428152492668622
1.414467253176931
1.3861192570869991
1.3587487781036167
1.332355816226784
1.305962854349951
1.2854349951124144
1.2688172043010753
1.249266862170088
1.2287390029325511
1.209188660801564
1.1906158357771262
