ppg
1.2473118279569892
1.2238514173998043
1.2013685239491692
1.181818181818182
1.163245356793744
1.147605083088954
1.133919843597263
1.121212121212121
1.1094819159335287
1.099706744868035
1.093841642228739
1.088954056695992
1.0821114369501466
1.0742913000977516
1.0664711632453567
1.0586510263929618
1.050830889540567
1.0449657869012707
1.040078201368524
1.035190615835777
1.0303030303030305
1.0263929618768328
1.0263929618768328
1.0273704789833822
1.0263929618768328
1.024437927663734
1.0224828934506354
1.0205278592375366
1.0175953079178883
1.0156402737047898
1.013685239491691
1.010752688172043
1.0087976539589445
1.0068426197458455
1.0058651026392962
1.0068426197458455
1.010752688172043
1.0146627565982405
1.0175953079178883
1.0195503421309873
1.021505376344086
1.0224828934506354
1.0234604105571847
1.0234604105571847
1.0224828934506354
1.021505376344086
1.021505376344086
1.0254154447702837
1.0332355816226784
1.0478983382209188
1.075268817204301
1.1192570869990224
1.1837732160312806
1.2727272727272727
1.3851417399804498
1.5180840664711632
1.6686217008797657
1.83088954056696
1.9960899315738023
2.157380254154448
2.289345063538612
2.39980449657869
2.512218963831867
2.6148582600195502
2.7038123167155423
2.7781036168132944
2.8396871945259043
2.8905180840664717
2.9315738025415445
2.962854349951124
2.986314760508309
3.0019550342130987
3.005865102639296
3.0009775171065494
2.995112414467253
2.983382209188661
2.963831867057673
2.9345063538611926
2.8944281524926687
2.841642228739003
2.7781036168132944
2.705767350928641
2.6265884652981426
2.544477028347996
2.463343108504399
2.391006842619746
2.326490713587488
2.2639296187683287
2.206256109481916
2.1544477028347995
2.10850439882698
2.0684261974584555
2.032258064516129
1.9990224828934504
1.9687194525904204
1.9393939393939397
1.9100684261974583
1.8826979472140764
1.8563049853372435
1.826001955034213
1.7927663734115349
1.7575757575757576
1.7204301075268815
1.683284457478006
1.64613880742913
1.6109481915933528
1.5757575757575757
1.542521994134897
1.509286412512219
1.478005865102639
1.4516129032258065
1.4281524926686218
1.4027370478983383
1.3782991202346042
1.3548387096774193
1.3333333333333333
1.3147605083088951
1.2981427174975562
1.284457478005865
1.2717497556207231
1.260019550342131
1.249266862170088
1.2424242424242424
1.2365591397849462
1.2287390029325511
1.219941348973607
1.209188660801564
1.195503421309873
1.1798631476050832
1.1612903225806452
1.1407624633431086
1.118279569892473
1.0957966764418376
1.0742913000977516
1.0547409579667644
1.040078201368524
1.0303030303030305
1.0195503421309873
1.010752688172043
1.002932551319648
0.997067448680352
0.9931573802541545
0.9921798631476052
0.9931573802541545
0.9960899315738024
1.0009775171065494
1.007820136852395
1.0175953079178883
1.0273704789833822
1.035190615835777
1.0420332355816226
1.0478983382209188
1.0527859237536656
1.056695992179863
1.0596285434995112
1.0606060606060606
1.0586510263929618
1.0547409579667644
1.0469208211143697
1.0371456500488758
1.029325513196481
1.024437927663734
1.0205278592375366
1.021505376344086
1.032258064516129
1.0596285434995112
1.10752688172043
1.1798631476050832
1.2766373411534702
1.396871945259042
1.5347018572825024
1.686217008797654
1.822091886608016
1.9472140762463344
2.083088954056696
2.2140762463343107
2.334310850439883
2.439882697947214
2.527859237536657
2.60019550342131
2.6578690127077222
2.701857282502444
2.736070381231672
2.760508308895406
2.7751710654936463
2.777126099706745
2.771260997067449
2.7624633431085046
2.7468230694037143
2.7223851417399803
2.689149560117302
2.6451612903225805
2.590420332355816
2.525904203323558
2.4545454545454546
2.376344086021505
2.2961876832844577
2.2238514173998043
2.157380254154448
2.089931573802541
2.027370478983382
1.9716520039100685
1.9227761485826005
1.881720430107527
1.847507331378299
1.8191593352883677
1.7927663734115349
1.7683284457478006
1.7458455522971652
1.726295210166178
1.7067448680351909
1.6842619745845553
1.6598240469208212
1.632453567937439
1.603128054740958
1.5718475073313782
1.5405669599217986
1.5083088954056696
1.478005865102639
1.4496578690127078
1.4213098729227762
1.392961876832845
1.3685239491691104
1.3470185728250244
1.321603128054741
1.295210166177908
1.2697947214076246
1.2453567937438903
1.2218963831867058
1.1994134897360704
1.1788856304985338
1.1612903225806452
1.144672531769306
1.1280547409579669
1.1163245356793745
1.10752688172043
1.0987292277614855
1.0899315738025417
1.0811339198435972
1.072336265884653
1.0635386119257086
1.0547409579667644
1.0469208211143697
1.040078201368524
1.0342130987292275
1.0283479960899315
1.0224828934506354
1.0205278592375366
1.0205278592375366
1.018572825024438
1.0166177908113392
1.0146627565982405
1.0127077223851415
1.0117302052785924
1.0117302052785924
1.0117302052785924
1.0117302052785924
1.0127077223851415
1.013685239491691
1.0175953079178883
1.021505376344086
1.0224828934506354
1.0224828934506354
1.0224828934506354
1.0224828934506354
1.0224828934506354
1.0234604105571847
1.0254154447702837
1.0263929618768328
1.0263929618768328
1.0254154447702837
1.0234604105571847
1.024437927663734
1.0263929618768328
1.0263929618768328
1.0273704789833822
1.032258064516129
1.04594330400782
1.0742913000977516
1.1221896383186705
1.1915933528836755
1.2854349951124144
1.4027370478983383
1.5405669599217986
1.672531769305963
1.8035190615835777
1.9550342130987293
2.113391984359726
2.267839687194526
2.410557184750733
2.5376344086021505
2.6471163245356792
2.7390029325513194
2.8132942326490715
2.873900293255132
2.9237536656891496
2.963831867057673
2.9872922776148583
3.0009775171065494
3.01564027370479
3.026392961876833
3.03128054740958
3.0283479960899315
3.01564027370479
2.9931573802541545
2.9589442815249267
2.913000977517106
2.8563049853372435
2.788856304985337
2.720430107526881
2.649071358748778
2.567937438905181
2.482893450635386
2.3978494623655915
2.315738025415445
2.2385141739980448
2.16911045943304
2.10752688172043
2.053763440860215
2.006842619745845
1.9657869012707725
1.9305962854349952
1.902248289345064
1.87683284457478
1.8494623655913975
1.8211143695014664
1.7917888563049853
1.7605083088954057
1.7282502443792769
1.6950146627565983
1.6598240469208212
1.624633431085044
1.5884652981427174
1.552297165200391
1.521016617790811
1.4926686217008798
1.4604105571847508
1.4271749755620724
1.3949169110459434
1.3626588465298142
1.3313782991202343
1.3010752688172045
1.2727272727272727
1.2473118279569892
1.2238514173998043
1.2013685239491692
1.1808406647116323
1.1671554252199414
1.1564027370478984
1.142717497556207
1.1290322580645162
1.115347018572825
1.1036168132942326
1.093841642228739
1.0840664711632453
1.0742913000977516
1.0654936461388074
1.056695992179863
1.0478983382209188
1.043010752688172
1.0410557184750733
1.0381231671554252
1.035190615835777
1.0332355816226784
1.0312805474095796
1.0283479960899315
1.024437927663734
1.0205278592375366
1.0166177908113392
1.0117302052785924
1.0068426197458455
1.002932551319648
1.002932551319648
1.0048875855327468
1.0048875855327468
1.002932551319648
1.0019550342130987
1.0009775171065494
1.0
1.0
1.0
1.0009775171065494
1.002932551319648
1.0048875855327468
1.0087976539589445
1.013685239491691
1.0166177908113392
1.0166177908113392
1.0156402737047898
1.0156402737047898
1.0166177908113392
1.0205278592375366
1.0303030303030305
1.0518084066471165
1.088954056695992
1.1456500488758554
1.224828934506354
1.310850439882698
1.4076246334310851
1.533724340175953
1.678396871945259
1.8347996089931573
1.9931573802541545
2.147605083088954
2.291300097751711
2.421309872922776
2.5347018572825024
2.63049853372434
2.7096774193548385
2.763440860215054
2.80058651026393
2.8367546432062563
2.8670576735092865
2.8905180840664717
2.90811339198436
2.918866080156403
2.921798631476051
2.917888563049853
2.905180840664712
2.881720430107527
2.8475073313782997
2.801564027370479
2.7497556207233624
2.6911045943304006
2.621700879765396
2.544477028347996
2.464320625610948
2.3841642228739004
2.3059628543499517
2.233626588465298
2.1681329423264906
2.110459433040078
2.06158357771261
2.0205278592375366
1.9872922776148585
1.9589442815249267
1.9305962854349952
1.9042033235581624
1.8797653958944285
1.8543499511241448
1.827956989247312
1.8005865102639296
1.7712609970674489
1.739980449657869
1.7067448680351909
1.6715542521994136
1.640273704789834
1.6099706744868034
1.5757575757575757
1.5405669599217986
1.504398826979472
1.469208211143695
1.434017595307918
1.3988269794721409
1.3636363636363635
1.3294232649071358
1.2961876832844574
1.2649071358748778
1.2346041055718475
1.2111436950146628
1.1915933528836755
1.1700879765395895
1.1485826001955035
1.1280547409579669
1.1094819159335287
1.0909090909090908
1.072336265884653
1.0557184750733135
1.0420332355816226
1.0303030303030305
1.0205278592375366
1.0156402737047898
1.0156402737047898
1.0146627565982405
1.0127077223851415
1.0117302052785924
1.0097751710654936
1.007820136852395
1.0058651026392962
1.0039100684261977
1.0019550342130987
1.0009775171065494
1.0009775171065494
1.0019550342130987
1.0058651026392962
1.0097751710654936
1.0127077223851415
1.0146627565982405
1.0156402737047898
1.0166177908113392
1.0166177908113392
1.0166177908113392
1.0166177908113392
1.0166177908113392
1.0175953079178883
1.0195503421309873
1.0234604105571847
1.029325513196481
1.0332355816226784
1.035190615835777
1.0361681329423265
1.0361681329423265
1.035190615835777
1.0332355816226784
1.032258064516129
1.032258064516129
1.0371456500488758
1.0488758553274682
1.0733137829912025
1.10752688172043
1.1534701857282503
1.2228739002932552
1.3157380254154447
1.4301075268817205
1.5620723362658846
1.7067448680351909
1.858260019550342
2.0087976539589443
2.1524926686217007
2.2854349951124147
2.4027370478983383
2.490713587487781
2.557184750733138
2.6207233626588464
2.674486803519061
2.719452590420332
2.7546432062561097
2.7810361681329425
2.7996089931573804
2.809384164222874
2.811339198435973
2.806451612903226
2.792766373411535
2.76930596285435
2.7370478983382207
2.696969696969697
2.6471163245356792
2.589442815249267
2.52297165200391
2.4516129032258065
2.377321603128055
2.303030303030303
2.231671554252199
2.1652003910068425
2.104594330400782
2.050830889540567
2.007820136852395
1.9726295210166176
1.9393939393939397
1.9100684261974583
1.8836754643206255
1.8592375366568916
1.8347996089931573
1.8113391984359728
1.7878787878787878
1.7634408602150538
1.737047898338221
1.7086999022482894
1.6774193548387095
1.6480938416422288
1.619745845552297
1.587487781036168
1.552297165200391
1.5161290322580645
1.4809384164222874
1.4467253176930597
1.4134897360703813
1.3822091886608017
1.3528836754643203
1.3255131964809383
1.300097751710655
1.2795698924731185
1.2619745845552297
1.2424242424242424
1.2228739002932552
1.2043010752688172
1.1867057673509287
1.1720430107526882
1.1593352883675463
1.147605083088954
1.1358748778103618
1.1241446725317692
1.1143695014662756
1.1065493646138806
1.1036168132942326
1.1026392961876832
1.099706744868035
1.0957966764418376
1.0918866080156402
1.0879765395894427
1.0840664711632453
1.0791788856304985
1.0733137829912025
1.0684261974584557
1.0635386119257086
1.0596285434995112
1.0576735092864125
1.0576735092864125
1.0557184750733135
1.053763440860215
1.050830889540567
1.0478983382209188
1.0439882697947214
1.040078201368524
1.0371456500488758
1.035190615835777
1.0342130987292275
1.0342130987292275
1.0342130987292275
1.0361681329423265
1.0381231671554252
1.0391006842619743
1.0391006842619743
1.0391006842619743
1.0381231671554252
1.0371456500488758
1.0361681329423265
1.035190615835777
1.035190615835777
1.0371456500488758
1.04594330400782
1.0606060606060606
1.086021505376344
1.1280547409579669
1.1906158357771262
1.2756598240469208
1.383186705767351
1.5102639296187683
1.653958944281525
1.8064516129032255
1.962854349951124
2.1163245356793743
2.260997067448681
2.3929618768328447
2.493646138807429
2.5718475073313782
2.64613880742913
2.7126099706744866
2.7673509286412514
2.811339198435973
2.8455522971652005
2.8719452590420333
2.89247311827957
2.906158357771261
2.913000977517106
2.9120234604105573
2.8993157380254155
2.877810361681329
2.850439882697948
2.814271749755621
2.766373411534702
2.70772238514174
2.6402737047898337
2.5650048875855327
2.484848484848485
2.4027370478983383
2.3225806451612905
2.247311827956989
2.1847507331378297
2.1309872922776147
2.081133919843597
2.037145650048876
1.9980449657869013
1.964809384164223
1.935483870967742
1.90811339198436
1.881720430107527
1.855327468230694
1.827956989247312
1.7996089931573802
1.7683284457478006
1.739980449657869
1.7126099706744868
1.6813294232649072
1.6471163245356797
1.611925708699902
1.5757575757575757
1.5395894428152492
1.504398826979472
1.469208211143695
1.4349951124144673
1.4027370478983383
1.3724340175953078
1.3470185728250244
1.3255131964809383
1.3020527859237536
1.2776148582600195
1.2541544477028348
1.2326490713587488
1.2130987292277615
1.195503421309873
1.1808406647116323
1.1681329423264908
1.1564027370478984
1.144672531769306
1.1329423264907137
1.1251221896383188
1.1192570869990224
1.1124144672531768
1.1065493646138806
1.1006842619745845
1.0948191593352885
1.088954056695992
1.083088954056696
1.0772238514173995
1.0713587487781036
1.0664711632453567
1.06158357771261
1.0586510263929618
1.0576735092864125
1.053763440860215
1.0488758553274682
1.0439882697947214
1.0391006842619743
1.0342130987292275
1.0303030303030305
1.0263929618768328
1.0234604105571847
1.021505376344086
1.0195503421309873
1.018572825024438
1.0205278592375366
1.0254154447702837
1.0283479960899315
1.0312805474095796
1.0332355816226784
1.0342130987292275
1.035190615835777
1.035190615835777
1.035190615835777
1.0342130987292275
1.035190615835777
1.0361681329423265
1.040078201368524
1.0449657869012707
1.0527859237536656
1.0684261974584557
1.0987292277614855
1.1466275659824048
1.2160312805474096
1.3079178885630498
1.423264907135875
1.5591397849462365
1.7096774193548387
1.869012707722385
2.029325513196481
2.164222873900293
2.2795698924731185
2.398826979472141
2.5112414467253177
2.608993157380254
2.6901270772238512
2.7565982404692084
2.809384164222874
2.8514173998044967
2.8836754643206257
2.909090909090909
2.927663734115347
2.9345063538611926
2.932551319648094
2.927663734115347
2.9149560117302054
2.89247311827957
2.860215053763441
2.817204301075269
2.7614858260019552
2.6959921798631474
2.622678396871945
2.5434995112414467
2.462365591397849
2.3812316715542523
2.3098729227761488
2.24633431085044
2.1847507331378297
2.1270772238514173
2.0772238514174
2.0332355816226784
1.9960899315738023
1.963831867057673
1.9345063538611929
1.906158357771261
1.87683284457478
1.8484848484848484
1.823069403714565
1.7976539589442817
1.7683284457478006
1.737047898338221
1.7028347996089932
1.6666666666666667
1.6275659824046922
1.5884652981427174
1.5493646138807429
1.512218963831867
1.4760508308895406
1.4418377321603129
1.4086021505376345
1.3812316715542523
1.356793743890518
1.3304007820136852
1.3020527859237536
1.273704789833822
1.2473118279569892
1.2238514173998043
1.203323558162268
1.18475073313783
1.1671554252199414
1.1505376344086022
1.1358748778103618
1.126099706744868
1.1192570869990224
1.1114369501466277
1.1026392961876832
1.093841642228739
1.0850439882697946
1.0762463343108504
1.067448680351906
1.0596285434995112
1.0527859237536656
1.0469208211143697
1.0420332355816226
1.0391006842619743
1.0381231671554252
1.0391006842619743
1.0381231671554252
1.0371456500488758
1.035190615835777
1.032258064516129
1.029325513196481
1.0263929618768328
1.024437927663734
1.0224828934506354
1.0195503421309873
1.0175953079178883
1.0175953079178883
1.0195503421309873
1.0195503421309873
1.0195503421309873
1.0195503421309873
1.0205278592375366
1.0224828934506354
1.024437927663734
1.0254154447702837
1.0254154447702837
1.024437927663734
1.0234604105571847
1.021505376344086
1.0224828934506354
1.0263929618768328
1.0312805474095796
1.0420332355816226
1.0635386119257086
1.1016617790811338
1.1593352883675463
1.2404692082111437
1.3440860215053765
1.469208211143695
1.6109481915933528
1.7653958944281525
1.903225806451613
2.03128054740958
2.172043010752688
2.3118279569892475
2.441837732160313
2.557184750733138
2.6559139784946235
2.73802541544477
2.8054740957966766
2.860215053763441
2.903225806451613
2.936461388074292
2.960899315738025
2.9716520039100685
2.973607038123167
2.9745845552297165
2.9696969696969697
2.956011730205278
2.9335288367546437
2.900293255131965
2.855327468230694
2.798631476050831
2.732160312805474
2.6578690127077222
2.5777126099706744
2.5024437927663734
2.43108504398827
2.355816226783969
2.281524926686217
2.212121212121212
2.1495601173020527
2.0948191593352883
2.047898338220919
2.007820136852395
1.9745845552297163
1.9442815249266865
1.9159335288367547
1.8914956011730208
1.868035190615836
1.8416422287390029
1.8142717497556209
1.7859237536656891
1.7556207233626588
1.7243401759530792
1.6920821114369502
1.6588465298142718
1.6265884652981428
1.5943304007820136
1.5620723362658846
1.5298142717497556
1.5024437927663734
1.478005865102639
1.4506353861192571
1.423264907135875
1.3949169110459434
1.3665689149560116
1.33822091886608
1.3088954056695992
1.2805474095796676
1.252199413489736
1.224828934506354
1.198435972629521
1.1798631476050832
1.1652003910068427
1.147605083088954
1.1319648093841643
1.118279569892473
1.1085043988269794
1.1006842619745845
1.0957966764418376
1.093841642228739
1.0948191593352885
1.0987292277614855
1.104594330400782
1.1114369501466277
1.1192570869990224
1.1280547409579669
1.1348973607038124
1.13880742913001
1.141739980449658
1.144672531769306
1.144672531769306
1.1436950146627567
1.1407624633431086
1.1358748778103618
1.1300097751710656
1.1231671554252198
1.1173020527859236
1.1124144672531768
1.1055718475073313
1.096774193548387
1.086021505376344
1.0742913000977516
1.06158357771261
1.0488758553274682
1.0361681329423265
1.024437927663734
1.013685239491691
1.0039100684261977
0.9960899315738024
0.9921798631476052
0.9902248289345064
0.9863147605083088
0.9833822091886608
0.981427174975562
0.9824046920821116
0.989247311827957
1.0068426197458455
1.040078201368524
1.0928641251221896
1.1681329423264908
1.267839687194526
1.3714565004887584
1.482893450635386
1.6217008797653958
1.775171065493646
1.9335288367546437
2.088954056695992
2.2346041055718477
2.3655913978494625
2.479960899315738
2.576735092864125
2.6559139784946235
2.718475073313783
2.766373411534702
2.7947214076246336
2.8103616813294234
2.825024437927664
2.8396871945259043
2.8514173998044967
2.8563049853372435
2.8533724340175954
2.841642228739003
2.820136852394917
2.7869012707722387
2.742913000977517
2.687194525904203
2.627565982404692
2.5640273704789838
2.4916911045943304
2.41544477028348
2.3382209188660803
2.2629521016617797
2.1915933528836757
2.1280547409579667
2.0733137829912023
2.026392961876833
1.986314760508309
1.9521016617790807
1.921798631476051
1.8963831867057677
1.8729227761485825
1.847507331378299
1.8211143695014664
1.7927663734115349
1.7634408602150538
1.7341153470185728
1.7028347996089932
1.6705767350928642
1.6373411534701858
1.603128054740958
1.56891495601173
1.5386119257087
1.5112414467253177
1.479960899315738
1.4486803519061584
1.4164222873900294
1.3851417399804498
1.3548387096774193
1.3255131964809383
1.2971652003910068
1.2717497556207231
1.2482893450635386
1.227761485826002
1.209188660801564
1.1964809384164223
1.1857282502443791
1.1730205278592376
1.160312805474096
1.1485826001955035
1.1368523949169111
1.1280547409579669
1.121212121212121
1.115347018572825
1.110459433040078
1.1055718475073313
1.1006842619745845
1.0987292277614855
1.0987292277614855
1.0948191593352885
1.088954056695992
1.0811339198435972
1.072336265884653
1.064516129032258
1.0586510263929618
1.053763440860215
1.0518084066471165
1.0518084066471165
1.0527859237536656
1.0547409579667644
1.0586510263929618
1.0635386119257086
1.067448680351906
1.0713587487781036
1.0742913000977516
1.078201368523949
1.0811339198435972
1.0850439882697946
1.0879765395894427
1.0899315738025417
1.0909090909090908
1.0909090909090908
1.0928641251221896
1.0948191593352885
1.0948191593352885
1.0948191593352885
1.0948191593352885
1.0948191593352885
1.0948191593352885
1.0987292277614855
1.1085043988269794
1.1290322580645162
1.164222873900293
1.2189638318670577
1.2961876832844574
1.3792766373411536
1.474095796676442
1.598240469208211
1.7438905180840665
1.902248289345064
2.0635386119257086
2.2218963831867056
2.3704789833822093
2.506353861192571
2.6265884652981426
2.7311827956989245
2.822091886608016
2.8885630498533725
2.9393939393939394
2.991202346041056
3.040078201368524
3.0821114369501466
3.118279569892473
3.146627565982405
3.166177908113392
3.177908113391984
3.1788856304985336
3.16911045943304
3.146627565982405
3.1114369501466275
3.065493646138808
3.005865102639296
2.9345063538611926
2.852394916911046
2.760508308895406
2.6637341153470184
2.565982404692082
2.4701857282502444
2.3792766373411536
2.297165200391007
2.2218963831867056
2.155425219941349
2.102639296187683
2.059628543499511
2.018572825024438
1.9804496578690127
1.946236559139785
1.9149560117302051
1.8836754643206255
1.8514173998044965
1.8201368523949168
1.7878787878787878
1.75366568914956
1.718475073313783
1.6871945259042034
1.6588465298142718
1.6256109481915937
1.590420332355816
1.5542521994134897
1.5190615835777126
1.482893450635386
1.447702834799609
1.4134897360703813
1.380254154447703
1.3479960899315735
1.316715542521994
1.2873900293255132
1.2649071358748778
1.24633431085044
1.2267839687194526
1.209188660801564
1.1915933528836755
1.1759530791788857
1.1612903225806452
1.147605083088954
1.1368523949169111
1.1270772238514175
1.1173020527859236
1.10752688172043
1.1016617790811338
1.0987292277614855
1.0928641251221896
1.086021505376344
1.0791788856304985
1.072336265884653
1.0664711632453567
1.06158357771261
1.0576735092864125
1.053763440860215
1.050830889540567
1.0469208211143697
1.043010752688172
1.0420332355816226
1.0420332355816226
1.0391006842619743
1.0342130987292275
1.0303030303030305
1.0254154447702837
1.021505376344086
1.018572825024438
1.0156402737047898
1.013685239491691
1.0117302052785924
1.0097751710654936
1.0117302052785924
1.0146627565982405
1.0156402737047898
1.0166177908113392
1.0166177908113392
1.0146627565982405
1.0127077223851415
1.010752688172043
1.0087976539589445
1.007820136852395
1.0097751710654936
1.0175953079178883
1.0342130987292275
1.0596285434995112
1.0987292277614855
1.1583577712609971
1.2404692082111437
1.3440860215053765
1.4682306940371457
1.6099706744868034
1.7624633431085044
1.919843597262952
2.075268817204301
2.222873900293255
2.357771260997068
2.4613880742913
2.5425219941348973
2.621700879765396
2.6901270772238512
2.745845552297165
2.789833822091887
2.8240469208211145
2.8514173998044967
2.870967741935484
2.8836754643206257
2.8914956011730206
2.8914956011730206
2.881720430107527
2.86217008797654
2.832844574780059
2.7947214076246336
2.745845552297165
2.6852394916911044
2.616813294232649
2.541544477028348
2.462365591397849
2.3822091886608017
2.304985337243402
2.232649071358749
2.167155425219941
2.113391984359726
2.0684261974584555
2.026392961876833
1.989247311827957
1.9560117302052784
1.9257086999022484
1.8983382209188664
1.870967741935484
1.842619745845552
1.8132942326490715
1.7653958944281525
1.7086999022482894
1.664711632453568
1.629521016617791
1.6001955034213098
1.56891495601173
1.5356793743890518
1.5024437927663734
