ppg
2.964809384164223
2.9472140762463344
2.921798631476051
2.884652981427175
2.835777126099707
2.776148582600196
2.7067448680351904
2.6295210166177907
2.548387096774193
2.4682306940371457
2.391006842619746
2.320625610948192
2.2629521016617797
2.21505376344086
2.1710654936461387
2.131964809384164
2.0957966764418376
2.0625610948191597
2.029325513196481
1.9960899315738023
1.962854349951124
1.9286412512218964
1.8934506353861196
1.857282502443793
1.826001955034213
1.7956989247311828
1.761485826001955
1.7253176930596286
1.689149560117302
1.6529814271749756
1.616813294232649
1.581622678396872
1.547409579667644
1.5151515151515151
1.4848484848484849
1.457478005865103
1.4330400782013686
1.4134897360703813
1.3978494623655917
1.3792766373411536
1.3607038123167154
1.3411534701857282
1.3225806451612905
1.3049853372434017
1.2883675464320623
1.2727272727272727
1.2590420332355816
1.24633431085044
1.2336265884652982
1.224828934506354
1.2179863147605083
1.209188660801564
1.2013685239491692
1.1925708699902249
1.1837732160312806
1.1749755620723363
1.1652003910068427
1.155425219941349
1.1456500488758554
1.1368523949169111
1.1290322580645162
1.1241446725317692
1.121212121212121
1.115347018572825
1.10752688172043
1.099706744868035
1.0928641251221896
1.0869990224828934
1.0821114369501466
1.078201368523949
1.075268817204301
1.072336265884653
1.0703812316715542
1.0684261974584557
1.0694037145650048
1.072336265884653
1.0733137829912025
1.0742913000977516
1.0742913000977516
1.075268817204301
1.078201368523949
1.086021505376344
1.104594330400782
1.1378299120234605
1.1915933528836755
1.2697947214076246
1.3577712609970674
1.4594330400782014
1.5923753665689149
1.747800586510264
1.9159335288367547
2.086021505376344
2.249266862170088
2.398826979472141
2.529814271749756
2.641251221896383
2.7331378299120237
2.806451612903226
2.863147605083089
2.900293255131965
2.9227761485826003
2.9423264907135875
2.956989247311828
2.9657869012707723
2.967741935483871
2.960899315738025
2.945259042033236
2.918866080156403
2.8797653958944283
2.827956989247312
2.764418377321604
2.6989247311827955
2.631476050830889
2.555229716520039
2.4780058651026398
2.4027370478983383
2.334310850439883
2.272727272727273
2.217986314760508
2.1710654936461387
2.1300097751710654
2.093841642228739
2.059628543499511
2.026392961876833
1.997067448680352
1.9687194525904204
1.9364613880742916
1.900293255131965
1.8621700879765395
1.822091886608016
1.7820136852394917
1.7429130009775171
1.7038123167155426
1.6656891495601174
1.6285434995112416
1.5923753665689149
1.563049853372434
1.5366568914956011
1.5073313782991202
1.478005865102639
1.4506353861192571
1.4242424242424243
1.3998044965786902
1.3782991202346042
1.3587487781036167
1.3411534701857282
1.3255131964809383
1.310850439882698
1.2961876832844574
1.2854349951124144
1.2766373411534702
1.2658846529814272
1.2551319648093842
1.2453567937438903
1.2365591397849462
1.227761485826002
1.2189638318670577
1.2101661779081134
1.2023460410557183
1.195503421309873
1.187683284457478
1.181818181818182
1.1779081133919844
1.1720430107526882
1.164222873900293
1.155425219941349
1.1456500488758554
1.1378299120234605
1.1300097751710656
1.1231671554252198
1.1163245356793745
1.1094819159335287
1.1036168132942326
1.0987292277614855
1.0977517106549364
1.0977517106549364
1.096774193548387
1.0957966764418376
1.0948191593352885
1.0948191593352885
1.0948191593352885
1.0948191593352885
1.0948191593352885
1.0948191593352885
1.0957966764418376
1.1016617790811338
1.0977517106549364
1.0948191593352885
1.118279569892473
1.1671554252199414
1.2443792766373412
1.3509286412512218
1.4848484848484849
1.6422287390029326
1.8142717497556209
1.994134897360704
2.172043010752688
2.3382209188660803
2.487781036168133
2.601173020527859
2.6881720430107525
2.76930596285435
2.8396871945259043
2.8963831867057674
2.9423264907135875
2.978494623655914
3.004887585532747
3.024437927663734
3.035190615835777
3.037145650048876
3.0283479960899315
3.0087976539589443
2.978494623655914
2.9374389051808407
2.8856304985337244
2.822091886608016
2.747800586510264
2.6666666666666665
2.582600195503421
2.498533724340176
2.418377321603128
2.346041055718475
2.281524926686217
2.2267839687194524
2.182795698924731
2.145650048875855
2.110459433040078
2.0762463343108504
2.042033235581622
2.006842619745845
1.970674486803519
1.932551319648094
1.8934506353861196
1.8523949169110456
1.8113391984359728
1.76930596285435
1.732160312805474
1.6989247311827955
1.66177908113392
1.6226783968719452
1.58455522971652
1.547409579667644
1.5112414467253177
1.4760508308895406
1.4437927663734116
1.4134897360703813
1.3851417399804498
1.3587487781036167
1.335288367546432
1.3176930596285434
1.303030303030303
1.2873900293255132
1.2717497556207231
1.2561094819159335
1.2404692082111437
1.2238514173998043
1.209188660801564
1.195503421309873
1.1827956989247312
1.1700879765395895
1.1573802541544478
1.1485826001955035
1.141739980449658
1.1329423264907137
1.1231671554252198
1.1133919843597262
1.1036168132942326
1.0928641251221896
1.083088954056696
1.0742913000977516
1.0654936461388074
1.056695992179863
1.0488758553274682
1.0410557184750733
1.0371456500488758
1.0361681329423265
1.032258064516129
1.0283479960899315
1.0224828934506354
1.0166177908113392
1.010752688172043
1.0058651026392962
1.0019550342130987
0.9990224828934506
0.9960899315738024
0.9941348973607038
0.9960899315738024
1.0019550342130987
1.0068426197458455
1.0097751710654936
1.0127077223851415
1.0156402737047898
1.021505376344086
1.032258064516129
1.053763440860215
1.0899315738025417
1.147605083088954
1.23069403714565
1.321603128054741
1.4281524926686218
1.5679374389051808
1.7311827956989247
1.90811339198436
2.0879765395894427
2.260997067448681
2.420332355816227
2.560117302052786
2.678396871945259
2.774193548387097
2.849462365591398
2.90811339198436
2.9442815249266863
2.9657869012707723
2.9853372434017595
3.0
3.007820136852395
3.0087976539589443
3.0019550342130987
2.9853372434017595
2.956011730205278
2.9149560117302054
2.8611925708699903
2.7966764418377323
2.730205278592375
2.6608015640273703
2.58455522971652
2.505376344086021
2.4281524926686218
2.3548387096774195
2.2883675464320627
2.228739002932551
2.177908113391984
2.132942326490713
2.093841642228739
2.056695992179863
2.021505376344086
1.9902248289345064
1.9608993157380252
1.9286412512218964
1.8934506353861196
1.8563049853372435
1.8172043010752688
1.7781036168132942
1.7390029325513197
1.6989247311827955
1.6598240469208212
1.619745845552297
1.581622678396872
1.5493646138807429
1.521016617790811
1.4897360703812317
1.457478005865103
1.4271749755620724
1.3988269794721409
1.3734115347018572
1.3499511241446724
1.3284457478005864
1.3088954056695992
1.2913000977517106
1.2746823069403714
1.2590420332355816
1.2482893450635386
1.238514173998045
1.2267839687194526
1.2140762463343109
1.2023460410557183
1.1915933528836755
1.1808406647116323
1.1700879765395895
1.1593352883675463
1.1485826001955035
1.13880742913001
1.1290322580645162
1.1221896383186705
1.1173020527859236
1.110459433040078
1.1026392961876832
1.0948191593352885
1.0879765395894427
1.0821114369501466
1.0772238514173995
1.0713587487781036
1.0654936461388074
1.0606060606060606
1.0557184750733135
1.050830889540567
1.0498533724340176
1.0498533724340176
1.0478983382209188
1.0449657869012707
1.0420332355816226
1.040078201368524
1.0381231671554252
1.0371456500488758
1.0371456500488758
1.0371456500488758
1.0381231671554252
1.0381231671554252
1.0410557184750733
1.0469208211143697
1.0527859237536656
1.0606060606060606
1.0762463343108504
1.104594330400782
1.1515151515151516
1.2209188660801564
1.3157380254154447
1.4379276637341154
1.58455522971652
1.7497556207233629
1.9257086999022484
2.0791788856304985
2.2160312805474094
2.358748778103617
2.493646138807429
2.611925708699902
2.7116324535679373
2.791788856304985
2.854349951124145
2.902248289345064
2.9374389051808407
2.962854349951124
2.978494623655914
2.981427174975562
2.972629521016618
2.959921798631476
2.940371456500489
2.9100684261974585
2.8699902248289346
2.8181818181818183
2.7546432062561097
2.6832844574780057
2.606060606060606
2.5268817204301075
2.4486803519061584
2.375366568914956
2.313782991202346
2.260019550342131
2.209188660801564
2.1652003910068425
2.126099706744868
2.089931573802541
2.0518084066471163
2.0117302052785924
1.975562072336266
1.9393939393939397
1.9012707722385145
1.8621700879765395
1.826001955034213
1.7917888563049853
1.75366568914956
1.7135874877810362
1.6744868035190617
1.6363636363636365
1.5992179863147604
1.564027370478983
1.5317693059628543
1.500488758553275
1.4711632453567938
1.4418377321603129
1.414467253176931
1.392961876832845
1.3743890518084063
1.3548387096774193
1.3362658846529814
1.3186705767350928
1.3020527859237536
1.2854349951124144
1.270772238514174
1.2561094819159335
1.241446725317693
1.2267839687194526
1.2130987292277615
1.2043010752688172
1.198435972629521
1.1896383186705768
1.1788856304985338
1.1681329423264908
1.1573802541544478
1.147605083088954
1.13880742913001
1.130987292277615
1.1241446725317692
1.1173020527859236
1.1085043988269794
1.099706744868035
1.093841642228739
1.088954056695992
1.0821114369501466
1.075268817204301
1.0694037145650048
1.0635386119257086
1.0586510263929618
1.053763440860215
1.0478983382209188
1.0420332355816226
1.0371456500488758
1.0332355816226784
1.0332355816226784
1.0361681329423265
1.0371456500488758
1.0381231671554252
1.0381231671554252
1.0381231671554252
1.0381231671554252
1.0381231671554252
1.0391006842619743
1.0439882697947214
1.0557184750733135
1.078201368523949
1.1094819159335287
1.155425219941349
1.2267839687194526
1.3255131964809383
1.4496578690127078
1.5962854349951123
1.7605083088954057
1.9345063538611929
2.10850439882698
2.272727272727273
2.4222873900293256
2.5532746823069403
2.662756598240469
2.740957966764418
2.7966764418377323
2.84652981427175
2.887585532746823
2.919843597262952
2.9442815249266863
2.960899315738025
2.9696969696969697
2.970674486803519
2.962854349951124
2.946236559139785
2.917888563049853
2.8807429130009776
2.833822091886608
2.7751710654936463
2.7067448680351904
2.6295210166177907
2.548387096774193
2.466275659824047
2.3870967741935485
2.314760508308896
2.2502443792766376
2.193548387096774
2.144672531769306
2.103616813294233
2.069403714565005
2.0391006842619745
2.007820136852395
1.975562072336266
1.9423264907135875
1.906158357771261
1.869012707722385
1.8299120234604105
1.790811339198436
1.7497556207233629
1.7086999022482894
1.6686217008797657
1.6344086021505375
1.6041055718475072
1.5708699902248289
1.5366568914956011
1.5034213098729228
1.4711632453567938
1.439882697947214
1.4105571847507332
1.383186705767351
1.3587487781036167
1.3362658846529814
1.3147605083088951
1.2942326490713587
1.2795698924731185
1.2688172043010753
1.2561094819159335
1.241446725317693
1.2267839687194526
1.2121212121212122
1.198435972629521
1.1857282502443791
1.1730205278592376
1.160312805474096
1.1485826001955035
1.1378299120234605
1.130987292277615
1.126099706744868
1.118279569892473
1.1085043988269794
1.0977517106549364
1.0879765395894427
1.078201368523949
1.0694037145650048
1.06158357771261
1.053763440860215
1.0469208211143697
1.0410557184750733
1.035190615835777
1.0332355816226784
1.0332355816226784
1.0312805474095796
1.0283479960899315
1.024437927663734
1.0205278592375366
1.0175953079178883
1.0146627565982405
1.0117302052785924
1.0087976539589445
1.0068426197458455
1.0058651026392962
1.0087976539589445
1.0127077223851415
1.0146627565982405
1.0166177908113392
1.018572825024438
1.0234604105571847
1.0332355816226784
1.053763440860215
1.088954056695992
1.1436950146627567
1.2218963831867058
1.327468230694037
1.457478005865103
1.585532746823069
1.7165200391006843
1.871945259042033
2.037145650048876
2.19941348973607
2.3499511241446727
2.4819159335288368
2.593352883675464
2.6852394916911044
2.757575757575758
2.8132942326490715
2.854349951124145
2.877810361681329
2.8885630498533725
2.895405669599218
2.8944281524926687
2.8826979472140764
2.8582600195503423
2.820136852394917
2.7673509286412514
2.7008797653958942
2.6207233626588464
2.530791788856305
2.4349951124144678
2.3382209188660803
2.254154447702835
2.179863147605083
2.10850439882698
2.0449657869012707
1.992179863147605
1.9501466275659824
1.9188660801564028
1.8944281524926687
1.87683284457478
1.86119257086999
1.8465298142717497
1.83088954056696
1.81524926686217
1.7976539589442817
1.7761485826001957
1.750733137829912
1.7233626588465298
1.694037145650049
1.6637341153470186
1.6334310850439884
1.603128054740958
1.573802541544477
1.5454545454545454
1.5180840664711632
1.4916911045943304
1.4701857282502444
1.4516129032258065
1.4301075268817205
1.4086021505376345
1.388074291300098
1.3685239491691104
1.3519061583577712
1.3372434017595307
1.324535679374389
1.3118279569892473
1.300097751710655
1.2883675464320623
1.2795698924731185
1.2727272727272727
1.2639296187683284
1.2541544477028348
1.2443792766373412
1.2336265884652982
1.2228739002932552
1.2111436950146628
1.2003910068426198
1.1906158357771262
1.1798631476050832
1.1691104594330402
1.1583577712609971
1.1505376344086022
1.1456500488758554
1.1407624633431086
1.1348973607038124
1.1290322580645162
1.1231671554252198
1.1173020527859236
1.110459433040078
1.104594330400782
1.0987292277614855
1.0918866080156402
1.086021505376344
1.083088954056696
1.0821114369501466
1.0801564027370478
1.078201368523949
1.0772238514173995
1.0772238514173995
1.0772238514173995
1.0772238514173995
1.0772238514173995
1.0772238514173995
1.0772238514173995
1.0772238514173995
1.0801564027370478
1.0879765395894427
1.1036168132942326
1.130987292277615
1.176930596285435
1.2443792766373412
1.3391984359726294
1.4613880742913
1.607038123167155
1.772238514173998
1.9472140762463344
2.1251221896383186
2.2961876832844577
2.434017595307918
2.5464320625610948
2.654936461388074
2.7517106549364616
2.83088954056696
2.8944281524926687
2.943304007820137
2.979472140762464
3.005865102639296
3.0234604105571847
3.034213098729228
3.037145650048876
3.0283479960899315
3.0097751710654936
2.98435972629521
2.948191593352884
2.9012707722385143
2.8426197458455524
2.774193548387097
2.6989247311827955
2.618768328445748
2.5376344086021505
2.458455522971652
2.3851417399804498
2.318670576735093
2.2629521016617797
2.2170087976539588
2.1739980449657867
2.134897360703812
2.0987292277614857
2.064516129032258
2.0303030303030303
1.9951124144672527
1.9589442815249267
1.921798631476051
1.8836754643206255
1.842619745845552
1.8054740957966764
1.7712609970674489
1.7331378299120237
1.6930596285434996
1.6529814271749756
1.6138807429130009
1.576735092864125
1.5405669599217986
1.5063538611925709
1.4750733137829912
1.4467253176930597
1.4213098729227762
1.396871945259042
1.3773216031280548
1.3607038123167154
1.3411534701857282
1.3206256109481915
1.3020527859237536
1.284457478005865
1.2688172043010753
1.2531769305962854
1.238514173998045
1.224828934506354
1.2111436950146628
1.198435972629521
1.1896383186705768
1.1827956989247312
1.1730205278592376
1.1622678396871946
1.1505376344086022
1.1397849462365592
1.1290322580645162
1.118279569892473
1.1085043988269794
1.0977517106549364
1.0879765395894427
1.0791788856304985
1.0703812316715542
1.0664711632453567
1.064516129032258
1.0596285434995112
1.053763440860215
1.0488758553274682
1.0439882697947214
1.040078201368524
1.0361681329423265
1.0312805474095796
1.0273704789833822
1.0224828934506354
1.0175953079178883
1.0166177908113392
1.0166177908113392
1.0156402737047898
1.0146627565982405
1.013685239491691
1.013685239491691
1.013685239491691
1.013685239491691
1.013685239491691
1.0156402737047898
1.0224828934506354
1.0381231671554252
1.067448680351906
1.1055718475073313
1.1583577712609971
1.2394916911045943
1.3479960899315735
1.4838709677419355
1.6422287390029326
1.81524926686217
1.9951124144672527
2.1710654936461387
2.334310850439883
2.479960899315738
2.6050830889540566
2.6959921798631474
2.763440860215054
2.825024437927664
2.87683284457478
2.917888563049853
2.9501466275659824
2.9745845552297165
2.991202346041056
2.99902248289345
2.99902248289345
2.9902248289345064
2.9696969696969697
2.936461388074292
2.8944281524926687
2.843597262952102
2.7810361681329425
2.710654936461388
2.633431085043988
2.5532746823069403
2.4731182795698925
2.396871945259042
2.3274682306940373
2.2658846529814274
2.212121212121212
2.166177908113392
2.1280547409579667
2.0957966764418376
2.0635386119257086
2.03128054740958
1.9980449657869013
1.962854349951124
1.9257086999022484
1.8875855327468232
1.8494623655913975
1.8103616813294232
1.772238514173998
1.7350928641251222
1.6989247311827955
1.6686217008797657
1.6422287390029326
1.6138807429130009
1.585532746823069
1.5581622678396871
1.5317693059628543
1.5063538611925709
1.482893450635386
1.4604105571847508
1.4379276637341154
1.4164222873900294
1.3958944281524928
1.380254154447703
1.3665689149560116
1.3509286412512218
1.335288367546432
1.3196480938416422
1.303030303030303
1.2873900293255132
1.273704789833822
1.2609970674486803
1.2482893450635386
1.2355816226783969
1.2228739002932552
1.2101661779081134
1.2013685239491692
1.1945259042033236
1.18475073313783
1.173998044965787
1.164222873900293
1.1544477028347997
1.1456500488758554
1.1378299120234605
1.1290322580645162
1.1202346041055715
1.110459433040078
1.1026392961876832
1.0987292277614855
1.096774193548387
1.0918866080156402
1.0869990224828934
1.0821114369501466
1.0791788856304985
1.0772238514173995
1.075268817204301
1.0733137829912025
1.072336265884653
1.0713587487781036
1.0713587487781036
1.0713587487781036
1.0742913000977516
1.0772238514173995
1.0791788856304985
1.0801564027370478
1.0811339198435972
1.0821114369501466
1.0850439882697946
1.093841642228739
1.1133919843597262
1.147605083088954
1.2023460410557183
1.2825024437927663
1.3714565004887584
1.474095796676442
1.608993157380254
1.7663734115347018
1.9364613880742916
2.10850439882698
2.2737047898338223
2.4164222873900294
2.535679374389052
2.6392961876832843
2.7262952101661777
2.7966764418377323
2.8426197458455524
2.8729227761485827
2.9012707722385143
2.9237536656891496
2.9393939393939394
2.9472140762463344
2.946236559139785
2.936461388074292
2.917888563049853
2.889540566959922
2.850439882697948
2.7996089931573804
2.7390029325513194
2.67644183773216
2.611925708699902
2.5405669599217986
2.4672531769305963
2.396871945259042
2.3313782991202348
2.271749755620724
2.218963831867057
2.1710654936461387
2.129032258064516
2.090909090909091
2.0547409579667644
2.022482893450636
1.992179863147605
1.9589442815249267
1.9227761485826005
1.8826979472140764
1.8377321603128052
1.7898338220918866
1.737047898338221
1.6813294232649072
1.6236559139784943
1.5650048875855327
1.5073313782991202
1.4516129032258065
1.4056695992179864
1.3665689149560116
1.3255131964809383
1.2873900293255132
1.2531769305962854
1.2238514173998043
1.198435972629521
1.1788856304985338
1.163245356793744
1.1515151515151516
1.1436950146627567
1.1407624633431086
1.1436950146627567
1.1505376344086022
1.1583577712609971
1.1691104594330402
1.1808406647116323
1.1915933528836755
1.2023460410557183
1.2111436950146628
1.2189638318670577
1.224828934506354
1.227761485826002
1.2267839687194526
1.2238514173998043
1.2209188660801564
1.2179863147605083
1.2121212121212122
1.2052785923753666
1.1994134897360704
1.1935483870967742
1.187683284457478
1.1798631476050832
1.1720430107526882
1.163245356793744
1.152492668621701
1.141739980449658
1.133919843597263
1.1290322580645162
1.121212121212121
1.1124144672531768
1.104594330400782
1.0977517106549364
1.0909090909090908
1.0850439882697946
1.0801564027370478
1.0762463343108504
1.0733137829912025
1.0713587487781036
1.0694037145650048
1.0694037145650048
1.0713587487781036
1.0713587487781036
1.0713587487781036
1.0742913000977516
1.0840664711632453
1.1065493646138806
1.1466275659824048
1.209188660801564
1.2981427174975562
1.41544477028348
1.5562072336265884
1.6920821114369502
1.827956989247312
1.9853372434017595
2.147605083088954
2.303030303030303
2.442815249266862
2.563049853372434
2.662756598240469
2.7419354838709675
2.8044965786901277
2.8533724340175954
2.8914956011730206
2.919843597262952
2.9335288367546437
2.9393939393939394
2.9442815249266863
2.945259042033236
2.93841642228739
2.921798631476051
2.89247311827957
2.8484848484848486
2.791788856304985
2.7233626588465296
2.6451612903225805
2.5591397849462365
2.479960899315738
2.404692082111437
2.326490713587488
2.251221896383187
2.182795698924731
2.1221896383186705
2.070381231671554
2.024437927663734
1.9833822091886608
1.946236559139785
1.9100684261974583
1.8748778103616808
1.839687194525904
1.8084066471163245
1.7781036168132942
1.7429130009775171
1.7057673509286413
1.667644183773216
1.629521016617791
1.5923753665689149
1.5571847507331378
1.52297165200391
1.4887585532746823
1.455522971652004
1.423264907135875
1.3978494623655917
1.375366568914956
1.3509286412512218
1.3264907135874875
1.3020527859237536
1.2795698924731185
1.2590420332355816
1.2394916911045943
1.2209188660801564
1.203323558162268
1.1857282502443791
1.1691104594330402
1.152492668621701
1.1407624633431086
1.130987292277615
1.1192570869990224
1.1055718475073313
1.0928641251221896
1.0801564027370478
1.0684261974584557
1.0586510263929618
1.0478983382209188
1.0381231671554252
1.029325513196481
1.0205278592375366
1.0146627565982405
1.010752688172043
1.0048875855327468
0.9980449657869012
0.989247311827957
0.981427174975562
0.9736070381231672
0.9667644183773216
0.959921798631476
0.9530791788856304
0.9472140762463344
0.9423264907135877
0.93841642228739
0.93841642228739
0.9403714565004888
0.9403714565004888
0.9403714565004888
0.9403714565004888
0.9403714565004888
0.9403714565004888
0.9413489736070382
0.9413489736070382
0.9413489736070382
0.9413489736070382
0.9413489736070382
0.9442815249266864
0.9491691104594332
0.9550342130987292
0.9638318670576737
0.978494623655914
1.0058651026392962
1.050830889540567
1.118279569892473
1.2111436950146628
1.3294232649071358
1.4701857282502444
1.629521016617791
1.801564027370479
1.9530791788856303
2.090909090909091
2.2355816226783967
2.3734115347018574
2.496578690127077
2.5992179863147604
2.6823069403714563
2.7468230694037143
2.795698924731183
2.832844574780059
2.859237536656892
2.87683284457478
2.8826979472140764
2.8807429130009776
2.873900293255132
2.860215053763441
2.8367546432062563
2.801564027370479
2.7546432062561097
2.6959921798631474
2.6265884652981426
2.550342130987292
2.4711632453567938
2.3929618768328447
2.324535679374389
2.2639296187683287
2.2052785923753664
2.1524926686217007
2.1055718475073317
2.065493646138808
2.0303030303030303
1.9980449657869013
1.9667644183773216
1.9345063538611929
1.9012707722385145
1.8670576735092863
1.83088954056696
1.7976539589442817
1.780058651026393
1.7653958944281525
1.7380254154447703
1.7057673509286413
1.6705767350928642
1.635386119257087
1.6001955034213098
1.5650048875855327
1.5317693059628543
1.501466275659824
1.4731182795698925
1.4516129032258065
1.434017595307918
1.414467253176931
1.393939393939394
1.375366568914956
1.356793743890518
1.3391984359726294
1.3235581622678396
1.3088954056695992
1.2942326490713587
1.2805474095796676
1.2688172043010753
1.2580645161290325
1.2512218963831867
1.2453567937438903
1.2355816226783969
1.224828934506354
1.2140762463343109
1.2023460410557183
1.1915933528836755
1.181818181818182
1.1720430107526882
1.1622678396871946
1.152492668621701
1.1436950146627567
1.1378299120234605
1.133919843597263
1.1290322580645162
1.1231671554252198
