ppg
1.439882697947214
1.3998044965786902
1.3616813294232648
1.3255131964809383
1.2903225806451613
1.2580645161290325
1.2267839687194526
1.1964809384164223
1.1700879765395895
1.1515151515151516
1.1368523949169111
1.1202346041055715
1.1026392961876832
1.0869990224828934
1.075268817204301
1.067448680351906
1.0625610948191593
1.0606060606060606
1.06158357771261
1.0664711632453567
1.0762463343108504
1.0918866080156402
1.1143695014662756
1.144672531769306
1.1867057673509287
1.241446725317693
1.3088954056695992
1.391006842619746
1.4868035190615836
1.5933528836754642
1.70772238514174
1.8269794721407624
1.946236559139785
2.064516129032258
2.1652003910068425
2.2531769305962857
2.347996089931574
2.442815249266862
2.5347018572825024
2.621700879765396
2.7008797653958942
2.7722385141739982
2.834799608993157
2.887585532746823
2.929618768328446
2.959921798631476
2.9745845552297165
2.978494623655914
2.9775171065493646
2.9687194525904204
2.952101661779081
2.9286412512218964
2.897360703812317
2.8582600195503423
2.8152492668621703
2.76930596285435
2.721407624633431
2.6715542521994133
2.622678396871945
2.579667644183773
2.539589442815249
2.4975562072336266
2.455522971652004
2.4144672531769307
2.3734115347018574
2.3313782991202348
2.289345063538612
2.24633431085044
2.201368523949169
2.132942326490713
2.0518084066471163
1.991202346041056
1.9403714565004888
1.8885630498533723
1.836754643206256
1.7849462365591398
1.7341153470185728
1.6823069403714566
1.6314760508308896
1.581622678396872
1.5327468230694037
1.4858260019550342
1.4418377321603129
1.4007820136852396
1.3695014662756595
1.3440860215053765
1.3176930596285434
1.29227761485826
1.270772238514174
1.2551319648093842
1.24633431085044
1.2453567937438903
1.2561094819159335
1.2795698924731185
1.316715542521994
1.3665689149560116
1.4213098729227762
1.4819159335288368
1.555229716520039
1.6373411534701858
1.7253176930596286
1.8162267839687196
1.9071358748778104
1.9951124144672527
2.080156402737048
2.161290322580645
2.2385141739980448
2.310850439882698
2.377321603128055
2.429130009775171
2.4701857282502444
2.512218963831867
2.549364613880743
2.579667644183773
2.5992179863147604
2.6080156402737047
2.6080156402737047
2.5992179863147604
2.5806451612903225
2.5542521994134897
2.52297165200391
2.489736070381232
2.4545454545454546
2.4134897360703813
2.3714565004887587
2.3284457478005867
2.286412512218964
2.2453567937438903
2.2052785923753664
2.1652003910068425
2.1251221896383186
2.086021505376344
2.047898338220919
2.0097751710654936
1.9775171065493649
1.9472140762463344
1.9130009775171064
1.87683284457478
1.836754643206256
1.7947214076246334
1.7517106549364614
1.7096774193548387
1.667644183773216
1.6265884652981428
1.5865102639296187
1.5464320625610948
1.5131964809384164
1.4838709677419355
1.4506353861192571
1.4164222873900294
1.383186705767351
1.3509286412512218
1.3206256109481915
1.29227761485826
1.267839687194526
1.24633431085044
1.227761485826002
1.2111436950146628
1.1964809384164223
1.1886608015640274
1.1857282502443791
1.181818181818182
1.1788856304985338
1.1779081133919844
1.1788856304985338
1.1837732160312806
1.1925708699902249
1.2072336265884651
1.2287390029325511
1.2580645161290325
1.2971652003910068
1.3401759530791788
1.391006842619746
1.456500488758553
1.5356793743890518
1.6265884652981428
1.726295210166178
1.83088954056696
1.9374389051808407
2.0449657869012707
2.1495601173020527
2.251221896383187
2.347996089931574
2.4281524926686218
2.496578690127077
2.5698924731182795
2.643206256109482
2.713587487781036
2.779081133919844
2.8377321603128056
2.8885630498533725
2.929618768328446
2.961876832844575
2.9824046920821115
2.9931573802541545
2.9931573802541545
2.9824046920821115
2.961876832844575
2.9345063538611926
2.8993157380254155
2.857282502443793
2.8103616813294234
2.760508308895406
2.708699902248289
2.6559139784946235
2.6050830889540566
2.555229716520039
2.506353861192571
2.462365591397849
2.4222873900293256
2.3812316715542523
2.3391984359726297
2.2981427174975564
2.257086999022483
2.21505376344086
2.1710654936461387
2.126099706744868
2.0791788856304985
2.029325513196481
1.9775171065493649
1.924731182795699
1.878787878787879
1.8347996089931573
1.7849462365591398
1.7341153470185728
1.6823069403714566
1.6304985337243405
1.5796676441837731
1.530791788856305
1.4838709677419355
1.439882697947214
1.3988269794721409
1.3616813294232648
1.3343108504398826
1.3128054740957966
1.289345063538612
1.267839687194526
1.2502443792766371
1.238514173998045
1.2355816226783969
1.2443792766373412
1.2658846529814272
1.3020527859237536
1.35386119257087
1.4203323558162269
1.500488758553275
1.5796676441837731
1.6578690127077225
1.7497556207233629
1.8465298142717497
1.943304007820137
2.037145650048876
2.1251221896383186
2.2082111436950145
2.2844574780058653
2.35386119257087
2.4173998044965788
2.472140762463343
2.512218963831867
2.5425219941348973
2.5718475073313782
2.5972629521016617
2.6158357771261
2.6265884652981426
2.6285434995112413
2.6207233626588464
2.6041055718475072
2.578690127077224
2.5454545454545454
2.504398826979472
2.458455522971652
2.4134897360703813
2.3704789833822093
2.32355816226784
2.275659824046921
2.2267839687194524
2.177908113391984
2.1309872922776147
2.085043988269794
2.0391006842619745
1.9931573802541545
1.948191593352884
1.903225806451613
1.8641251221896384
1.827956989247312
1.7869012707722385
1.7438905180840665
1.6989247311827955
1.6529814271749756
1.6050830889540566
1.5571847507331378
1.5102639296187683
1.4643206256109482
1.4193548387096775
1.3763440860215057
1.3333333333333333
1.300097751710655
1.2727272727272727
1.241446725317693
1.209188660801564
1.1779081133919844
1.1485826001955035
1.121212121212121
1.096774193548387
1.0742913000977516
1.0547409579667644
1.0371456500488758
1.0234604105571847
1.0175953079178883
1.0166177908113392
1.013685239491691
1.010752688172043
1.010752688172043
1.013685239491691
1.021505376344086
1.0361681329423265
1.0596285434995112
1.093841642228739
1.1407624633431086
1.2013685239491692
1.2766373411534702
1.3528836754643203
1.4349951124144673
1.5347018572825024
1.6451612903225807
1.7595307917888563
1.8758553274682308
1.9931573802541545
2.1065493646138806
2.21505376344086
2.3167155425219943
2.410557184750733
2.498533724340176
2.567937438905181
2.624633431085044
2.6832844574780057
2.7390029325513194
2.7869012707722387
2.825024437927664
2.854349951124145
2.873900293255132
2.884652981427175
2.8856304985337244
2.87683284457478
2.859237536656892
2.833822091886608
2.803519061583578
2.76930596285435
2.7311827956989245
2.689149560117302
2.6451612903225805
2.60019550342131
2.555229716520039
2.5112414467253177
2.469208211143695
2.4281524926686218
2.388074291300098
2.3489736070381237
2.314760508308896
2.280547409579668
2.242424242424242
2.20039100684262
2.15347018572825
2.103616813294233
2.0518084066471163
1.9960899315738023
1.9393939393939397
1.881720430107527
1.825024437927664
1.7683284457478006
1.7135874877810362
1.6686217008797657
1.6285434995112416
1.58455522971652
1.5386119257087
1.4936461388074291
1.4506353861192571
1.4105571847507332
1.3743890518084063
1.3411534701857282
1.3118279569892473
1.2873900293255132
1.2688172043010753
1.2590420332355816
1.2580645161290325
1.2609970674486803
1.2727272727272727
1.2961876832844574
1.3333333333333333
1.3851417399804498
1.4516129032258065
1.5288367546432062
1.6138807429130009
1.704789833822092
1.7976539589442817
1.8905180840664717
1.970674486803519
2.042033235581622
2.1192570869990224
2.1974584555229715
2.272727272727273
2.3440860215053765
2.409579667644184
2.4672531769305963
2.517106549364614
2.558162267839687
2.589442815249267
2.611925708699902
2.622678396871945
2.6236559139784945
2.618768328445748
2.6070381231671558
2.587487781036168
2.560117302052786
2.5268817204301075
2.4887585532746823
2.447702834799609
2.403714565004888
2.358748778103617
2.312805474095797
2.270772238514174
2.231671554252199
2.1915933528836757
2.150537634408602
2.110459433040078
2.072336265884653
2.0332355816226784
1.9951124144672527
1.9579667644183771
1.919843597262952
1.881720430107527
1.8416422287390029
1.8005865102639296
1.7653958944281525
1.732160312805474
1.6950146627565983
1.653958944281525
1.6109481915933528
1.5679374389051808
1.5249266862170088
1.4838709677419355
1.4437927663734116
1.4056695992179864
1.370478983382209
1.3372434017595307
1.3118279569892473
1.2903225806451613
1.2668621700879763
1.2434017595307918
1.219941348973607
1.1994134897360704
1.1808406647116323
1.1652003910068427
1.152492668621701
1.141739980449658
1.1348973607038124
1.130987292277615
1.1290322580645162
1.1329423264907137
1.1407624633431086
1.1495601173020529
1.1622678396871946
1.181818181818182
1.2101661779081134
1.249266862170088
1.3010752688172045
1.367546432062561
1.4467253176930597
1.5376344086021505
1.6383186705767352
1.7311827956989247
1.8211143695014664
1.9227761485826005
2.029325513196481
2.136852394916911
2.241446725317693
2.3411534701857284
2.436950146627566
2.5268817204301075
2.6099706744868034
2.686217008797654
2.7546432062561097
2.8152492668621703
2.860215053763441
2.89345063538612
2.9257086999022484
2.952101661779081
2.9696969696969697
2.978494623655914
2.978494623655914
2.9667644183773216
2.946236559139785
2.9159335288367547
2.87683284457478
2.831867057673509
2.7869012707722387
2.739980449657869
2.689149560117302
2.6373411534701856
2.5865102639296187
2.536656891495601
2.487781036168133
2.4408602150537635
2.3958944281524928
2.3519061583577714
2.3098729227761488
2.2668621700879767
2.222873900293255
2.182795698924731
2.144672531769306
2.099706744868035
2.050830889540567
1.9990224828934504
1.946236559139785
1.8934506353861196
1.839687194525904
1.7859237536656891
1.7331378299120237
1.6813294232649072
1.6304985337243405
1.587487781036168
1.5503421309872922
1.5102639296187683
1.469208211143695
1.4281524926686218
1.3900293255131966
1.3548387096774193
1.321603128054741
1.2913000977517106
1.2649071358748778
1.2443792766373412
1.2316715542521994
1.227761485826002
1.2346041055718475
1.2512218963831867
1.2805474095796676
1.3255131964809383
1.3861192570869991
1.4594330400782014
1.542521994134897
1.632453567937439
1.7282502443792769
1.825024437927664
1.920821114369501
2.0127077223851417
2.089931573802541
2.158357771260997
2.23069403714565
2.3010752688172045
2.366568914956012
2.4252199413489737
2.474095796676442
2.5141739980449658
2.5454545454545454
2.5669599217986314
2.5777126099706744
2.578690127077224
2.5698924731182795
2.5542521994134897
2.5317693059628543
2.501466275659824
2.4652981427174976
2.423264907135875
2.378299120234604
2.3304007820136854
2.281524926686217
2.232649071358749
2.1837732160312804
2.136852394916911
2.089931573802541
2.047898338220919
2.0087976539589443
1.9667644183773216
1.9227761485826005
1.8797653958944285
1.836754643206256
1.7956989247311828
1.7546432062561097
1.7135874877810362
1.672531769305963
1.6304985337243405
1.564027370478983
1.4838709677419355
1.4301075268817205
1.388074291300098
1.3440860215053765
1.2991202346041055
1.2551319648093842
1.2130987292277615
1.1730205278592376
1.1348973607038124
1.0987292277614855
1.0654936461388074
1.035190615835777
1.007820136852395
0.989247311827957
0.9765395894428152
0.959921798631476
0.9423264907135877
0.9257086999022482
0.9100684261974584
0.8963831867057673
0.8866080156402737
0.8797653958944281
0.8768328445747801
0.8778103616813294
0.8836754643206256
0.8934506353861192
0.9100684261974584
0.9335288367546432
0.9648093841642228
1.0068426197458455
1.0606060606060606
1.1270772238514175
1.2082111436950147
1.303030303030303
1.4086021505376345
1.52297165200391
1.6422287390029326
1.7644183773216031
1.870967741935484
1.9687194525904204
2.0762463343108504
2.1847507331378297
2.291300097751711
2.393939393939394
2.4916911045943304
2.581622678396872
2.6637341153470184
2.7370478983382207
2.80058651026393
2.854349951124145
2.897360703812317
2.9237536656891496
2.936461388074292
2.943304007820137
2.9423264907135875
2.9345063538611926
2.917888563049853
2.89247311827957
2.8582600195503423
2.81622678396872
2.76930596285435
2.719452590420332
2.668621700879765
2.621700879765396
2.5777126099706744
2.5317693059628543
2.486803519061584
2.442815249266862
2.39980449657869
2.356793743890518
2.312805474095797
2.267839687194526
2.220918866080156
2.172043010752688
2.121212121212121
2.074291300097752
2.0283479960899315
1.9765395894428155
1.920821114369501
1.8631476050830889
1.8054740957966764
1.747800586510264
1.689149560117302
1.6314760508308896
1.5747800586510263
1.520039100684262
1.4682306940371457
1.4193548387096775
1.3812316715542523
1.3479960899315735
1.310850439882698
1.2746823069403714
1.2404692082111437
1.2101661779081134
1.18475073313783
1.1671554252199414
1.1593352883675463
1.163245356793744
1.1827956989247312
1.2189638318670577
1.262952101661779
1.316715542521994
1.3861192570869991
1.4682306940371457
1.5610948191593352
1.6608015640273706
1.7624633431085044
1.8641251221896384
1.963831867057673
2.060606060606061
2.15347018572825
2.241446725317693
2.32355816226784
2.3900293255131966
2.444770283479961
2.5024437927663734
2.557184750733138
2.6041055718475072
2.6402737047898337
2.665689149560117
2.6803519061583576
2.6852394916911044
2.6803519061583576
2.6666666666666665
2.644183773216031
2.6158357771261
2.5835777126099706
2.544477028347996
2.501466275659824
2.455522971652004
2.407624633431085
2.358748778103617
2.30791788856305
2.2580645161290325
2.2082111436950145
2.1593352883675463
2.1114369501466275
2.064516129032258
2.0234604105571847
1.9853372434017595
1.943304007820137
1.900293255131965
1.857282502443793
1.8142717497556209
1.76930596285435
1.7233626588465298
1.675464320625611
1.6265884652981428
1.5777126099706744
1.5288367546432062
1.4887585532746823
1.4535679374389052
1.4134897360703813
1.3734115347018572
1.3343108504398826
1.2971652003910068
1.2619745845552297
1.23069403714565
1.2023460410557183
1.1759530791788857
1.152492668621701
1.130987292277615
1.110459433040078
1.096774193548387
1.0879765395894427
1.0772238514173995
1.0664711632453567
1.0586510263929618
1.0547409579667644
1.0557184750733135
1.0625610948191593
1.0772238514173995
1.1006842619745845
1.1348973607038124
1.1827956989247312
1.2365591397849462
1.2991202346041055
1.3792766373411536
1.4750733137829912
1.5826001955034212
1.6979472140762464
1.8172043010752688
1.9364613880742916
2.0518084066471163
2.163245356793744
2.2688172043010755
2.366568914956012
2.458455522971652
2.532746823069404
2.5943304007820136
2.6608015640273703
2.729227761485826
2.7966764418377323
2.857282502443793
2.911045943304008
2.9579667644183774
2.994134897360704
3.0195503421309877
3.032258064516129
3.032258064516129
3.0205278592375366
2.9980449657869013
2.967741935483871
2.9286412512218964
2.881720430107527
2.8299120234604107
2.7751710654936463
2.717497556207233
2.6608015640273703
2.6041055718475072
2.549364613880743
2.495601173020528
2.442815249266862
2.3949169110459434
2.350928641251222
2.303030303030303
2.2531769305962857
2.2023460410557183
2.1495601173020527
2.0948191593352883
2.0391006842619745
1.981427174975562
1.921798631476051
1.86119257086999
1.8005865102639296
1.747800586510264
1.6989247311827955
1.64613880742913
1.5913978494623655
1.5356793743890518
1.4809384164222874
1.4271749755620724
1.3763440860215057
1.327468230694037
1.2805474095796676
1.2365591397849462
1.1964809384164223
1.160312805474096
1.1348973607038124
1.1163245356793745
1.0987292277614855
1.0869990224828934
1.0850439882697946
1.0977517106549364
1.1270772238514175
1.1730205278592376
1.2365591397849462
1.3157380254154447
1.4076246334310851
1.5083088954056696
1.6011730205278591
1.6911045943304008
1.7888563049853372
1.8875855327468232
1.9853372434017595
2.0821114369501466
2.1739980449657867
2.2521994134897363
2.320625610948192
2.3822091886608017
2.4359726295210167
2.4819159335288368
2.5219941348973607
2.5513196480938416
2.5718475073313782
2.589442815249267
2.601173020527859
2.6041055718475072
2.598240469208211
2.58455522971652
2.5610948191593352
2.530791788856305
2.493646138807429
2.4516129032258065
2.4056695992179864
2.361681329423265
2.3196480938416424
2.271749755620724
2.2218963831867056
2.172043010752688
2.1221896383186705
2.072336265884653
2.024437927663734
1.9775171065493649
1.9315738025415443
1.884652981427175
1.8377321603128052
1.7976539589442817
1.7605083088954057
1.718475073313783
1.6735092864125125
1.6265884652981428
1.5786901270772238
1.530791788856305
1.4848484848484849
1.4379276637341154
1.3919843597262953
1.3479960899315735
1.305962854349951
1.2658846529814272
1.2346041055718475
1.2082111436950147
1.1798631476050832
1.1495601173020529
1.1202346041055715
1.0918866080156402
1.0635386119257086
1.0371456500488758
1.013685239491691
0.9931573802541545
0.9667644183773216
0.95405669599218
0.9481915933528836
0.9393939393939394
0.9335288367546432
0.9305962854349952
0.9305962854349952
0.9335288367546432
0.9393939393939394
0.9501466275659824
0.9667644183773216
0.9921798631476052
1.0273704789833822
1.0742913000977516
1.126099706744868
1.1857282502443791
1.2619745845552297
1.3519061583577712
1.4535679374389052
1.563049853372434
1.678396871945259
1.796676441837732
1.9149560117302051
2.0840664711632453
2.1925708699902247
2.290322580645161
2.410557184750733
2.490713587487781
2.56891495601173
2.6402737047898337
2.7038123167155423
2.757575757575758
2.801564027370479
2.834799608993157
2.8641251221896384
2.8719452590420333
2.8690127077223853
2.8484848484848486
2.8260019550342133
2.7976539589442817
2.7653958944281527
2.7282502443792764
2.687194525904203
2.643206256109482
2.5972629521016617
2.549364613880743
2.5024437927663734
2.458455522971652
2.41544477028348
2.377321603128055
2.340175953079179
2.3010752688172045
2.260997067448681
2.219941348973607
2.176930596285435
2.131964809384164
2.085043988269794
2.037145650048876
1.988269794721408
1.93841642228739
1.889540566959922
1.8406647116324533
1.7976539589442817
1.758553274682307
1.7145650048875856
1.6686217008797657
1.6236559139784943
1.5796676441837731
1.5376344086021505
1.479960899315738
1.4457478005865103
1.41544477028348
1.3782991202346042
1.3626588465298142
1.3528836754643203
1.346041055718475
1.3450635386119256
1.3528836754643203
1.3714565004887584
1.4027370478983383
1.4486803519061584
1.5073313782991202
1.5786901270772238
1.6588465298142718
1.7438905180840665
1.8318670576735088
1.9090909090909087
1.9794721407624636
2.056695992179863
2.134897360703812
2.210166177908113
2.280547409579668
2.347018572825025
2.4086021505376345
2.466275659824047
2.5180840664711632
2.5640273704789838
2.6050830889540566
2.634408602150537
2.654936461388074
2.673509286412512
2.687194525904203
2.69208211143695
2.6881720430107525
2.67644183773216
2.6559139784946235
2.6265884652981426
2.591397849462365
2.5513196480938416
2.50733137829912
2.4613880742913
2.418377321603128
2.376344086021505
2.3313782991202348
2.286412512218964
2.241446725317693
2.198435972629521
2.157380254154448
2.117302052785924
2.078201368523949
2.0391006842619745
1.9990224828934504
1.956989247311828
1.919843597262952
1.884652981427175
1.8435972629521016
1.7996089931573802
1.7526881720430108
1.7067448680351909
1.66177908113392
1.616813294232649
1.5728250244379276
1.5288367546432062
1.4848484848484849
1.4408602150537635
1.3978494623655917
1.3636363636363635
1.3343108504398826
1.3020527859237536
1.2688172043010753
1.2375366568914956
1.2082111436950147
1.1808406647116323
1.155425219941349
1.1329423264907137
1.1133919843597262
1.096774193548387
1.083088954056696
1.0762463343108504
1.0742913000977516
1.0713587487781036
1.0694037145650048
1.0694037145650048
1.0733137829912025
1.083088954056696
1.099706744868035
1.1251221896383188
1.1612903225806452
1.2101661779081134
1.2727272727272727
1.3499511241446724
1.4281524926686218
1.509286412512219
1.607038123167155
1.7145650048875856
1.826001955034213
1.9393939393939397
2.050830889540567
2.158357771260997
2.260997067448681
2.358748778103617
2.449657869012708
2.532746823069404
2.598240469208211
2.650048875855328
2.7038123167155423
2.752688172043011
2.793743890518084
2.825024437927664
2.84652981427175
2.8582600195503423
2.859237536656892
2.850439882697948
2.832844574780059
2.807429130009776
2.776148582600196
2.740957966764418
2.702834799608993
2.658846529814272
2.611925708699902
2.563049853372434
2.5131964809384164
2.463343108504399
2.4164222873900294
2.3714565004887587
2.3274682306940373
2.2844574780058653
2.2668621700879767
2.2658846529814274
2.249266862170088
2.218963831867057
2.1808406647116323
2.1378299120234603
2.09188660801564
2.0439882697947214
1.9931573802541545
1.9413489736070384
1.8875855327468232
1.833822091886608
1.780058651026393
1.7350928641251222
1.6950146627565983
1.651026392961877
1.6080156402737047
1.565982404692082
1.5249266862170088
1.4848484848484849
1.4467253176930597
1.412512218963832
1.3792766373411536
1.348973607038123
1.3235581622678396
1.3040078201368523
1.2942326490713587
1.2942326490713587
1.3010752688172045
1.3176930596285434
1.3470185728250244
1.3900293255131966
1.4457478005865103
1.5141739980449658
1.5923753665689149
1.6774193548387095
1.7663734115347018
1.8563049853372435
1.9345063538611929
2.006842619745845
2.0869990224828934
2.1681329423264906
2.2482893450635384
2.3255131964809386
2.396871945259042
2.4613880742913
2.517106549364614
2.5640273704789838
2.601173020527859
2.6295210166177907
2.6471163245356792
2.6529814271749754
2.650048875855328
2.6392961876832843
2.6207233626588464
2.593352883675464
2.5591397849462365
2.5180840664711632
2.472140762463343
2.423264907135875
2.3734115347018574
2.3225806451612905
2.272727272727273
2.228739002932551
2.187683284457478
2.1436950146627565
2.0987292277614857
2.0527859237536656
2.006842619745845
1.9618768328445748
1.9178885630498532
1.8748778103616808
1.8318670576735088
1.7888563049853372
1.7468230694037146
1.704789833822092
1.6686217008797657
1.635386119257087
1.5972629521016617
1.5581622678396871
1.5190615835777126
1.479960899315738
1.4418377321603129
1.404692082111437
1.3685239491691104
1.3343108504398826
1.3020527859237536
1.2717497556207231
1.2502443792766371
1.2336265884652982
1.2130987292277615
1.1935483870967742
1.1759530791788857
1.160312805474096
1.1466275659824048
1.1358748778103618
1.1270772238514175
1.121212121212121
1.118279569892473
1.1202346041055715
1.1270772238514175
1.1397849462365592
1.1583577712609971
1.1808406647116323
1.209188660801564
1.2443792766373412
1.2873900293255132
1.33822091886608
1.3958944281524928
1.4604105571847508
1.5327468230694037
1.6129032258064515
1.6989247311827955
1.7790811339198436
1.8592375366568916
1.951124144672532
2.0518084066471163
2.155425219941349
2.2580645161290325
2.3597262952101663
2.4594330400782014
2.555229716520039
2.6451612903225805
2.729227761485826
2.8054740957966766
2.8729227761485827
2.9227761485826003
2.959921798631476
2.9960899315738025
3.026392961876833
3.047898338220919
3.06158357771261
3.064516129032258
3.0576735092864125
3.042033235581622
3.018572825024438
2.988269794721408
2.951124144672532
2.913000977517106
2.8719452590420333
2.8269794721407626
2.780058651026393
2.732160312805474
2.6852394916911044
2.638318670576735
2.5943304007820136
2.552297165200391
2.5112414467253177
2.4701857282502444
2.429130009775171
2.3870967741935485
2.347996089931574
2.3098729227761488
2.2688172043010755
2.2248289345063537
2.177908113391984
2.129032258064516
2.078201368523949
2.027370478983382
1.9765395894428155
1.924731182795699
