ppg
2.377321603128055
2.3743890518084068
2.3626588465298144
2.340175953079179
2.3088954056695994
2.270772238514174
2.2248289345063537
2.172043010752688
2.115347018572825
2.056695992179863
1.9980449657869013
1.9413489736070384
1.8914956011730208
1.8484848484848484
1.8064516129032255
1.7702834799608993
1.7409579667644184
1.7194525904203324
1.70772238514174
1.704789833822092
1.7086999022482894
1.718475073313783
1.7302052785923754
1.7438905180840665
1.7575757575757576
1.7702834799608993
1.7810361681329423
1.790811339198436
1.7986314760508308
1.804496578690127
1.8093841642228736
1.812316715542522
1.8113391984359728
1.8103616813294232
1.8093841642228736
1.8074291300097751
1.8025415444770283
1.7976539589442817
1.7917888563049853
1.7859237536656891
1.7790811339198436
1.772238514173998
1.7644183773216031
1.7575757575757576
1.7517106549364614
1.7487781036168133
1.747800586510264
1.7468230694037146
1.7468230694037146
1.7468230694037146
1.747800586510264
1.7487781036168133
1.750733137829912
1.7526881720430108
1.7565982404692082
1.7624633431085044
1.76930596285435
1.7761485826001957
1.782991202346041
1.790811339198436
1.7976539589442817
1.804496578690127
1.8084066471163245
1.8113391984359728
1.8142717497556209
1.818181818181818
1.822091886608016
1.826001955034213
1.8318670576735088
1.8465298142717497
1.8729227761485825
1.9159335288367547
1.981427174975562
2.0684261974584555
2.1739980449657867
2.274682306940372
2.375366568914956
2.496578690127077
2.624633431085044
2.750733137829912
2.8690127077223853
2.9745845552297165
3.0664711632453567
3.145650048875855
3.2140762463343107
3.272727272727273
3.32355816226784
3.357771260997068
3.3792766373411536
3.40078201368524
3.418377321603128
3.429130009775171
3.43108504398827
3.4242424242424243
3.407624633431085
3.3822091886608017
3.347996089931574
3.3069403714565007
3.2580645161290325
3.20039100684262
3.1407624633431084
3.0772238514174
3.006842619745845
2.9335288367546437
2.857282502443793
2.780058651026393
2.7067448680351904
2.638318670576735
2.576735092864125
2.5219941348973607
2.472140762463343
2.4271749755620724
2.389051808406647
2.3528836754643208
2.3167155425219943
2.2795698924731185
2.243401759530792
2.206256109481916
2.16911045943304
2.131964809384164
2.093841642228739
2.056695992179863
2.021505376344086
1.988269794721408
1.956989247311828
1.9305962854349952
1.9071358748778104
1.884652981427175
1.8641251221896384
1.8465298142717497
1.8318670576735088
1.8201368523949168
1.8113391984359728
1.8064516129032255
1.8025415444770283
1.7976539589442817
1.7917888563049853
1.7869012707722385
1.7810361681329423
1.775171065493646
1.7683284457478006
1.7605083088954057
1.75366568914956
1.7438905180840665
1.732160312805474
1.718475073313783
1.7008797653958945
1.6793743890518085
1.6549364613880744
1.629521016617791
1.606060606060606
1.5865102639296187
1.564027370478983
1.5376344086021505
1.5102639296187683
1.482893450635386
1.4545454545454546
1.4242424242424243
1.3949169110459434
1.3685239491691104
1.3440860215053765
1.321603128054741
1.3040078201368523
1.289345063538612
1.273704789833822
1.2590420332355816
1.2502443792766371
1.2541544477028348
1.2766373411534702
1.3196480938416422
1.3861192570869991
1.4760508308895406
1.5826001955034212
1.699902248289345
1.8211143695014664
1.9257086999022484
2.0146627565982405
2.101661779081134
2.1788856304985336
2.241446725317693
2.2883675464320627
2.320625610948192
2.3411534701857284
2.3489736070381237
2.347018572825025
2.337243401759531
2.3196480938416424
2.297165200391007
2.2688172043010755
2.231671554252199
2.1867057673509285
2.134897360703812
2.078201368523949
2.0175953079178885
1.9530791788856303
1.8856304985337244
1.8172043010752688
1.7497556207233629
1.6871945259042034
1.6373411534701858
1.5962854349951123
1.5571847507331378
1.52297165200391
1.4946236559139785
1.4731182795698925
1.457478005865103
1.4467253176930597
1.4379276637341154
1.4301075268817205
1.4222873900293256
1.412512218963832
1.4027370478983383
1.3949169110459434
1.3870967741935485
1.3743890518084063
1.359726295210166
1.3450635386119256
1.3304007820136852
1.3157380254154447
1.3010752688172045
1.2864125122189638
1.2717497556207231
1.2580645161290325
1.24633431085044
1.238514173998045
1.2316715542521994
1.2218963831867058
1.2111436950146628
1.2003910068426198
1.1896383186705768
1.1788856304985338
1.1681329423264908
1.1573802541544478
1.1485826001955035
1.141739980449658
1.1358748778103618
1.1300097751710656
1.1280547409579669
1.1270772238514175
1.1241446725317692
1.1231671554252198
1.1221896383186705
1.1221896383186705
1.1221896383186705
1.0928641251221896
1.0488758553274682
1.0263929618768328
1.0156402737047898
1.010752688172043
1.0087976539589445
1.0087976539589445
1.0068426197458455
1.0058651026392962
1.0048875855327468
1.0048875855327468
1.0048875855327468
1.0048875855327468
1.0039100684261977
1.0019550342130987
1.0019550342130987
1.0048875855327468
1.0156402737047898
1.0342130987292275
1.0664711632453567
1.1202346041055715
1.1964809384164223
1.2942326490713587
1.4105571847507332
1.5386119257087
1.6715542521994136
1.8005865102639296
1.9188660801564028
2.022482893450636
2.1094819159335287
2.1710654936461387
2.2140762463343107
2.2521994134897363
2.2825024437927666
2.303030303030303
2.3118279569892475
2.3098729227761488
2.2981427174975564
2.27761485826002
2.249266862170088
2.2130987292277613
2.16911045943304
2.120234604105572
2.070381231671554
2.018572825024438
1.959921798631476
1.895405669599218
1.8269794721407624
1.758553274682307
1.6901270772238517
1.6265884652981428
1.56891495601173
1.517106549364614
1.4731182795698925
1.436950146627566
1.4105571847507332
1.391006842619746
1.3734115347018572
1.3587487781036167
1.3450635386119256
1.3313782991202343
1.3186705767350928
1.3049853372434017
1.2903225806451613
1.2746823069403714
1.2590420332355816
1.2443792766373412
1.23069403714565
1.219941348973607
1.2101661779081134
1.1994134897360704
1.187683284457478
1.1749755620723363
1.1622678396871946
1.1495601173020529
1.1368523949169111
1.1241446725317692
1.1124144672531768
1.1026392961876832
1.0948191593352885
1.0918866080156402
1.0918866080156402
1.0899315738025417
1.0869990224828934
1.0840664711632453
1.0811339198435972
1.078201368523949
1.075268817204301
1.072336265884653
1.0703812316715542
1.0694037145650048
1.067448680351906
1.0664711632453567
1.0684261974584557
1.0713587487781036
1.0733137829912025
1.0762463343108504
1.0791788856304985
1.0821114369501466
1.0850439882697946
1.0869990224828934
1.0879765395894427
1.0899315738025417
1.0918866080156402
1.0928641251221896
1.0948191593352885
1.0987292277614855
1.1006842619745845
1.1006842619745845
1.0987292277614855
1.0977517106549364
1.0977517106549364
1.0987292277614855
1.1026392961876832
1.1133919843597262
1.1368523949169111
1.1779081133919844
1.2365591397849462
1.300097751710655
1.3714565004887584
1.4613880742913
1.5610948191593352
1.6637341153470186
1.7634408602150538
1.8543499511241448
1.932551319648094
1.997067448680352
2.04594330400782
2.078201368523949
2.0957966764418376
2.099706744868035
2.0928641251221896
2.078201368523949
2.0547409579667644
2.022482893450636
1.9824046920821117
1.9345063538611929
1.8807429130009776
1.823069403714565
1.7634408602150538
1.7038123167155426
1.6441837732160314
1.587487781036168
1.5405669599217986
1.501466275659824
1.4643206256109482
1.4320625610948192
1.4066471163245358
1.3861192570869991
1.3714565004887584
1.3607038123167154
1.3528836754643203
1.3470185728250244
1.343108504398827
1.33822091886608
1.3343108504398826
1.3313782991202343
1.324535679374389
1.3147605083088951
1.3049853372434017
1.2942326490713587
1.281524926686217
1.267839687194526
1.252199413489736
1.238514173998045
1.224828934506354
1.2111436950146628
1.2013685239491692
1.1925708699902249
1.181818181818182
1.1700879765395895
1.1564027370478984
1.141739980449658
1.126099706744868
1.110459433040078
1.0977517106549364
1.086021505376344
1.0742913000977516
1.0635386119257086
1.053763440860215
1.0469208211143697
1.0420332355816226
1.0361681329423265
1.0303030303030305
1.024437927663734
1.018572825024438
1.0117302052785924
1.0068426197458455
1.0039100684261977
1.0009775171065494
0.9990224828934506
0.9980449657869012
0.9990224828934506
1.0019550342130987
1.002932551319648
1.002932551319648
1.0019550342130987
1.0009775171065494
1.0009775171065494
1.0009775171065494
1.0009775171065494
1.0009775171065494
1.0009775171065494
1.0009775171065494
1.0009775171065494
1.002932551319648
1.0097751710654936
1.0254154447702837
1.0547409579667644
1.1036168132942326
1.1749755620723363
1.2688172043010753
1.3812316715542523
1.5063538611925709
1.6373411534701858
1.7653958944281525
1.884652981427175
1.978494623655914
2.0527859237536656
2.12316715542522
2.1837732160312804
2.231671554252199
2.2658846529814274
2.2883675464320627
2.2991202346041058
2.300097751710655
2.290322580645161
2.270772238514174
2.242424242424242
2.2052785923753664
2.1652003910068425
2.120234604105572
2.0664711632453567
2.007820136852395
1.9442815249266865
1.8797653958944285
1.8142717497556209
1.750733137829912
1.6901270772238517
1.635386119257087
1.587487781036168
1.547409579667644
1.5180840664711632
1.4965786901270772
1.479960899315738
1.4672531769305963
1.458455522971652
1.452590420332356
1.447702834799609
1.4428152492668622
1.4349951124144673
1.4271749755620724
1.4173998044965788
1.4056695992179864
1.393939393939394
1.3841642228739004
1.4203323558162269
1.4760508308895406
1.4936461388074291
1.4916911045943304
1.4809384164222874
1.466275659824047
1.4496578690127078
1.4320625610948192
1.4115347018572826
1.3890518084066472
1.3685239491691104
1.3528836754643203
1.3391984359726294
1.3255131964809383
1.313782991202346
1.303030303030303
1.2942326490713587
1.2883675464320623
1.2854349951124144
1.284457478005865
1.2834799608993157
1.2805474095796676
1.2776148582600195
1.2746823069403714
1.2727272727272727
1.273704789833822
1.273704789833822
1.2746823069403714
1.2776148582600195
1.2825024437927663
1.2883675464320623
1.295210166177908
1.3010752688172045
1.3040078201368523
1.305962854349951
1.3069403714565004
1.3079178885630498
1.310850439882698
1.3128054740957966
1.313782991202346
1.3157380254154447
1.316715542521994
1.316715542521994
1.316715542521994
1.3157380254154447
1.3128054740957966
1.3098729227761483
1.3098729227761483
1.3157380254154447
1.3304007820136852
1.3616813294232648
1.4203323558162269
1.5112414467253177
1.6344086021505375
1.7878787878787878
1.963831867057673
2.150537634408602
2.337243401759531
2.512218963831867
2.668621700879765
2.7996089931573804
2.889540566959922
2.951124144672532
3.003910068426197
3.0410557184750733
3.060606060606061
3.064516129032258
3.053763440860215
3.027370478983382
2.989247311827957
2.940371456500489
2.8797653958944283
2.809384164222874
2.7282502443792764
2.6480938416422286
2.5669599217986314
2.4760508308895406
2.380254154447703
2.283479960899316
2.189638318670577
2.103616813294233
2.0283479960899315
1.9657869012707725
1.9159335288367547
1.878787878787879
1.8523949169110456
1.833822091886608
1.8211143695014664
1.8103616813294232
1.7986314760508308
1.7849462365591398
1.76930596285435
1.7546432062561097
1.739980449657869
1.726295210166178
1.7096774193548387
1.689149560117302
1.6666666666666667
1.6441837732160314
1.6256109481915937
1.6099706744868034
1.590420332355816
1.565982404692082
1.5395894428152492
1.512218963831867
1.4848484848484849
1.4594330400782014
1.4349951124144673
1.4105571847507332
1.3890518084066472
1.3685239491691104
1.3509286412512218
1.3372434017595307
1.3235581622678396
1.310850439882698
1.2991202346041055
1.2883675464320623
1.278592375366569
1.267839687194526
1.2561094819159335
1.2443792766373412
1.2326490713587488
1.2218963831867058
1.2121212121212122
1.2052785923753666
1.2013685239491692
1.1945259042033236
1.1857282502443791
1.176930596285435
1.1691104594330402
1.1622678396871946
1.1583577712609971
1.1544477028347997
1.1505376344086022
1.147605083088954
1.1456500488758554
1.147605083088954
1.1505376344086022
1.1505376344086022
1.1495601173020529
1.147605083088954
1.1456500488758554
1.147605083088954
1.1544477028347997
1.1730205278592376
1.2160312805474096
1.289345063538612
1.3958944281524928
1.5141739980449658
1.6471163245356797
1.8162267839687196
2.004887585532747
2.20039100684262
2.3900293255131966
2.5640273704789838
2.718475073313783
2.850439882697948
2.956989247311828
3.0410557184750733
3.10752688172043
3.155425219941349
3.179863147605083
3.188660801564027
3.190615835777126
3.1837732160312804
3.164222873900293
3.132942326490713
3.089931573802541
3.035190615835777
2.9687194525904204
2.8944281524926687
2.811339198435973
2.720430107526881
2.633431085043988
2.547409579667644
2.452590420332356
2.355816226783969
2.26197458455523
2.1739980449657867
2.096774193548387
2.0303030303030303
1.9745845552297163
1.9296187683284456
1.8934506353861196
1.86119257086999
1.8318670576735088
1.8074291300097751
1.7859237536656891
1.7644183773216031
1.7429130009775171
1.7204301075268815
1.696969696969697
1.6735092864125125
1.6490713587487782
1.6275659824046922
1.608993157380254
1.5894428152492668
1.5708699902248289
1.555229716520039
1.541544477028348
1.5249266862170088
1.5073313782991202
1.4887585532746823
1.4701857282502444
1.4506353861192571
1.4330400782013686
1.41544477028348
1.3978494623655917
1.3812316715542523
1.364613880742913
1.3479960899315735
1.335288367546432
1.324535679374389
1.313782991202346
1.303030303030303
1.295210166177908
1.2913000977517106
1.289345063538612
1.2883675464320623
1.2883675464320623
1.2883675464320623
1.2883675464320623
1.2883675464320623
1.2913000977517106
1.2971652003910068
1.3010752688172045
1.3040078201368523
1.305962854349951
1.3069403714565004
1.3069403714565004
1.3069403714565004
1.3079178885630498
1.3098729227761483
1.310850439882698
1.3128054740957966
1.3157380254154447
1.3206256109481915
1.3264907135874875
1.3313782991202343
1.332355816226784
1.3304007820136852
1.3284457478005864
1.3294232649071358
1.3401759530791788
1.3665689149560116
1.418377321603128
1.500488758553275
1.6158357771260996
1.737047898338221
1.8699902248289344
2.037145650048876
2.219941348973607
2.403714565004888
2.576735092864125
2.730205278592375
2.860215053763441
2.913000977517106
2.913978494623656
2.932551319648094
2.951124144672532
2.959921798631476
2.9550342130987293
2.9393939393939394
2.9149560117302054
2.8807429130009776
2.834799608993157
2.779081133919844
2.7155425219941347
2.643206256109482
2.5640273704789838
2.4789833822091887
2.389051808406647
2.2952101661779083
2.212121212121212
2.136852394916911
2.056695992179863
1.978494623655914
1.9071358748778104
1.844574780058651
1.793743890518084
1.7546432062561097
1.7243401759530792
1.699902248289345
1.6803519061583578
1.6637341153470186
1.6480938416422288
1.6344086021505375
1.6207233626588464
1.606060606060606
1.5923753665689149
1.5757575757575757
1.5562072336265884
1.5347018572825024
1.5112414467253177
1.4858260019550342
1.458455522971652
1.4330400782013686
1.409579667644184
1.388074291300098
1.370478983382209
1.3499511241446724
1.327468230694037
1.3040078201368523
1.2805474095796676
1.2580645161290325
1.2336265884652982
1.209188660801564
1.1857282502443791
1.166177908113392
1.1495601173020529
1.1348973607038124
1.1270772238514175
1.1202346041055715
1.1114369501466277
1.1026392961876832
1.093841642228739
1.0840664711632453
1.075268817204301
1.0654936461388074
1.056695992179863
1.0469208211143697
1.0381231671554252
1.0283479960899315
1.0224828934506354
1.0195503421309873
1.0175953079178883
1.0166177908113392
1.0156402737047898
1.013685239491691
1.010752688172043
1.007820136852395
1.0068426197458455
1.0048875855327468
1.0039100684261977
1.002932551319648
1.0009775171065494
1.0019550342130987
1.0068426197458455
1.0117302052785924
1.021505376344086
1.04594330400782
1.0948191593352885
1.1749755620723363
1.2903225806451613
1.4408602150537635
1.6177908113391983
1.8113391984359728
2.0097751710654936
2.1788856304985336
2.3255131964809386
2.474095796676442
2.608993157380254
2.724340175953079
2.820136852394917
2.8993157380254155
2.960899315738025
3.005865102639296
3.0361681329423265
3.0527859237536656
3.0547409579667644
3.0439882697947214
3.022482893450636
2.991202346041056
2.9501466275659824
2.898338220918866
2.8367546432062563
2.766373411534702
2.6881720430107525
2.603128054740958
2.5112414467253177
2.418377321603128
2.3255131964809386
2.2346041055718477
2.157380254154448
2.09188660801564
2.03128054740958
1.9775171065493649
1.9335288367546437
1.8993157380254155
1.8758553274682308
1.8602150537634408
1.8504398826979471
1.8435972629521016
1.8377321603128052
1.8318670576735088
1.8269794721407624
1.8211143695014664
1.8132942326490715
1.8035190615835777
1.7917888563049853
1.7790811339198436
1.7663734115347018
1.7526881720430108
1.7409579667644184
1.7341153470185728
1.732160312805474
1.7331378299120237
1.737047898338221
1.7419354838709675
1.747800586510264
1.7556207233626588
1.7634408602150538
1.76930596285435
1.775171065493646
1.780058651026393
1.7839687194525904
1.7859237536656891
1.7878787878787878
1.790811339198436
1.7947214076246334
1.7996089931573802
1.8064516129032255
1.8191593352883677
1.836754643206256
1.8563049853372435
1.8748778103616808
1.89247311827957
1.9071358748778104
1.916911045943304
1.919843597262952
1.916911045943304
1.9149560117302051
1.9149560117302051
1.9159335288367547
1.920821114369501
1.935483870967742
1.9560117302052784
1.9804496578690127
2.005865102639296
2.0283479960899315
2.047898338220919
2.0625610948191597
2.072336265884653
2.078201368523949
2.080156402737048
2.0762463343108504
2.067448680351906
2.0557184750733137
2.043010752688172
2.032258064516129
2.0283479960899315
2.0391006842619745
2.074291300097752
2.139784946236559
2.2346041055718477
2.358748778103617
2.505376344086021
2.664711632453568
2.803519061583578
2.9266862170087977
3.058651026392962
3.182795698924731
3.290322580645161
3.376344086021505
3.4389051808406648
3.4819159335288368
3.5083088954056696
3.5180840664711632
3.5131964809384164
3.496578690127077
3.4672531769305963
3.43108504398827
3.3919843597262958
3.3489736070381237
3.2991202346041058
3.244379276637341
3.1847507331378297
3.1192570869990224
3.0498533724340176
2.975562072336266
2.8993157380254155
2.8240469208211145
2.7517106549364616
2.6852394916911044
2.625610948191593
2.5698924731182795
2.520039100684262
2.47702834799609
2.4389051808406648
2.403714565004888
2.3704789833822093
2.3382209188660803
2.3069403714565007
2.274682306940372
2.239491691104594
2.207233626588465
2.175953079178885
2.1407624633431084
2.101661779081134
2.0625610948191597
2.022482893450636
1.9794721407624636
1.9364613880742916
1.8963831867057677
1.8592375366568916
1.8240469208211143
1.7898338220918866
1.7565982404692082
1.729227761485826
1.704789833822092
2.795698924731183
2.7702834799608995
2.7390029325513194
2.699902248289345
2.6529814271749754
2.598240469208211
2.533724340175953
2.4613880742913
2.3900293255131966
2.3167155425219943
2.231671554252199
2.1417399804496577
2.0498533724340176
1.9589442815249267
1.873900293255132
1.7956989247311828
1.7272727272727273
1.667644183773216
1.6177908113391983
1.5757575757575757
1.5454545454545454
1.521016617790811
1.4975562072336266
1.4731182795698925
1.4496578690127078
1.4252199413489737
1.4007820136852396
1.3743890518084063
1.348973607038123
1.324535679374389
1.3010752688172045
1.278592375366569
1.2561094819159335
1.2375366568914956
1.2209188660801564
1.2023460410557183
1.1867057673509287
1.1730205278592376
1.1564027370478984
1.13880742913001
1.121212121212121
1.104594330400782
1.0879765395894427
1.0713587487781036
1.0547409579667644
1.043010752688172
1.032258064516129
1.021505376344086
1.0127077223851415
1.0048875855327468
0.9980449657869012
0.9912023460410556
0.9843597262952102
0.9775171065493646
0.9706744868035192
0.9638318670576737
0.956989247311828
0.9511241446725318
0.9491691104594332
0.9481915933528836
0.9442815249266864
0.9393939393939394
0.935483870967742
0.9315738025415444
0.927663734115347
0.9247311827956988
0.9217986314760508
0.919843597262952
0.9188660801564028
0.9188660801564028
0.9208211143695014
0.9247311827956988
0.9266862170087976
0.927663734115347
0.927663734115347
0.927663734115347
0.9266862170087976
0.9237536656891496
0.9188660801564028
0.913978494623656
0.9100684261974584
0.9090909090909092
0.913978494623656
0.927663734115347
0.9560117302052786
1.007820136852395
1.0899315738025417
1.2052785923753666
1.348973607038123
1.5151515151515151
1.6930596285434996
1.8729227761485825
2.04594330400782
2.2052785923753664
2.347996089931574
2.4565004887585533
2.539589442815249
2.619745845552297
2.6911045943304006
2.7517106549364616
2.7996089931573804
2.835777126099707
2.863147605083089
2.8836754643206257
2.897360703812317
2.9071358748778104
2.9120234604105573
2.9120234604105573
2.903225806451613
2.886608015640274
2.8670576735092865
2.843597262952102
2.812316715542522
2.773216031280548
2.727272727272727
2.673509286412512
2.610948191593353
2.5405669599217986
2.463343108504399
2.3812316715542523
2.303030303030303
2.2277614858260018
2.146627565982405
2.0635386119257086
1.9833822091886608
1.9090909090909087
1.842619745845552
1.782991202346041
1.732160312805474
1.6881720430107527
1.651026392961877
1.6177908113391983
1.5884652981427174
1.564027370478983
1.542521994134897
1.521016617790811
1.499511241446725
1.478005865102639
1.456500488758553
1.4349951124144673
1.414467253176931
1.3949169110459434
1.3743890518084063
1.3548387096774193
1.335288367546432
1.3196480938416422
1.3049853372434017
1.2864125122189638
1.267839687194526
1.2482893450635386
1.2297165200391007
1.2130987292277615
1.1974584555229717
1.181818181818182
1.1652003910068427
1.1505376344086022
1.1368523949169111
1.1251221896383188
1.118279569892473
1.1143695014662756
1.110459433040078
1.104594330400782
1.0987292277614855
1.0928641251221896
1.086021505376344
1.0801564027370478
1.0762463343108504
1.072336265884653
1.0684261974584557
1.0654936461388074
1.064516129032258
1.064516129032258
1.0635386119257086
1.0606060606060606
1.0596285434995112
1.0606060606060606
1.0625610948191593
1.0635386119257086
1.0625610948191593
1.0606060606060606
1.0576735092864125
1.053763440860215
1.0498533724340176
1.0488758553274682
1.0557184750733135
1.075268817204301
1.115347018572825
1.1808406647116323
1.2746823069403714
1.3958944281524928
1.5395894428152492
1.696969696969697
1.8592375366568916
2.018572825024438
2.167155425219941
2.2844574780058653
2.378299120234604
2.469208211143695
2.549364613880743
2.618768328445748
2.67644183773216
2.721407624633431
2.7546432062561097
2.7781036168132944
2.791788856304985
2.7976539589442817
2.7966764418377323
2.789833822091887
2.776148582600196
2.758553274682307
2.7390029325513194
2.7155425219941347
2.687194525904203
2.652003910068426
2.6099706744868034
2.5591397849462365
2.4995112414467253
2.4330400782013686
2.358748778103617
2.2766373411534704
2.198435972629521
2.1221896383186705
2.037145650048876
1.9501466275659824
1.865102639296188
1.7869012707722385
1.7165200391006843
1.6559139784946235
1.6050830889540566
1.563049853372434
1.5278592375366569
1.498533724340176
1.4750733137829912
1.4545454545454546
1.43108504398827
1.4056695992179864
1.380254154447703
1.3548387096774193
1.3304007820136852
1.3069403714565004
1.2834799608993157
1.260019550342131
1.2375366568914956
1.217008797653959
1.1964809384164223
1.1798631476050832
1.164222873900293
1.1456500488758554
1.126099706744868
1.10752688172043
