ppg
2.729227761485826
2.6715542521994133
2.613880742913001
2.5532746823069403
2.493646138807429
2.4330400782013686
2.3655913978494625
2.29227761485826
2.21505376344086
2.134897360703812
2.053763440860215
1.9775171065493649
1.90811339198436
1.842619745845552
1.7849462365591398
1.7390029325513197
1.7038123167155426
1.6793743890518085
1.66177908113392
1.64613880742913
1.635386119257087
1.629521016617791
1.6265884652981428
1.6217008797653958
1.6158357771260996
1.6109481915933528
1.6041055718475072
1.5933528836754642
1.581622678396872
1.5698924731182795
1.5591397849462365
1.547409579667644
1.530791788856305
1.5141739980449658
1.498533724340176
1.482893450635386
1.4682306940371457
1.4516129032258065
1.4330400782013686
1.41544477028348
1.3998044965786902
1.383186705767351
1.3685239491691104
1.35386119257087
1.33822091886608
1.3235581622678396
1.3098729227761483
1.2971652003910068
1.289345063538612
1.2834799608993157
1.2795698924731185
1.2776148582600195
1.2766373411534702
1.2756598240469208
1.2766373411534702
1.2795698924731185
1.2805474095796676
1.281524926686217
1.281524926686217
1.281524926686217
1.281524926686217
1.2795698924731185
1.2776148582600195
1.2766373411534702
1.273704789833822
1.270772238514174
1.2697947214076246
1.270772238514174
1.2727272727272727
1.273704789833822
1.2746823069403714
1.2746823069403714
1.2746823069403714
1.2746823069403714
1.2746823069403714
1.2746823069403714
1.278592375366569
1.2834799608993157
1.2873900293255132
1.2913000977517106
1.2913000977517106
1.2903225806451613
1.289345063538612
1.289345063538612
1.289345063538612
1.289345063538612
1.289345063538612
1.289345063538612
1.29227761485826
1.3079178885630498
1.3479960899315735
1.4213098729227762
1.509286412512219
1.619745845552297
1.7741935483870968
1.9608993157380252
2.1652003910068425
2.3704789833822093
2.560117302052786
2.727272727272727
2.865102639296188
2.970674486803519
3.0439882697947214
3.0869990224828934
3.101661779081134
3.096774193548387
3.081133919843597
3.0527859237536656
3.016617790811339
2.9745845552297165
2.9257086999022484
2.873900293255132
2.8211143695014664
2.7370478983382207
2.6373411534701856
2.5591397849462365
2.495601173020528
2.4359726295210167
2.36950146627566
2.2981427174975564
2.2248289345063537
2.1485826001955037
2.072336265884653
1.9980449657869013
1.9286412512218964
1.8641251221896384
1.801564027370479
1.7429130009775171
1.6901270772238517
1.651026392961877
1.6217008797653958
1.595307917888563
1.573802541544477
1.5562072336265884
1.541544477028348
1.5268817204301075
1.5151515151515151
1.5053763440860215
1.495601173020528
1.4848484848484849
1.4721407624633431
1.4613880742913
1.4506353861192571
1.4389051808406648
1.4252199413489737
1.4105571847507332
1.3958944281524928
1.3812316715542523
1.3636363636363635
1.3450635386119256
1.3255131964809383
1.305962854349951
1.2864125122189638
1.2668621700879763
1.2502443792766371
1.2375366568914956
1.2228739002932552
1.2072336265884651
1.1925708699902249
1.1788856304985338
1.1671554252199414
1.1564027370478984
1.147605083088954
1.1397849462365592
1.1290322580645162
1.1202346041055715
1.1173020527859236
1.118279569892473
1.118279569892473
1.118279569892473
1.1202346041055715
1.1231671554252198
1.1270772238514175
1.1329423264907137
1.1358748778103618
1.1368523949169111
1.13880742913001
1.141739980449658
1.144672531769306
1.1495601173020529
1.1544477028347997
1.1564027370478984
1.1573802541544478
1.1583577712609971
1.1583577712609971
1.1583577712609971
1.1583577712609971
1.1583577712609971
1.1583577712609971
1.1583577712609971
1.1583577712609971
1.160312805474096
1.1622678396871946
1.1671554252199414
1.173998044965787
1.1808406647116323
1.187683284457478
1.1945259042033236
1.2013685239491692
1.206256109481916
1.2082111436950147
1.2111436950146628
1.2179863147605083
1.2258064516129032
1.2346041055718475
1.2541544477028348
1.2971652003910068
1.3695014662756595
1.474095796676442
1.6138807429130009
1.7839687194525904
1.9745845552297163
2.172043010752688
2.3655913978494625
2.5434995112414467
2.6930596285435
2.7996089931573804
2.8719452590420333
2.929618768328446
2.9687194525904204
2.988269794721408
2.988269794721408
2.9696969696969697
2.936461388074292
2.89345063538612
2.8455522971652005
2.792766373411535
2.7370478983382207
2.679374389051808
2.624633431085044
2.56891495601173
2.5083088954056696
2.444770283479961
2.377321603128055
2.3059628543499517
2.231671554252199
2.155425219941349
2.0791788856304985
2.004887585532747
1.9345063538611929
1.8699902248289344
1.81524926686217
1.7673509286412512
1.7223851417399805
1.683284457478006
1.6520039100684265
1.6285434995112416
1.6138807429130009
1.606060606060606
1.6021505376344083
1.6001955034213098
1.5992179863147604
1.5992179863147604
1.5992179863147604
1.5972629521016617
1.5913978494623655
1.5835777126099706
1.5747800586510263
1.563049853372434
1.5513196480938416
1.5356793743890518
1.5141739980449658
1.490713587487781
1.4672531769305963
1.4457478005865103
1.4252199413489737
1.4086021505376345
1.396871945259042
1.3841642228739004
1.3714565004887584
1.3587487781036167
1.3421309872922775
1.324535679374389
1.305962854349951
1.289345063538612
1.2746823069403714
1.2609970674486803
1.249266862170088
1.238514173998045
1.2326490713587488
1.2297165200391007
1.224828934506354
1.2209188660801564
1.2189638318670577
1.2179863147605083
1.2179863147605083
1.2160312805474096
1.2130987292277615
1.2101661779081134
1.2072336265884651
1.206256109481916
1.2072336265884651
1.209188660801564
1.2101661779081134
1.2101661779081134
1.2101661779081134
1.2101661779081134
1.2101661779081134
1.2101661779081134
1.2101661779081134
1.2101661779081134
1.2101661779081134
1.2101661779081134
1.2101661779081134
1.2121212121212122
1.2150537634408602
1.2160312805474096
1.217008797653959
1.217008797653959
1.217008797653959
1.217008797653959
1.217008797653959
1.217008797653959
1.217008797653959
1.217008797653959
1.2189638318670577
1.2228739002932552
1.2336265884652982
1.260019550342131
1.3128054740957966
1.3998044965786902
1.5249266862170088
1.6852394916911049
1.871945259042033
2.0762463343108504
2.281524926686217
2.4750733137829912
2.64613880742913
2.787878787878788
2.884652981427175
2.946236559139785
2.992179863147605
3.0195503421309877
3.026392961876833
3.01564027370479
2.9902248289345064
2.9530791788856305
2.90811339198436
2.859237536656892
2.8084066471163247
2.7565982404692084
2.70772238514174
2.658846529814272
2.6041055718475072
2.547409579667644
2.487781036168133
2.423264907135875
2.3548387096774195
2.2825024437927666
2.2052785923753664
2.124144672531769
2.0410557184750733
1.959921798631476
1.8914956011730208
1.83088954056696
1.76930596285435
1.7135874877810362
1.667644183773216
1.629521016617791
1.6011730205278591
1.5796676441837731
1.564027370478983
1.555229716520039
1.5503421309872922
1.5483870967741935
1.5454545454545454
1.5405669599217986
1.5347018572825024
1.5268817204301075
1.4916911045943304
1.4428152492668622
1.409579667644184
1.3812316715542523
1.3558162267839686
1.3333333333333333
1.3118279569892473
1.2903225806451613
1.2697947214076246
1.252199413489736
1.2365591397849462
1.2189638318670577
1.1994134897360704
1.1798631476050832
1.160312805474096
1.141739980449658
1.126099706744868
1.1114369501466277
1.1006842619745845
1.0918866080156402
1.0801564027370478
1.067448680351906
1.0576735092864125
1.0498533724340176
1.0420332355816226
1.035190615835777
1.0283479960899315
1.024437927663734
1.0195503421309873
1.013685239491691
1.0087976539589445
1.002932551319648
0.9980449657869012
0.9960899315738024
0.9960899315738024
0.9980449657869012
0.9990224828934506
1.0
0.9980449657869012
0.9960899315738024
0.9951124144672532
0.9941348973607038
0.9941348973607038
0.9921798631476052
0.989247311827957
0.9882697947214076
0.9872922776148584
0.9882697947214076
0.9912023460410556
0.9921798631476052
0.9931573802541545
0.9931573802541545
0.9931573802541545
0.9931573802541545
0.9931573802541545
0.9931573802541545
0.9912023460410556
0.9872922776148584
0.9804496578690128
0.9736070381231672
0.9696969696969696
0.9696969696969696
0.9794721407624634
1.0117302052785924
1.0762463343108504
1.1779081133919844
1.3196480938416422
1.498533724340176
1.7038123167155426
1.921798631476051
2.134897360703812
2.3284457478005867
2.4760508308895406
2.590420332355816
2.6940371456500487
2.773216031280548
2.827956989247312
2.860215053763441
2.870967741935484
2.863147605083089
2.8406647116324537
2.8084066471163247
2.768328445747801
2.721407624633431
2.6725317693059627
2.6207233626588464
2.5640273704789838
2.5034213098729228
2.4389051808406648
2.3714565004887587
2.2981427174975564
2.222873900293255
2.145650048875855
2.0664711632453567
1.9853372434017595
1.9012707722385145
1.8142717497556209
1.7409579667644184
1.6744868035190617
1.606060606060606
1.541544477028348
1.482893450635386
1.4320625610948192
1.3890518084066472
1.3577712609970674
1.3372434017595307
1.3235581622678396
1.313782991202346
1.3049853372434017
1.3010752688172045
1.2991202346041055
1.2942326490713587
1.2883675464320623
1.2825024437927663
1.2756598240469208
1.2658846529814272
1.2502443792766371
1.2326490713587488
1.2130987292277615
1.1935483870967742
1.1730205278592376
1.1534701857282503
1.13880742913001
1.1241446725317692
1.1065493646138806
1.0909090909090908
1.0762463343108504
1.0625610948191593
1.0488758553274682
1.035190615835777
1.021505376344086
1.007820136852395
0.9941348973607038
0.9804496578690128
0.9716520039100685
0.9687194525904204
0.967741935483871
0.9667644183773216
0.9667644183773216
0.9667644183773216
0.9667644183773216
0.9648093841642228
0.9618768328445748
0.9608993157380256
0.959921798631476
0.9608993157380256
0.9638318670576737
0.9687194525904204
0.9745845552297164
0.978494623655914
0.9824046920821116
0.9863147605083088
0.9902248289345064
0.9951124144672532
1.0009775171065494
1.007820136852395
1.0146627565982405
1.0175953079178883
1.0195503421309873
1.0234604105571847
1.029325513196481
1.032258064516129
1.0371456500488758
1.043010752688172
1.0469208211143697
1.0527859237536656
1.0576735092864125
1.0596285434995112
1.0606060606060606
1.06158357771261
1.06158357771261
1.0635386119257086
1.067448680351906
1.0713587487781036
1.075268817204301
1.0801564027370478
1.0879765395894427
1.1006842619745845
1.1251221896383188
1.1720430107526882
1.24633431085044
1.3558162267839686
1.504398826979472
1.6842619745845553
1.8563049853372435
2.027370478983382
2.2238514173998043
2.450635386119257
2.641251221896383
2.760508308895406
2.860215053763441
2.9345063538611926
2.979472140762464
3.0009775171065494
2.99902248289345
2.9775171065493646
2.943304007820137
2.897360703812317
2.8406647116324537
2.7781036168132944
2.7126099706744866
2.6471163245356792
2.58455522971652
2.5210166177908118
2.4545454545454546
2.3870967741935485
2.3167155425219943
2.2404692082111435
2.1593352883675463
2.083088954056696
2.010752688172043
1.9345063538611929
1.858260019550342
1.7878787878787878
1.7223851417399805
1.6608015640273706
1.607038123167155
1.5650048875855327
1.5347018572825024
1.512218963831867
1.4975562072336266
1.490713587487781
1.4868035190615836
1.4848484848484849
1.4858260019550342
1.487781036168133
1.4887585532746823
1.4897360703812317
1.4897360703812317
1.487781036168133
1.4819159335288368
1.4721407624633431
1.457478005865103
1.435972629521017
1.41544477028348
1.3949169110459434
1.370478983382209
1.3470185728250244
1.3255131964809383
1.3040078201368523
1.2834799608993157
1.262952101661779
1.2424242424242424
1.2218963831867058
1.2013685239491692
1.1808406647116323
1.163245356793744
1.1485826001955035
1.1329423264907137
1.118279569892473
1.10752688172043
1.099706744868035
1.0948191593352885
1.0918866080156402
1.088954056695992
1.086021505376344
1.0918866080156402
1.1026392961876832
1.10752688172043
1.1114369501466277
1.115347018572825
1.1173020527859236
1.118279569892473
1.118279569892473
1.118279569892473
1.118279569892473
1.118279569892473
1.118279569892473
1.118279569892473
1.1173020527859236
1.115347018572825
1.115347018572825
1.115347018572825
1.1143695014662756
1.1133919843597262
1.1133919843597262
1.1143695014662756
1.1163245356793745
1.1173020527859236
1.118279569892473
1.118279569892473
1.118279569892473
1.1202346041055715
1.1231671554252198
1.126099706744868
1.1290322580645162
1.130987292277615
1.1280547409579669
1.1231671554252198
1.1221896383186705
1.1290322580645162
1.1505376344086022
1.198435972629521
1.2834799608993157
1.4066471163245358
1.5669599217986314
1.729227761485826
1.8963831867057677
2.09188660801564
2.291300097751711
2.479960899315738
2.6471163245356792
2.78494623655914
2.887585532746823
2.956011730205278
2.9931573802541545
3.005865102639296
2.99902248289345
2.9775171065493646
2.945259042033236
2.902248289345064
2.8533724340175954
2.8025415444770285
2.7468230694037143
2.686217008797654
2.6099706744868034
2.5425219941348973
2.4916911045943304
2.434017595307918
2.3685239491691106
2.2961876832844577
2.228739002932551
2.1622678396871944
2.086021505376344
2.003910068426197
1.916911045943304
1.8318670576735088
1.7526881720430108
1.6774193548387095
1.6080156402737047
1.5503421309872922
1.5053763440860215
1.4711632453567938
1.4457478005865103
1.4281524926686218
1.414467253176931
1.404692082111437
1.3998044965786902
1.393939393939394
1.3861192570869991
1.3773216031280548
1.3685239491691104
1.3587487781036167
1.346041055718475
1.3294232649071358
1.3118279569892473
1.2961876832844574
1.281524926686217
1.2649071358748778
1.24633431085044
1.2267839687194526
1.2052785923753666
1.18475073313783
1.1652003910068427
1.1436950146627567
1.121212121212121
1.0987292277614855
1.0772238514173995
1.056695992179863
1.0420332355816226
1.0312805474095796
1.018572825024438
1.0058651026392962
0.9931573802541545
0.9804496578690128
0.9687194525904204
0.9579667644183774
0.9481915933528836
0.9393939393939394
0.9335288367546432
0.9325513196480938
0.9364613880742912
0.9433040078201368
0.9491691104594332
0.9521016617790812
0.9530791788856304
0.95405669599218
0.95405669599218
0.95405669599218
0.95405669599218
0.95405669599218
0.95405669599218
0.956989247311828
0.9618768328445748
0.967741935483871
0.9745845552297164
0.9794721407624634
0.9853372434017597
0.9912023460410556
0.997067448680352
1.0048875855327468
1.013685239491691
1.021505376344086
1.0273704789833822
1.0303030303030305
1.032258064516129
1.0342130987292275
1.0371456500488758
1.040078201368524
1.043010752688172
1.04594330400782
1.0498533724340176
1.0518084066471165
1.053763440860215
1.0596285434995112
1.0742913000977516
1.1036168132942326
1.155425219941349
1.2443792766373412
1.348973607038123
1.478983382209189
1.656891495601173
1.865102639296188
2.0840664711632453
2.297165200391007
2.49266862170088
2.662756598240469
2.8025415444770285
2.9071358748778104
2.975562072336266
3.0146627565982405
3.026392961876833
3.016617790811339
2.9960899315738025
2.963831867057673
2.921798631476051
2.870967741935484
2.817204301075269
2.760508308895406
2.699902248289345
2.638318670576735
2.575757575757576
2.5102639296187683
2.44672531769306
2.3812316715542523
2.3088954056695994
2.2355816226783967
2.1593352883675463
2.080156402737048
2.0009775171065494
1.9237536656891496
1.8514173998044965
1.7859237536656891
1.718475073313783
1.664711632453568
1.6314760508308896
1.6050830889540566
1.585532746823069
1.5728250244379276
1.565982404692082
1.563049853372434
1.563049853372434
1.564027370478983
1.5650048875855327
1.5650048875855327
1.5650048875855327
1.5620723362658846
1.5542521994134897
1.5454545454545454
1.5356793743890518
1.521016617790811
1.500488758553275
1.47702834799609
1.4516129032258065
1.426197458455523
1.4007820136852396
1.3763440860215057
1.3548387096774193
1.3343108504398826
1.313782991202346
1.2932551319648091
1.2766373411534702
1.2619745845552297
1.2443792766373412
1.2238514173998043
1.2023460410557183
1.1837732160312806
1.1691104594330402
1.160312805474096
1.1564027370478984
1.1544477028347997
1.1534701857282503
1.1505376344086022
1.1495601173020529
1.1505376344086022
1.147605083088954
1.142717497556207
1.1368523949169111
1.130987292277615
1.1251221896383188
1.1192570869990224
1.1163245356793745
1.1143695014662756
1.1133919843597262
1.1133919843597262
1.1133919843597262
1.1143695014662756
1.1163245356793745
1.1173020527859236
1.118279569892473
1.118279569892473
1.118279569892473
1.118279569892473
1.118279569892473
1.118279569892473
1.118279569892473
1.118279569892473
1.118279569892473
1.1202346041055715
1.1231671554252198
1.1241446725317692
1.126099706744868
1.144672531769306
1.1691104594330402
1.1808406647116323
1.18475073313783
1.1837732160312806
1.181818181818182
1.1867057673509287
1.2082111436950147
1.2541544477028348
1.3157380254154447
1.4027370478983383
1.5356793743890518
1.7057673509286413
1.9012707722385145
2.10752688172043
2.30791788856305
2.4916911045943304
2.652003910068426
2.782013685239492
2.877810361681329
2.941348973607038
2.9716520039100685
2.9775171065493646
2.9696969696969697
2.9501466275659824
2.921798631476051
2.8836754643206257
2.838709677419355
2.787878787878788
2.7331378299120237
2.675464320625611
2.616813294232649
2.5591397849462365
2.4995112414467253
2.441837732160313
2.3870967741935485
2.3255131964809386
2.259042033235582
2.188660801564027
2.1114369501466275
2.029325513196481
1.945259042033236
1.86119257086999
1.7820136852394917
1.7096774193548387
1.6471163245356797
1.6001955034213098
1.563049853372434
1.5288367546432062
1.501466275659824
1.479960899315738
1.4623655913978495
1.447702834799609
1.435972629521017
1.4252199413489737
1.41544477028348
1.4076246334310851
1.4007820136852396
1.392961876832845
1.3792766373411536
1.3665689149560116
1.3548387096774193
1.3401759530791788
1.3235581622678396
1.305962854349951
1.2873900293255132
1.2688172043010753
1.249266862170088
1.2297165200391007
1.2140762463343109
1.1974584555229717
1.1827956989247312
1.1691104594330402
1.1495601173020529
1.130987292277615
1.1124144672531768
1.093841642228739
1.078201368523949
1.0635386119257086
1.050830889540567
1.0391006842619743
1.0303030303030305
1.0234604105571847
1.0166177908113392
1.0127077223851415
1.010752688172043
1.0068426197458455
1.0019550342130987
0.9960899315738024
0.9902248289345064
0.9863147605083088
0.9843597262952102
0.9833822091886608
0.9824046920821116
0.9824046920821116
0.9804496578690128
0.981427174975562
0.9843597262952102
0.9863147605083088
0.9872922776148584
0.9872922776148584
0.9872922776148584
0.9872922776148584
0.9872922776148584
0.9863147605083088
0.9843597262952102
0.9833822091886608
0.981427174975562
0.9804496578690128
0.9824046920821116
0.9853372434017597
0.9863147605083088
0.9853372434017597
0.9853372434017597
0.9853372434017597
0.9824046920821116
0.9775171065493646
0.9716520039100685
0.967741935483871
0.9667644183773216
0.9706744868035192
0.9824046920821116
1.0048875855327468
1.04594330400782
1.1173020527859236
1.2287390029325511
1.3792766373411536
1.564027370478983
1.7761485826001957
2.0
2.219941348973607
2.423264907135875
2.5972629521016617
2.7390029325513194
2.835777126099707
2.897360703812317
2.940371456500489
2.962854349951124
2.964809384164223
2.9501466275659824
2.924731182795699
2.8905180840664717
2.8484848484848486
2.80058651026393
2.7517106549364616
2.702834799608993
2.653958944281525
2.603128054740958
2.5464320625610948
2.4838709677419355
2.4173998044965788
2.326490713587488
2.242424242424242
2.179863147605083
2.10850439882698
2.032258064516129
1.9560117302052784
1.881720430107527
1.8191593352883677
1.7644183773216031
1.7086999022482894
1.6578690127077225
1.616813294232649
1.5865102639296187
1.565982404692082
1.552297165200391
1.547409579667644
1.5493646138807429
1.5532746823069403
1.555229716520039
1.5562072336265884
1.5571847507331378
1.5571847507331378
1.5542521994134897
1.5464320625610948
1.5366568914956011
1.5249266862170088
1.5112414467253177
1.4936461388074291
1.4760508308895406
1.457478005865103
1.4379276637341154
1.418377321603128
1.3978494623655917
1.3822091886608017
1.3695014662756595
1.35386119257087
1.3333333333333333
1.3157380254154447
1.3040078201368523
1.2913000977517106
1.278592375366569
1.267839687194526
1.260019550342131
1.252199413489736
1.2443792766373412
1.2375366568914956
1.23069403714565
1.2228739002932552
1.2140762463343109
1.206256109481916
1.2023460410557183
1.1994134897360704
1.1964809384164223
1.1945259042033236
1.1935483870967742
1.1935483870967742
1.1945259042033236
1.198435972629521
1.2013685239491692
1.203323558162268
1.2043010752688172
1.2043010752688172
1.203323558162268
1.2013685239491692
1.2003910068426198
1.1994134897360704
1.1994134897360704
1.1994134897360704
1.1994134897360704
1.1994134897360704
1.2003910068426198
1.2023460410557183
1.203323558162268
1.2043010752688172
1.2043010752688172
1.2043010752688172
1.203323558162268
1.2013685239491692
1.2003910068426198
1.198435972629521
1.1935483870967742
1.1867057673509287
1.1808406647116323
1.1779081133919844
1.1759530791788857
1.1798631476050832
1.195503421309873
1.2326490713587488
1.3020527859237536
1.409579667644184
1.5562072336265884
1.7350928641251222
1.932551319648094
2.134897360703812
2.3274682306940373
2.479960899315738
2.6177908113391983
2.735092864125122
2.806451612903226
2.860215053763441
2.89345063538612
2.905180840664712
2.8993157380254155
2.877810361681329
2.844574780058651
2.8054740957966766
2.7614858260019552
2.7145650048875853
2.664711632453568
2.610948191593353
2.555229716520039
2.495601173020528
2.41544477028348
2.3421309872922778
2.286412512218964
2.218963831867057
2.145650048875855
2.071358748778104
1.9980449657869013
1.924731182795699
1.86119257086999
1.8054740957966764
1.7487781036168133
1.6950146627565983
1.64613880742913
1.6041055718475072
1.5679374389051808
1.5376344086021505
1.5102639296187683
1.490713587487781
1.478983382209189
1.4701857282502444
1.4633431085043989
1.458455522971652
1.4545454545454546
1.447702834799609
1.439882697947214
1.4330400782013686
1.4271749755620724
1.4213098729227762
1.4076246334310851
1.3919843597262953
1.3792766373411536
1.3636363636363635
1.3470185728250244
1.3313782991202343
1.3157380254154447
1.2981427174975562
1.2795698924731185
1.2609970674486803
1.2453567937438903
1.2287390029325511
1.2111436950146628
1.1964809384164223
1.1827956989247312
1.1700879765395895
1.1573802541544478
1.1485826001955035
1.1407624633431086
1.130987292277615
1.1173020527859236
1.104594330400782
1.0948191593352885
1.0840664711632453
1.072336265884653
1.0635386119257086
1.0576735092864125
1.0518084066471165
1.04594330400782
1.0410557184750733
1.0420332355816226
1.04594330400782
1.0488758553274682
1.0518084066471165
1.0547409579667644
1.0576735092864125
1.0596285434995112
1.0606060606060606
1.0606060606060606
1.0606060606060606
1.0596285434995112
1.0586510263929618
1.0596285434995112
1.0606060606060606
1.0606060606060606
1.0606060606060606
1.0606060606060606
1.0606060606060606
1.0606060606060606
1.0606060606060606
1.0606060606060606
1.0606060606060606
1.0596285434995112
1.0576735092864125
1.0547409579667644
1.053763440860215
1.0527859237536656
1.0478983382209188
1.0410557184750733
1.0361681329423265
1.0557184750733135
1.088954056695992
1.1319648093841643
1.219941348973607
1.4076246334310851
1.606060606060606
1.7605083088954057
1.919843597262952
2.078201368523949
2.2551319648093844
2.4271749755620724
2.579667644183773
2.7038123167155423
2.7976539589442817
2.8611925708699903
2.898338220918866
2.913978494623656
2.9120234604105573
