ppg
1.1612903225806452
1.1593352883675463
1.1564027370478984
1.1544477028347997
1.1515151515151516
1.147605083088954
1.141739980449658
1.13880742913001
1.1368523949169111
1.133919843597263
1.1329423264907137
1.13880742913001
1.1573802541544478
1.1925708699902249
1.2512218963831867
1.33822091886608
1.452590420332356
1.5894428152492668
1.7448680351906158
1.911045943304008
2.056695992179863
2.1867057673509285
2.324535679374389
2.4565004887585533
2.573802541544477
2.6715542521994133
2.7497556207233624
2.8084066471163247
2.849462365591398
2.873900293255132
2.8856304985337244
2.886608015640274
2.877810361681329
2.860215053763441
2.8367546432062563
2.806451612903226
2.768328445747801
2.7233626588465296
2.6715542521994133
2.6129032258064515
2.547409579667644
2.4780058651026398
2.4056695992179864
2.332355816226784
2.26197458455523
2.201368523949169
2.147605083088954
2.0957966764418376
2.048875855327468
2.0087976539589443
1.9745845552297163
1.9442815249266865
1.9178885630498532
1.8944281524926687
1.871945259042033
1.8484848484848484
1.825024437927664
1.804496578690127
1.7839687194525904
1.7605083088954057
1.7341153470185728
1.7057673509286413
1.6774193548387095
1.6480938416422288
1.616813294232649
1.585532746823069
1.5542521994134897
1.52297165200391
1.490713587487781
1.458455522971652
1.4330400782013686
1.409579667644184
1.3841642228739004
1.3577712609970674
1.332355816226784
1.3069403714565004
1.284457478005865
1.2639296187683284
1.2453567937438903
1.227761485826002
1.2121212121212122
1.1964809384164223
1.1867057673509287
1.1788856304985338
1.1691104594330402
1.1573802541544478
1.1456500488758554
1.133919843597263
1.1231671554252198
1.1143695014662756
1.10752688172043
1.1016617790811338
1.096774193548387
1.0918866080156402
1.0869990224828934
1.0850439882697946
1.0850439882697946
1.0821114369501466
1.078201368523949
1.0742913000977516
1.0694037145650048
1.0654936461388074
1.06158357771261
1.056695992179863
1.0518084066471165
1.0469208211143697
1.0420332355816226
1.040078201368524
1.0391006842619743
1.0361681329423265
1.0312805474095796
1.0283479960899315
1.0312805474095796
1.043010752688172
1.0703812316715542
1.118279569892473
1.1906158357771262
1.2873900293255132
1.4086021505376345
1.555229716520039
1.6950146627565983
1.8318670576735088
1.986314760508309
2.1436950146627565
2.2932551319648096
2.4281524926686218
2.5425219941348973
2.6373411534701856
2.7116324535679373
2.7653958944281527
2.8025415444770285
2.825024437927664
2.831867057673509
2.8260019550342133
2.8132942326490715
2.792766373411535
2.764418377321604
2.727272727272727
2.6823069403714563
2.6285434995112413
2.567937438905181
2.501466275659824
2.43108504398827
2.361681329423265
2.300097751710655
2.243401759530792
2.1867057673509285
2.132942326490713
2.083088954056696
2.038123167155425
1.997067448680352
1.9560117302052784
1.9227761485826005
1.9012707722385145
1.8826979472140764
1.865102639296188
1.847507331378299
1.8318670576735088
1.8172043010752688
1.7996089931573802
1.7781036168132942
1.75366568914956
1.7282502443792769
1.7038123167155426
1.6823069403714566
1.6637341153470186
1.6500488758553276
1.6392961876832846
1.629521016617791
1.6217008797653958
1.6129032258064515
1.6001955034213098
1.58455522971652
1.565982404692082
1.543499511241447
1.517106549364614
1.4887585532746823
1.458455522971652
1.426197458455523
1.391006842619746
1.3558162267839686
1.321603128054741
1.2932551319648091
1.2688172043010753
1.241446725317693
1.2150537634408602
1.1896383186705768
1.1652003910068427
1.1436950146627567
1.1251221896383188
1.110459433040078
1.1016617790811338
1.0977517106549364
1.0977517106549364
1.1016617790811338
1.1094819159335287
1.1173020527859236
1.1251221896383188
1.1319648093841643
1.1368523949169111
1.1407624633431086
1.141739980449658
1.1397849462365592
1.1358748778103618
1.1300097751710656
1.1221896383186705
1.1114369501466277
1.1036168132942326
1.096774193548387
1.0879765395894427
1.0772238514173995
1.0664711632453567
1.056695992179863
1.0498533724340176
1.050830889540567
1.0654936461388074
1.0987292277614855
1.1564027370478984
1.2424242424242424
1.33822091886608
1.4496578690127078
1.5943304007820136
1.761485826001955
1.9393939393939397
2.118279569892473
2.2873900293255134
2.4408602150537635
2.5718475073313782
2.6803519061583576
2.766373411534702
2.83088954056696
2.877810361681329
2.903225806451613
2.9149560117302054
2.9227761485826003
2.9237536656891496
2.916911045943304
2.900293255131965
2.874877810361681
2.841642228739003
2.7996089931573804
2.748778103616813
2.6911045943304006
2.6265884652981426
2.5620723362658846
2.4975562072336266
2.426197458455523
2.35386119257087
2.283479960899316
2.2160312805474094
2.155425219941349
2.1006842619745845
2.053763440860215
2.0146627565982405
1.981427174975562
1.9530791788856303
1.927663734115347
1.9071358748778104
1.8875855327468232
1.8670576735092863
1.8455522971652003
1.822091886608016
1.796676441837732
1.7702834799608993
1.7419354838709675
1.7126099706744868
1.683284457478006
1.6529814271749756
1.6207233626588464
1.5923753665689149
1.565982404692082
1.5347018572825024
1.5024437927663734
1.4701857282502444
1.4389051808406648
1.4105571847507332
1.383186705767351
1.3577712609970674
1.3333333333333333
1.3088954056695992
1.284457478005865
1.2609970674486803
1.2434017595307918
1.2267839687194526
1.2101661779081134
1.198435972629521
1.1867057673509287
1.1749755620723363
1.163245356793744
1.152492668621701
1.1407624633431086
1.1290322580645162
1.118279569892473
1.1085043988269794
1.1016617790811338
1.096774193548387
1.0899315738025417
1.083088954056696
1.0772238514173995
1.0713587487781036
1.0654936461388074
1.06158357771261
1.0586510263929618
1.0547409579667644
1.0518084066471165
1.0478983382209188
1.0439882697947214
1.0420332355816226
1.0420332355816226
1.0391006842619743
1.0332355816226784
1.0263929618768328
1.0195503421309873
1.013685239491691
1.0097751710654936
1.0117302052785924
1.021505376344086
1.0449657869012707
1.0869990224828934
1.141739980449658
1.2130987292277615
1.313782991202346
1.4408602150537635
1.5884652981427174
1.7517106549364614
1.921798631476051
2.089931573802541
2.2482893450635384
2.3919843597262958
2.517106549364614
2.6207233626588464
2.702834799608993
2.7565982404692084
2.789833822091887
2.81622678396872
2.832844574780059
2.8406647116324537
2.8396871945259043
2.83088954056696
2.801564027370479
2.76930596285435
2.739980449657869
2.699902248289345
2.650048875855328
2.5972629521016617
2.5405669599217986
2.4750733137829912
2.401759530791789
2.3255131964809386
2.2482893450635384
2.1730205278592374
2.102639296187683
2.037145650048876
1.9775171065493649
1.924731182795699
1.8778103616813293
1.835777126099707
1.801564027370479
1.772238514173998
1.7419354838709675
1.7116324535679377
1.6813294232649072
1.6520039100684265
1.6226783968719452
1.595307917888563
1.56891495601173
1.543499511241447
1.521016617790811
1.498533724340176
1.4809384164222874
1.4652981427174976
1.4428152492668622
1.4222873900293256
1.409579667644184
1.3978494623655917
1.3851417399804498
1.3734115347018572
1.3616813294232648
1.3499511241446724
1.3372434017595307
1.324535679374389
1.3147605083088951
1.305962854349951
1.2932551319648091
1.2776148582600195
1.2580645161290325
1.2365591397849462
1.2072336265884651
1.1798631476050832
1.1583577712609971
1.1329423264907137
1.1055718475073313
1.0791788856304985
1.0518084066471165
1.0312805474095796
1.0166177908113392
1.0
0.981427174975562
0.9648093841642228
0.9501466275659824
0.93841642228739
0.9315738025415444
0.9296187683284456
0.9364613880742912
0.946236559139785
0.956989247311828
0.9736070381231672
1.0
1.032258064516129
1.0547409579667644
1.0703812316715542
1.0909090909090908
1.1094819159335287
1.121212121212121
1.1329423264907137
1.1485826001955035
1.164222873900293
1.1788856304985338
1.2052785923753666
1.2619745845552297
1.321603128054741
1.3792766373411536
1.5112414467253177
1.6930596285434996
1.826001955034213
1.9345063538611929
2.1114369501466275
2.312805474095797
2.4760508308895406
2.608993157380254
2.702834799608993
2.7702834799608995
2.819159335288368
2.859237536656892
2.897360703812317
2.920821114369501
2.932551319648094
2.9335288367546437
2.924731182795699
2.906158357771261
2.8797653958944283
2.844574780058651
2.7996089931573804
2.7497556207233624
2.6959921798631474
2.633431085043988
2.5650048875855327
2.49266862170088
2.418377321603128
2.346041055718475
2.275659824046921
2.209188660801564
2.1495601173020527
2.0977517106549364
2.0547409579667644
2.022482893450636
1.997067448680352
1.9745845552297163
1.9550342130987293
1.9374389051808407
1.920821114369501
1.9042033235581624
1.8875855327468232
1.8699902248289344
1.8494623655913975
1.8269794721407624
1.8025415444770283
1.775171065493646
1.7497556207233629
1.7253176930596286
1.696969696969697
1.6686217008797657
1.6383186705767352
1.607038123167155
1.576735092864125
1.5454545454545454
1.5161290322580645
1.4868035190615836
1.458455522971652
1.4320625610948192
1.4115347018572826
1.3949169110459434
1.375366568914956
1.3558162267839686
1.3372434017595307
1.3196480938416422
1.303030303030303
1.2883675464320623
1.273704789833822
1.2609970674486803
1.2512218963831867
1.2434017595307918
1.2365591397849462
1.2316715542521994
1.227761485826002
1.2209188660801564
1.2130987292277615
1.2043010752688172
1.195503421309873
1.1867057673509287
1.1788856304985338
1.1720430107526882
1.1652003910068427
1.160312805474096
1.1573802541544478
1.1573802541544478
1.1583577712609971
1.1564027370478984
1.152492668621701
1.1485826001955035
1.1436950146627567
1.1378299120234605
1.130987292277615
1.1231671554252198
1.115347018572825
1.10752688172043
1.099706744868035
1.093841642228739
1.093841642228739
1.1016617790811338
1.121212121212121
1.160312805474096
1.2238514173998043
1.316715542521994
1.439882697947214
1.5894428152492668
1.7595307917888563
1.9403714565004888
2.124144672531769
2.302052785923754
2.4457478005865103
2.5640273704789838
2.6823069403714563
2.7869012707722387
2.8729227761485827
2.940371456500489
2.9902248289345064
3.0254154447702835
3.048875855327468
3.0625610948191597
3.065493646138808
3.058651026392962
3.042033235581622
3.01564027370479
2.9824046920821115
2.941348973607038
2.889540566959922
2.8299120234604107
2.763440860215054
2.6901270772238512
2.610948191593353
2.529814271749756
2.449657869012708
2.3714565004887587
2.297165200391007
2.2346041055718477
2.1808406647116323
2.1309872922776147
2.086021505376344
2.046920821114369
2.013685239491691
1.9853372434017595
1.9589442815249267
1.9345063538611929
1.9100684261974583
1.8836754643206255
1.857282502443793
1.8318670576735088
1.8074291300097751
1.7820136852394917
1.7526881720430108
1.7194525904203324
1.683284457478006
1.64613880742913
1.6099706744868034
1.5757575757575757
1.542521994134897
1.5112414467253177
1.4809384164222874
1.4506353861192571
1.4252199413489737
1.401759530791789
1.3743890518084063
1.346041055718475
1.3186705767350928
1.2932551319648091
1.2697947214076246
1.249266862170088
1.23069403714565
1.2130987292277615
1.1964809384164223
1.1808406647116323
1.1700879765395895
1.1622678396871946
1.1515151515151516
1.1407624633431086
1.130987292277615
1.1221896383186705
1.1133919843597262
1.104594330400782
1.096774193548387
1.088954056695992
1.0821114369501466
1.0762463343108504
1.0713587487781036
1.0703812316715542
1.0703812316715542
1.067448680351906
1.0635386119257086
1.0586510263929618
1.053763440860215
1.0488758553274682
1.0439882697947214
1.040078201368524
1.0361681329423265
1.0312805474095796
1.0263929618768328
1.024437927663734
1.024437927663734
1.021505376344086
1.018572825024438
1.0195503421309873
1.0312805474095796
1.0596285434995112
1.1094819159335287
1.1867057673509287
1.29227761485826
1.4252199413489737
1.5835777126099706
1.7565982404692082
1.90811339198436
2.0449657869012707
2.1915933528836757
2.332355816226784
2.4594330400782014
2.56891495601173
2.659824046920821
2.730205278592375
2.782991202346041
2.819159335288368
2.841642228739003
2.850439882697948
2.84652981427175
2.831867057673509
2.811339198435973
2.7839687194525906
2.750733137829912
2.710654936461388
2.6637341153470184
2.610948191593353
2.552297165200391
2.4887585532746823
2.421309872922776
2.3519061583577714
2.2825024437927666
2.2218963831867056
2.167155425219941
2.112414467253177
2.0635386119257086
2.0195503421309877
1.9824046920821117
1.951124144672532
1.924731182795699
1.9012707722385145
1.8797653958944285
1.858260019550342
1.835777126099707
1.81524926686217
1.7976539589442817
1.7771260997067448
1.7546432062561097
1.7302052785923754
1.7038123167155426
1.675464320625611
1.64613880742913
1.6158357771260996
1.585532746823069
1.5532746823069403
1.521016617790811
1.4897360703812317
1.4652981427174976
1.4437927663734116
1.418377321603128
1.392961876832845
1.3685239491691104
1.3450635386119256
1.3225806451612905
1.3020527859237536
1.2825024437927663
1.2639296187683284
1.2473118279569892
1.23069403714565
1.219941348973607
1.2111436950146628
1.1994134897360704
1.1857282502443791
1.1730205278592376
1.1612903225806452
1.1505376344086022
1.1397849462365592
1.1300097751710656
1.1231671554252198
1.1173020527859236
1.1114369501466277
1.1065493646138806
1.104594330400782
1.1036168132942326
1.099706744868035
1.093841642228739
1.0869990224828934
1.0811339198435972
1.0762463343108504
1.0713587487781036
1.0684261974584557
1.0664711632453567
1.064516129032258
1.0635386119257086
1.064516129032258
1.0654936461388074
1.0635386119257086
1.0596285434995112
1.0557184750733135
1.053763440860215
1.056695992179863
1.0684261974584557
1.0957966764418376
1.144672531769306
1.2179863147605083
1.3186705767350928
1.444770283479961
1.56891495601173
1.696969696969697
1.8484848484848484
2.007820136852395
2.164222873900293
2.3088954056695994
2.4359726295210167
2.5434995112414467
2.6295210166177907
2.6940371456500487
2.739980449657869
2.768328445747801
2.780058651026393
2.780058651026393
2.774193548387097
2.7614858260019552
2.740957966764418
2.7126099706744866
2.677419354838709
2.634408602150537
2.58455522971652
2.527859237536657
2.466275659824047
2.40078201368524
2.332355816226784
2.270772238514174
2.2140762463343107
2.155425219941349
2.099706744868035
2.047898338220919
2.002932551319648
1.964809384164223
1.9335288367546437
1.9071358748778104
1.884652981427175
1.866080156402737
1.8514173998044965
1.8377321603128052
1.8240469208211143
1.8084066471163245
1.790811339198436
1.7712609970674489
1.7487781036168133
1.7243401759530792
1.6989247311827955
1.672531769305963
1.6441837732160314
1.6148582600195502
1.585532746823069
1.555229716520039
1.5298142717497556
1.5053763440860215
1.478005865102639
1.4506353861192571
1.423264907135875
1.3958944281524928
1.370478983382209
1.346041055718475
1.3235581622678396
1.3020527859237536
1.281524926686217
1.2619745845552297
1.2482893450635386
1.238514173998045
1.2287390029325511
1.219941348973607
1.2121212121212122
1.2043010752688172
1.1964809384164223
1.1896383186705768
1.1837732160312806
1.1788856304985338
1.1730205278592376
1.1691104594330402
1.166177908113392
1.166177908113392
1.1671554252199414
1.166177908113392
1.164222873900293
1.1612903225806452
1.155425219941349
1.1505376344086022
1.147605083088954
1.1456500488758554
1.144672531769306
1.144672531769306
1.144672531769306
1.1466275659824048
1.1485826001955035
1.1485826001955035
1.1466275659824048
1.1436950146627567
1.1407624633431086
1.13880742913001
1.1397849462365592
1.1466275659824048
1.164222873900293
1.198435972629521
1.2561094819159335
1.324535679374389
1.409579667644184
1.525904203323558
1.6666666666666667
1.826001955034213
1.9931573802541545
2.1593352883675463
2.317693059628544
2.4613880742913
2.5865102639296187
2.6911045943304006
2.7751710654936463
2.838709677419355
2.877810361681329
2.9012707722385143
2.918866080156403
2.929618768328446
2.932551319648094
2.9266862170087977
2.911045943304008
2.886608015640274
2.854349951124145
2.8132942326490715
2.7653958944281527
2.710654936461388
2.653958944281525
2.5943304007820136
2.527859237536657
2.4565004887585533
2.383186705767351
2.3118279569892475
2.24633431085044
2.1867057673509285
2.133919843597263
2.0879765395894427
2.048875855327468
2.016617790811339
1.988269794721408
1.964809384164223
1.946236559139785
1.9286412512218964
1.9090909090909087
1.889540566959922
1.869012707722385
1.8465298142717497
1.8201368523949168
1.7917888563049853
1.7624633431085044
1.732160312805474
1.7008797653958945
1.6735092864125125
1.6480938416422288
1.6207233626588464
1.5913978494623655
1.5610948191593352
1.5239491691104594
1.482893450635386
1.4467253176930597
1.414467253176931
1.3841642228739004
1.356793743890518
1.3313782991202343
1.3069403714565004
1.2873900293255132
1.273704789833822
1.2590420332355816
1.2434017595307918
1.2287390029325511
1.2150537634408602
1.2023460410557183
1.1915933528836755
1.181818181818182
1.1720430107526882
1.163245356793744
1.155425219941349
1.1515151515151516
1.1495601173020529
1.1456500488758554
1.1407624633431086
1.133919843597263
1.1270772238514175
1.1192570869990224
1.1114369501466277
1.1036168132942326
1.0977517106549364
1.0928641251221896
1.088954056695992
1.0850439882697946
1.0850439882697946
1.0869990224828934
1.086021505376344
1.083088954056696
1.0791788856304985
1.0742913000977516
1.0684261974584557
1.0606060606060606
1.0527859237536656
1.0488758553274682
1.0518084066471165
1.0664711632453567
1.0918866080156402
1.133919843597263
1.2013685239491692
1.2971652003910068
1.4203323558162269
1.5679374389051808
1.7331378299120237
1.9090909090909087
2.086021505376344
2.257086999022483
2.41544477028348
2.555229716520039
2.673509286412512
2.7565982404692084
2.814271749755621
2.865102639296188
2.9042033235581624
2.9315738025415445
2.948191593352884
2.9530791788856305
2.949169110459433
2.9374389051808407
2.9159335288367547
2.884652981427175
2.843597262952102
2.798631476050831
2.748778103616813
2.689149560117302
2.621700879765396
2.548387096774193
2.4731182795698925
2.3958944281524928
2.320625610948192
2.249266862170088
2.1837732160312804
2.1251221896383186
2.0733137829912023
2.0283479960899315
1.9931573802541545
1.963831867057673
1.9374389051808407
1.9130009775171064
1.889540566959922
1.866080156402737
1.842619745845552
1.818181818181818
1.793743890518084
1.7673509286412512
1.7390029325513197
1.7086999022482894
1.6823069403714566
1.6559139784946235
1.6256109481915937
1.5923753665689149
1.5571847507331378
1.52297165200391
1.487781036168133
1.4535679374389052
1.4203323558162269
1.3890518084066472
1.3587487781036167
1.3284457478005864
1.3010752688172045
1.2805474095796676
1.2649071358748778
1.24633431085044
1.2258064516129032
1.206256109481916
1.187683284457478
1.1710654936461389
1.155425219941349
1.141739980449658
1.1280547409579669
1.1173020527859236
1.1085043988269794
1.1036168132942326
1.1006842619745845
1.0957966764418376
1.088954056695992
1.0821114369501466
1.0762463343108504
1.0703812316715542
1.064516129032258
1.0586510263929618
1.053763440860215
1.0469208211143697
1.040078201368524
1.0332355816226784
1.029325513196481
1.0283479960899315
1.0254154447702837
1.021505376344086
1.018572825024438
1.0156402737047898
1.0117302052785924
1.0068426197458455
1.002932551319648
0.9990224828934506
0.9951124144672532
0.9931573802541545
0.997067448680352
1.0068426197458455
1.0263929618768328
1.06158357771261
1.118279569892473
1.2013685239491692
1.3128054740957966
1.4516129032258065
1.6109481915933528
1.7839687194525904
1.9618768328445748
2.1388074291300097
2.304985337243402
2.436950146627566
2.5434995112414467
2.6471163245356792
2.7370478983382207
2.8103616813294234
2.866080156402737
2.903225806451613
2.9227761485826003
2.9266862170087977
2.916911045943304
2.89345063538612
2.857282502443793
2.8152492668621703
2.766373411534702
2.705767350928641
2.636363636363636
2.5591397849462365
2.47702834799609
2.3900293255131966
2.302052785923754
2.21505376344086
2.131964809384164
2.0557184750733137
1.989247311827957
1.9374389051808407
1.8963831867057677
1.86119257086999
1.8318670576735088
1.8093841642228736
1.7927663734115349
1.780058651026393
1.7702834799608993
1.7634408602150538
1.7565982404692082
1.750733137829912
1.7448680351906158
1.737047898338221
1.729227761485826
1.7204301075268815
1.70772238514174
1.6920821114369502
1.672531769305963
1.6480938416422288
1.6187683284457477
1.58455522971652
1.5464320625610948
1.5053763440860215
1.4623655913978495
1.418377321603128
1.3812316715542523
1.348973607038123
1.3118279569892473
1.2727272727272727
1.2336265884652982
1.1964809384164223
1.160312805474096
1.126099706744868
1.093841642228739
1.0664711632453567
1.0449657869012707
1.0283479960899315
1.0175953079178883
1.013685239491691
1.0156402737047898
1.0195503421309873
1.0263929618768328
1.0381231671554252
1.053763440860215
1.072336265884653
1.0928641251221896
1.1143695014662756
1.1358748778103618
1.1564027370478984
1.173998044965787
1.1896383186705768
1.2023460410557183
1.2121212121212122
1.2189638318670577
1.2209188660801564
1.219941348973607
1.2160312805474096
1.2082111436950147
1.1974584555229717
1.18475073313783
1.1710654936461389
1.155425219941349
1.13880742913001
1.126099706744868
1.1163245356793745
1.1055718475073313
1.099706744868035
1.104594330400782
1.1280547409579669
1.1759530791788857
1.252199413489736
1.359726295210166
1.495601173020528
1.6549364613880744
1.835777126099707
2.002932551319648
2.15347018572825
2.314760508308896
2.4701857282502444
2.610948191593353
2.732160312805474
2.831867057673509
2.9120234604105573
2.973607038123167
3.018572825024438
3.048875855327468
3.065493646138808
3.069403714565005
3.06158357771261
3.0439882697947214
3.0205278592375366
2.988269794721408
2.9472140762463344
2.898338220918866
2.8426197458455524
2.779081133919844
2.708699902248289
2.633431085043988
2.5542521994134897
2.4760508308895406
2.406647116324536
2.3440860215053765
2.2825024437927666
2.2267839687194524
2.175953079178885
2.131964809384164
2.0948191593352883
2.0635386119257086
2.0391006842619745
2.0175953079178885
1.997067448680352
1.9775171065493649
1.956989247311828
1.93841642228739
1.9188660801564028
1.8944281524926687
1.868035190615836
1.839687194525904
1.8103616813294232
1.780058651026393
1.7487781036168133
1.7174975562072337
1.686217008797654
1.6529814271749756
1.6177908113391983
1.587487781036168
1.5620723362658846
1.533724340175953
1.5053763440860215
1.47702834799609
1.4516129032258065
1.4281524926686218
1.4056695992179864
1.3861192570869991
1.3685239491691104
1.3528836754643203
1.33822091886608
1.3235581622678396
1.3118279569892473
1.3010752688172045
1.289345063538612
1.2776148582600195
1.2668621700879763
1.2551319648093842
1.2443792766373412
1.2346041055718475
1.224828934506354
1.2150537634408602
1.206256109481916
1.198435972629521
1.1945259042033236
1.1925708699902249
1.1896383186705768
1.1857282502443791
1.1808406647116323
1.1759530791788857
1.1700879765395895
1.163245356793744
1.155425219941349
1.147605083088954
1.1397849462365592
1.1329423264907137
1.126099706744868
1.1231671554252198
1.1221896383186705
1.1202346041055715
1.118279569892473
1.1173020527859236
1.121212121212121
1.1348973607038124
1.1652003910068427
1.2160312805474096
1.29227761485826
1.3978494623655917
1.530791788856305
1.6637341153470186
1.8025415444770283
1.9687194525904204
2.145650048875855
2.320625610948192
2.486803519061584
2.636363636363636
2.764418377321604
2.870967741935484
