ppg
1.1143695014662756
1.0899315738025417
1.0664711632453567
1.043010752688172
1.018572825024438
0.9902248289345064
0.9618768328445748
0.9325513196480938
0.9022482893450636
0.8729227761485826
0.8533724340175953
0.8455522971652004
0.852394916911046
0.8866080156402737
0.959921798631476
1.0801564027370478
1.2453567937438903
1.4457478005865103
1.6656891495601174
1.8875855327468232
2.096774193548387
2.280547409579668
2.418377321603128
2.520039100684262
2.6080156402737047
2.677419354838709
2.729227761485826
2.7653958944281527
2.7869012707722387
2.793743890518084
2.7859237536656893
2.764418377321604
2.730205278592375
2.6823069403714563
2.622678396871945
2.5591397849462365
2.489736070381232
2.406647116324536
2.314760508308896
2.2160312805474094
2.112414467253177
2.0097751710654936
1.9120234604105573
1.8191593352883677
1.737047898338221
1.6666666666666667
1.607038123167155
1.5620723362658846
1.5288367546432062
1.5024437927663734
1.4809384164222874
1.4643206256109482
1.4506353861192571
1.435972629521017
1.4203323558162269
1.4027370478983383
1.3841642228739004
1.3636363636363635
1.3421309872922775
1.324535679374389
1.3088954056695992
1.2903225806451613
1.2697947214076246
1.2482893450635386
1.224828934506354
1.2003910068426198
1.173998044965787
1.147605083088954
1.121212121212121
1.0948191593352885
1.0703812316715542
1.04594330400782
1.0263929618768328
1.0097751710654936
0.9882697947214076
0.9628543499511242
0.9364613880742912
0.9110459433040078
0.8914956011730205
0.8875855327468231
0.9100684261974584
0.9706744868035192
1.0762463343108504
1.227761485826002
1.3890518084066472
1.5610948191593352
1.7673509286412512
1.981427174975562
2.1837732160312804
2.3597262952101663
2.504398826979472
2.6158357771261
2.6989247311827955
2.7595307917888565
2.80058651026393
2.825024437927664
2.8367546432062563
2.833822091886608
2.817204301075269
2.789833822091887
2.7517106549364616
2.7008797653958942
2.636363636363636
2.560117302052786
2.4750733137829912
2.383186705767351
2.2873900293255134
2.187683284457478
2.0869990224828934
2.0
1.921798631476051
1.8406647116324533
1.7653958944281525
1.6989247311827955
1.6412512218963833
1.5913978494623655
1.547409579667644
1.5083088954056696
1.474095796676442
1.4408602150537635
1.4086021505376345
1.380254154447703
1.3587487781036167
1.33822091886608
1.3157380254154447
1.2932551319648091
1.270772238514174
1.2482893450635386
1.262952101661779
1.2981427174975562
1.3069403714565004
1.303030303030303
1.2932551319648091
1.2795698924731185
1.2688172043010753
1.260019550342131
1.2502443792766371
1.2404692082111437
1.227761485826002
1.2160312805474096
1.2072336265884651
1.1964809384164223
1.1837732160312806
1.1681329423264908
1.1495601173020529
1.130987292277615
1.118279569892473
1.118279569892473
1.1378299120234605
1.1886608015640274
1.278592375366569
1.409579667644184
1.5777126099706744
1.7712609970674489
1.9726295210166176
2.1681329423264906
2.345063538611926
2.4946236559139785
2.6148582600195502
2.695014662756598
2.7468230694037143
2.788856304985337
2.819159335288368
2.8377321603128056
2.844574780058651
2.8426197458455524
2.832844574780059
2.81622678396872
2.790811339198436
2.7565982404692084
2.7116324535679373
2.6529814271749754
2.590420332355816
2.5219941348973607
2.439882697947214
2.350928641251222
2.260997067448681
2.1730205278592374
2.090909090909091
2.01564027370479
1.948191593352884
1.8905180840664717
1.8416422287390029
1.7996089931573802
1.7683284457478006
1.7448680351906158
1.7233626588465298
1.7018572825024438
1.6803519061583578
1.6598240469208212
1.6383186705767352
1.6138807429130009
1.585532746823069
1.555229716520039
1.5239491691104594
1.4936461388074291
1.4633431085043989
1.4379276637341154
1.414467253176931
1.3861192570869991
1.3577712609970674
1.3284457478005864
1.2971652003910068
1.2658846529814272
1.2355816226783969
1.2082111436950147
1.1837732160312806
1.1612903225806452
1.141739980449658
1.1290322580645162
1.1173020527859236
1.1036168132942326
1.0899315738025417
1.0791788856304985
1.0772238514173995
1.0918866080156402
1.1329423264907137
1.2101661779081134
1.3264907135874875
1.4819159335288368
1.6666666666666667
1.8699902248289344
2.047898338220919
2.2052785923753664
2.363636363636364
2.504398826979472
2.618768328445748
2.704789833822092
2.766373411534702
2.807429130009776
2.831867057673509
2.8406647116324537
2.8367546432062563
2.820136852394917
2.792766373411535
2.7565982404692084
2.708699902248289
2.650048875855328
2.579667644183773
2.5024437927663734
2.418377321603128
2.3304007820136854
2.241446725317693
2.1515151515151514
2.065493646138808
1.9843597262952104
1.905180840664712
1.8455522971652003
1.8054740957966764
1.7673509286412512
1.7360703812316716
1.7126099706744868
1.694037145650049
1.678396871945259
1.6637341153470186
1.6471163245356797
1.629521016617791
1.6099706744868034
1.587487781036168
1.5669599217986314
1.5454545454545454
1.5190615835777126
1.4926686217008798
1.4682306940371457
1.4437927663734116
1.4193548387096775
1.3900293255131966
1.3636363636363635
1.3440860215053765
1.3225806451612905
1.3020527859237536
1.2854349951124144
1.270772238514174
1.2541544477028348
1.238514173998045
1.2228739002932552
1.206256109481916
1.187683284457478
1.1671554252199414
1.147605083088954
1.1319648093841643
1.1270772238514175
1.144672531769306
1.1945259042033236
1.2639296187683284
1.359726295210166
1.500488758553275
1.6744868035190617
1.8670576735092863
2.0625610948191597
2.247311827956989
2.4115347018572826
2.548387096774193
2.6666666666666665
2.752688172043011
2.803519061583578
2.8367546432062563
2.855327468230694
2.8690127077223853
2.874877810361681
2.8699902248289346
2.8533724340175954
2.8240469208211145
2.782991202346041
2.732160312805474
2.6510263929618767
2.5718475073313782
2.509286412512219
2.432062561094819
2.335288367546432
2.2521994134897363
2.1700879765395893
2.071358748778104
1.991202346041056
1.9364613880742916
1.8973607038123168
1.8494623655913975
1.801564027370479
1.7653958944281525
1.7350928641251222
1.7096774193548387
1.6871945259042034
1.6686217008797657
1.6422287390029326
1.6021505376344083
1.5610948191593352
1.530791788856305
1.495601173020528
1.447702834799609
1.4037145650048877
1.364613880742913
1.3284457478005864
1.2932551319648091
1.2649071358748778
1.2434017595307918
1.224828934506354
1.2111436950146628
1.2023460410557183
1.198435972629521
1.1974584555229717
1.195503421309873
1.1915933528836755
1.1837732160312806
1.1710654936461389
1.1515151515151516
1.1329423264907137
1.1163245356793745
1.0987292277614855
1.0909090909090908
1.1055718475073313
1.1534701857282503
1.241446725317693
1.3714565004887584
1.5405669599217986
1.7341153470185728
1.935483870967742
2.1300097751710654
2.302052785923754
2.4301075268817205
2.5219941348973607
2.598240469208211
2.653958944281525
2.69208211143695
2.717497556207233
2.7311827956989245
2.735092864125122
2.729227761485826
2.713587487781036
2.687194525904203
2.6510263929618767
2.6080156402737047
2.558162267839687
2.495601173020528
2.423264907135875
2.345063538611926
2.26197458455523
2.177908113391984
2.096774193548387
2.021505376344086
1.951124144672532
1.8875855327468232
1.83088954056696
1.7820136852394917
1.7438905180840665
1.7126099706744868
1.6803519061583578
1.651026392961877
1.6256109481915937
1.6041055718475072
1.5835777126099706
1.5650048875855327
1.5464320625610948
1.5278592375366569
1.5083088954056696
1.4868035190615836
1.469208211143695
1.4535679374389052
1.434017595307918
1.41544477028348
1.3998044965786902
1.3851417399804498
1.3685239491691104
1.3479960899315735
1.327468230694037
1.305962854349951
1.2805474095796676
1.2512218963831867
1.2218963831867058
1.1994134897360704
1.1808406647116323
1.160312805474096
1.13880742913001
1.1163245356793745
1.093841642228739
1.072336265884653
1.0557184750733135
1.0518084066471165
1.072336265884653
1.1251221896383188
1.2179863147605083
1.3294232649071358
1.4643206256109482
1.6412512218963833
1.8406647116324533
2.043010752688172
2.232649071358749
2.3949169110459434
2.5239491691104594
2.6207233626588464
2.687194525904203
2.732160312805474
2.760508308895406
2.774193548387097
2.774193548387097
2.763440860215054
2.7438905180840663
2.713587487781036
2.6695992179863146
2.610948191593353
2.536656891495601
2.449657869012708
2.3519061583577714
2.24633431085044
2.1358748778103616
2.0283479960899315
1.9364613880742916
1.8563049853372435
1.7741935483870968
1.696969696969697
1.6285434995112416
1.56891495601173
1.5190615835777126
1.479960899315738
1.447702834799609
1.4222873900293256
1.4037145650048877
1.391006842619746
1.3841642228739004
1.3822091886608017
1.3851417399804498
1.3890518084066472
1.392961876832845
1.3949169110459434
1.393939393939394
1.3890518084066472
1.3773216031280548
1.356793743890518
1.332355816226784
1.3040078201368523
1.2717497556207231
1.2434017595307918
1.2179863147605083
1.1886608015640274
1.1583577712609971
1.130987292277615
1.1085043988269794
1.0918866080156402
1.0821114369501466
1.0742913000977516
1.0664711632453567
1.0557184750733135
1.043010752688172
1.0312805474095796
1.0263929618768328
1.0303030303030305
1.050830889540567
1.1026392961876832
1.1925708699902249
1.3235581622678396
1.490713587487781
1.6842619745845553
1.8875855327468232
2.0840664711632453
2.264907135874878
2.421309872922776
2.535679374389052
2.619745845552297
2.6940371456500487
2.752688172043011
2.7947214076246336
2.820136852394917
2.827956989247312
2.8211143695014664
2.80058651026393
2.768328445747801
2.727272727272727
2.67644183773216
2.624633431085044
2.5698924731182795
2.505376344086021
2.43108504398827
2.3489736070381237
2.2580645161290325
2.161290322580645
2.060606060606061
1.9579667644183771
1.8602150537634408
1.7712609970674489
1.6959921798631477
1.635386119257087
1.5923753665689149
1.564027370478983
1.543499511241447
1.5288367546432062
1.5180840664711632
1.509286412512219
1.498533724340176
1.4838709677419355
1.4652981427174976
1.4428152492668622
1.4134897360703813
1.3773216031280548
1.346041055718475
1.3176930596285434
1.2864125122189638
1.2561094819159335
1.2287390029325511
1.2072336265884651
1.1915933528836755
1.1827956989247312
1.1788856304985338
1.176930596285435
1.1779081133919844
1.181818181818182
1.1857282502443791
1.1915933528836755
1.1974584555229717
1.2003910068426198
1.1994134897360704
1.1915933528836755
1.1808406647116323
1.173998044965787
1.1788856304985338
1.206256109481916
1.270772238514174
1.3773216031280548
1.5239491691104594
1.6764418377321604
1.8347996089931573
2.0205278592375366
2.207233626588465
2.377321603128055
2.520039100684262
2.6285434995112413
2.70772238514174
2.760508308895406
2.791788856304985
2.8044965786901277
2.8054740957966766
2.7966764418377323
2.779081133919844
2.752688172043011
2.718475073313783
2.675464320625611
2.621700879765396
2.557184750733138
2.482893450635386
2.40078201368524
2.312805474095797
2.2218963831867056
2.133919843597263
2.050830889540567
1.981427174975562
1.921798631476051
1.8641251221896384
1.8113391984359728
1.7653958944281525
1.7253176930596286
1.689149560117302
1.6549364613880744
1.6207233626588464
1.585532746823069
1.5483870967741935
1.509286412512219
1.4682306940371457
1.43108504398827
1.3958944281524928
1.35386119257087
1.3098729227761483
1.2668621700879763
1.227761485826002
1.195503421309873
1.1700879765395895
1.1505376344086022
1.1358748778103618
1.126099706744868
1.1192570869990224
1.1173020527859236
1.1163245356793745
1.110459433040078
1.1006842619745845
1.088954056695992
1.0762463343108504
1.0606060606060606
1.0420332355816226
1.0254154447702837
1.013685239491691
1.010752688172043
1.021505376344086
1.056695992179863
1.1124144672531768
1.1935483870967742
1.3206256109481915
1.4887585532746823
1.686217008797654
1.8963831867057677
2.101661779081134
2.2883675464320627
2.4457478005865103
2.5698924731182795
2.659824046920821
2.718475073313783
2.748778103616813
2.758553274682307
2.755620723362659
2.739980449657869
2.7126099706744866
2.673509286412512
2.625610948191593
2.6021505376344085
2.5884652981427174
2.544477028347996
2.4838709677419355
2.4134897360703813
2.337243401759531
2.267839687194526
2.203323558162268
2.133919843597263
2.0635386119257086
1.9960899315738023
1.9335288367546437
1.8778103616813293
1.8299120234604105
1.7888563049853372
1.75366568914956
1.7253176930596286
1.7018572825024438
1.6852394916911049
1.6715542521994136
1.656891495601173
1.6392961876832846
1.6187683284457477
1.5943304007820136
1.563049853372434
1.5288367546432062
1.4916911045943304
1.452590420332356
1.412512218963832
1.375366568914956
1.3411534701857282
1.313782991202346
1.2913000977517106
1.2649071358748778
1.2365591397849462
1.2111436950146628
1.1915933528836755
1.173998044965787
1.160312805474096
1.1495601173020529
1.1378299120234605
1.1251221896383188
1.1085043988269794
1.0948191593352885
1.0811339198435972
1.0635386119257086
1.0518084066471165
1.0606060606060606
1.1036168132942326
1.1915933528836755
1.3294232649071358
1.5151515151515151
1.7380254154447703
1.9824046920821117
2.225806451612903
2.4516129032258065
2.6285434995112413
2.764418377321604
2.884652981427175
2.979472140762464
3.048875855327468
3.096774193548387
3.1270772238514173
3.139784946236559
3.136852394916911
3.117302052785924
3.083088954056696
3.035190615835777
2.978494623655914
2.9120234604105573
2.8299120234604107
2.7370478983382207
2.635386119257087
2.5288367546432062
2.420332355816227
2.310850439882698
2.2052785923753664
2.1065493646138806
2.016617790811339
1.9364613880742916
1.8758553274682308
1.83088954056696
1.790811339198436
1.7565982404692082
1.7272727272727273
1.7008797653958945
1.6764418377321604
1.6529814271749756
1.629521016617791
1.607038123167155
1.5835777126099706
1.560117302052786
1.5376344086021505
1.5190615835777126
1.501466275659824
1.4809384164222874
1.458455522971652
1.434017595307918
1.4086021505376345
1.3822091886608017
1.356793743890518
1.332355816226784
1.310850439882698
1.2913000977517106
1.2746823069403714
1.2658846529814272
1.2590420332355816
1.2473118279569892
1.2336265884652982
1.2160312805474096
1.1964809384164223
1.173998044965787
1.1515151515151516
1.1358748778103618
1.1368523949169111
1.1652003910068427
1.2346041055718475
1.3519061583577712
1.4897360703812317
1.6520039100684265
1.865102639296188
2.102639296187683
2.343108504398827
2.56891495601173
2.766373411534702
2.9286412512218964
3.053763440860215
3.1417399804496577
3.20039100684262
3.2355816226783967
3.2453567937438903
3.236559139784946
3.2170087976539588
3.187683284457478
3.146627565982405
3.093841642228739
3.0303030303030303
2.9550342130987293
2.868035190615836
2.76930596285435
2.664711632453568
2.5562072336265884
2.4457478005865103
2.3499511241446727
2.264907135874878
2.1788856304985336
2.096774193548387
2.0234604105571847
1.9608993157380252
1.9071358748778104
1.8631476050830889
1.827956989247312
1.7976539589442817
1.7702834799608993
1.7438905180840665
1.7223851417399805
1.7028347996089932
1.6823069403714566
1.6608015640273706
1.6363636363636365
1.608993157380254
1.5796676441837731
1.547409579667644
1.5112414467253177
1.469208211143695
1.4222873900293256
1.3724340175953078
1.3225806451612905
1.281524926686217
1.2473118279569892
1.2130987292277615
1.1837732160312806
1.160312805474096
1.142717497556207
1.1300097751710656
1.121212121212121
1.1133919843597262
1.1026392961876832
1.0899315738025417
1.075268817204301
1.0635386119257086
1.0606060606060606
1.0713587487781036
1.1094819159335287
1.187683284457478
1.3186705767350928
1.5024437927663734
1.729227761485826
1.9824046920821117
2.242424242424242
2.487781036168133
2.7008797653958942
2.873900293255132
2.992179863147605
3.070381231671554
3.1280547409579667
3.1622678396871944
3.1788856304985336
3.1818181818181817
3.174975562072336
3.156402737047898
3.126099706744868
3.083088954056696
3.027370478983382
2.9550342130987293
2.875855327468231
2.789833822091887
2.684261974584555
2.565982404692082
2.4408602150537635
2.313782991202346
2.190615835777126
2.078201368523949
1.9794721407624636
1.8973607038123168
1.8299120234604105
1.7761485826001957
1.7331378299120237
1.7008797653958945
1.6735092864125125
1.6451612903225807
1.6148582600195502
1.5806451612903225
1.542521994134897
1.501466275659824
1.4604105571847508
1.423264907135875
1.388074291300098
1.356793743890518
1.3304007820136852
1.3118279569892473
1.2981427174975562
1.2805474095796676
1.2619745845552297
1.241446725317693
1.2189638318670577
1.195503421309873
1.1691104594330402
1.1368523949169111
1.099706744868035
1.0596285434995112
1.0205278592375366
0.9794721407624634
0.946236559139785
0.919843597262952
0.8895405669599218
0.8572825024437928
0.8250244379276638
0.7956989247311828
0.7790811339198436
0.7839687194525904
0.8211143695014663
0.9022482893450636
1.0342130987292275
1.2189638318670577
1.4105571847507332
1.6109481915933528
1.835777126099707
2.047898338220919
2.239491691104594
2.401759530791789
2.532746823069404
2.632453567937439
2.7067448680351904
2.758553274682307
2.789833822091887
2.8044965786901277
2.8044965786901277
2.791788856304985
2.766373411534702
2.7262952101661777
2.675464320625611
2.6129032258064515
2.541544477028348
2.463343108504399
2.380254154447703
2.2952101661779083
2.209188660801564
2.1221896383186705
2.037145650048876
1.9657869012707725
1.902248289345064
1.835777126099707
1.772238514173998
1.7135874877810362
1.66177908113392
1.6187683284457477
1.58455522971652
1.5571847507331378
1.5356793743890518
1.5180840664711632
1.5034213098729228
1.4916911045943304
1.4838709677419355
1.478005865102639
1.4721407624633431
1.466275659824047
1.4594330400782014
1.4516129032258065
1.4437927663734116
1.434017595307918
1.4213098729227762
1.4066471163245358
1.3919843597262953
1.3743890518084063
1.359726295210166
1.3470185728250244
1.3294232649071358
1.3069403714565004
1.2805474095796676
1.252199413489736
1.224828934506354
1.1964809384164223
1.1691104594330402
1.142717497556207
1.121212121212121
1.1094819159335287
1.110459433040078
1.130987292277615
1.1788856304985338
1.2609970674486803
1.3812316715542523
1.5356793743890518
1.7096774193548387
1.8905180840664717
2.065493646138808
2.220918866080156
2.3489736070381237
2.447702834799609
2.520039100684262
2.5650048875855327
2.590420332355816
2.6050830889540566
2.6070381231671558
2.595307917888563
2.573802541544477
2.5425219941348973
2.5024437927663734
2.4545454545454546
2.39980449657869
2.3391984359726297
2.274682306940372
2.21505376344086
2.1593352883675463
2.1006842619745845
2.043010752688172
1.9872922776148585
1.9345063538611929
1.8866080156402736
1.8435972629521016
1.8025415444770283
1.7653958944281525
1.7311827956989247
1.6989247311827955
1.6705767350928642
1.6480938416422288
1.629521016617791
1.608993157380254
1.587487781036168
1.564027370478983
1.5386119257087
1.512218963831867
1.4848484848484849
1.456500488758553
1.426197458455523
1.3958944281524928
1.3655913978494625
1.3421309872922775
1.324535679374389
1.305962854349951
1.2873900293255132
1.267839687194526
1.2502443792766371
1.2346041055718475
1.2209188660801564
1.2101661779081134
1.2003910068426198
1.1915933528836755
1.1837732160312806
1.1749755620723363
1.1710654936461389
1.1681329423264908
1.1593352883675463
1.1495601173020529
1.1436950146627567
1.1495601173020529
1.1759530791788857
1.2326490713587488
1.324535679374389
1.4496578690127078
1.6021505376344083
1.76930596285435
1.916911045943304
2.04594330400782
2.172043010752688
2.278592375366569
2.360703812316716
2.4164222873900294
2.447702834799609
2.4594330400782014
2.4565004887585533
2.442815249266862
2.421309872922776
2.393939393939394
2.361681329423265
2.3284457478005867
2.29227761485826
2.249266862170088
2.2023460410557183
2.150537634408602
2.0957966764418376
2.0361681329423265
1.9726295210166176
1.9071358748778104
1.8406647116324533
1.7761485826001957
1.7145650048875856
1.6656891495601174
1.6256109481915937
1.5884652981427174
1.555229716520039
1.525904203323558
1.501466275659824
1.4819159335288368
1.4652981427174976
1.4486803519061584
1.4301075268817205
1.4086021505376345
1.3841642228739004
1.3577712609970674
1.3362658846529814
1.3157380254154447
1.2883675464320623
1.2609970674486803
1.2355816226783969
1.2121212121212122
1.1915933528836755
1.1749755620723363
1.1652003910068427
1.160312805474096
1.1583577712609971
1.1583577712609971
1.1612903225806452
1.1652003910068427
1.164222873900293
1.1593352883675463
1.1515151515151516
1.13880742913001
1.1221896383186705
1.1065493646138806
1.0909090909090908
1.0772238514173995
1.0703812316715542
1.0772238514173995
1.1065493646138806
1.1534701857282503
1.2238514173998043
1.3294232649071358
1.4652981427174976
1.6217008797653958
1.7859237536656891
1.9442815249266865
2.0840664711632453
2.20039100684262
2.2932551319648096
2.363636363636364
2.4134897360703813
2.444770283479961
2.462365591397849
2.4731182795698925
2.4760508308895406
2.4701857282502444
2.4545454545454546
2.4281524926686218
2.3900293255131966
2.3421309872922778
2.2854349951124147
2.2218963831867056
2.155425219941349
2.0879765395894427
2.0283479960899315
1.9745845552297163
1.9178885630498532
1.8602150537634408
1.8025415444770283
1.747800586510264
1.696969696969697
1.651026392961877
1.6109481915933528
1.5757575757575757
1.5464320625610948
1.521994134897361
1.5034213098729228
1.4897360703812317
1.4750733137829912
1.4594330400782014
1.444770283479961
1.4301075268817205
1.41544477028348
1.3998044965786902
1.3822091886608017
1.3626588465298142
1.343108504398827
1.3225806451612905
1.3010752688172045
1.284457478005865
1.2697947214076246
1.2531769305962854
1.2346041055718475
1.217008797653959
1.1994134897360704
1.1808406647116323
1.1515151515151516
1.1163245356793745
1.0899315738025417
1.0694037145650048
1.053763440860215
1.0469208211143697
1.0439882697947214
1.0391006842619743
1.0361681329423265
1.0371456500488758
1.0527859237536656
1.0918866080156402
1.1593352883675463
1.260019550342131
1.3919843597262953
1.547409579667644
1.715542521994135
1.884652981427175
2.026392961876833
2.1436950146627565
2.2531769305962857
2.343108504398827
2.4115347018572826
2.4604105571847508
2.49266862170088
2.5102639296187683
2.515151515151515
2.5083088954056696
2.489736070381232
2.4613880742913
2.4301075268817205
2.3919843597262958
2.3421309872922778
2.2844574780058653
2.220918866080156
2.1524926686217007
2.080156402737048
2.004887585532747
1.9305962854349952
1.8592375366568916
1.7927663734115349
1.732160312805474
1.6852394916911049
1.6490713587487782
1.616813294232649
1.5894428152492668
1.5679374389051808
1.5503421309872922
1.5356793743890518
1.5249266862170088
1.517106549364614
1.5112414467253177
1.5073313782991202
1.504398826979472
1.500488758553275
1.498533724340176
1.495601173020528
1.4848484848484849
1.4682306940371457
1.447702834799609
1.4242424242424243
1.3978494623655917
1.3685239491691104
1.33822091886608
1.3079178885630498
1.2766373411534702
1.2434017595307918
1.2150537634408602
1.1906158357771262
1.160312805474096
1.1251221896383188
1.0879765395894427
1.0527859237536656
1.018572825024438
0.9882697947214076
0.9638318670576737
0.9491691104594332
0.946236559139785
0.9608993157380256
1.0009775171065494
1.0576735092864125
1.1378299120234605
1.2561094819159335
1.4076246334310851
1.5826001955034212
1.7673509286412512
1.948191593352884
2.114369501466276
2.257086999022483
2.3704789833822093
2.453567937438905
2.5102639296187683
2.541544477028348
2.5562072336265884
2.5610948191593352
2.555229716520039
2.5405669599217986
2.5161290322580645
2.4819159335288368
