ppg
2.367546432062561
2.2991202346041058
2.2355816226783967
2.167155425219941
2.096774193548387
2.027370478983382
1.9608993157380252
1.8983382209188664
1.842619745845552
1.793743890518084
1.7546432062561097
1.7253176930596286
1.7067448680351909
1.6989247311827955
1.7008797653958945
1.7116324535679377
1.732160312805474
1.761485826001955
1.7986314760508308
1.8416422287390029
1.8885630498533723
1.93841642228739
1.9872922776148585
2.0332355816226784
2.075268817204301
2.112414467253177
2.1407624633431084
2.161290322580645
2.177908113391984
2.189638318670577
2.1955034213098727
2.1955034213098727
2.190615835777126
2.1808406647116323
2.1681329423264906
2.1524926686217007
2.1358748778103616
2.1221896383186705
2.114369501466276
2.115347018572825
2.129032258064516
2.160312805474096
2.2111436950146626
2.281524926686217
2.3685239491691106
2.4652981427174976
2.5650048875855327
2.659824046920821
2.7419354838709675
2.806451612903226
2.84652981427175
2.865102639296188
2.8699902248289346
2.857282502443793
2.827956989247312
2.7859237536656893
2.7331378299120237
2.6715542521994133
2.6050830889540566
2.535679374389052
2.464320625610948
2.3919843597262958
2.3196480938416424
2.257086999022483
2.20039100684262
2.139784946236559
2.0791788856304985
2.022482893450636
1.9716520039100685
1.9266862170087975
1.8905180840664717
1.8631476050830889
1.8455522971652003
1.839687194525904
1.8455522971652003
1.858260019550342
1.878787878787879
1.9090909090909087
1.948191593352884
1.992179863147605
2.0391006842619745
2.086021505376344
2.1309872922776147
2.1710654936461387
2.204301075268817
2.23069403714565
2.2482893450635384
2.2580645161290325
2.260997067448681
2.2580645161290325
2.2502443792766376
2.2375366568914954
2.219941348973607
2.198435972629521
2.1739980449657867
2.146627565982405
2.118279569892473
2.09188660801564
2.069403714565005
2.0547409579667644
2.050830889540567
2.060606060606061
2.089931573802541
2.1417399804496577
2.2140762463343107
2.303030303030303
2.4027370478983383
2.505376344086021
2.603128054740958
2.689149560117302
2.7565982404692084
2.8025415444770285
2.8269794721407626
2.8299120234604107
2.81622678396872
2.7869012707722387
2.744868035190616
2.69208211143695
2.632453567937439
2.5669599217986314
2.4975562072336266
2.426197458455523
2.3548387096774195
2.2844574780058653
2.21505376344086
2.155425219941349
2.101661779081134
2.0449657869012707
1.988269794721408
1.935483870967742
1.8875855327468232
1.8455522971652003
1.8113391984359728
1.7849462365591398
1.7673509286412512
1.7595307917888563
1.7605083088954057
1.7712609970674489
1.7869012707722385
1.8074291300097751
1.8347996089931573
1.866080156402737
1.900293255131965
1.935483870967742
1.9687194525904204
1.9990224828934504
2.024437927663734
2.0439882697947214
2.056695992179863
2.0625610948191597
2.0635386119257086
2.060606060606061
2.050830889540567
2.037145650048876
2.0205278592375366
2.0009775171065494
1.9794721407624636
1.9560117302052784
1.9335288367546437
1.9159335288367547
1.906158357771261
1.9100684261974583
1.932551319648094
1.9667644183773216
2.01564027370479
2.089931573802541
2.185728250244379
2.2952101661779083
2.409579667644184
2.520039100684262
2.6177908113391983
2.696969696969697
2.7536656891495603
2.7859237536656893
2.7947214076246336
2.78494623655914
2.760508308895406
2.7223851417399803
2.6725317693059627
2.6148582600195502
2.5513196480938416
2.484848484848485
2.41544477028348
2.345063538611926
2.274682306940372
2.1094819159335287
1.8875855327468232
1.7223851417399805
1.6021505376344083
1.5053763440860215
1.4115347018572826
1.3255131964809383
1.249266862170088
1.1867057673509287
1.1397849462365592
1.1094819159335287
1.0977517106549364
1.1055718475073313
1.130987292277615
1.1749755620723363
1.224828934506354
1.2825024437927663
1.3528836754643203
1.4320625610948192
1.5131964809384164
1.5923753665689149
1.664711632453568
1.7282502443792769
1.7790811339198436
1.8172043010752688
1.8406647116324533
1.8504398826979471
1.847507331378299
1.8377321603128052
1.8211143695014664
1.796676441837732
1.7653958944281525
1.7272727272727273
1.6852394916911049
1.6422287390029326
1.5992179863147604
1.563049853372434
1.5405669599217986
1.5405669599217986
1.5708699902248289
1.619745845552297
1.6920821114369502
1.804496578690127
1.946236559139785
2.1055718475073317
2.2688172043010755
2.4222873900293256
2.5532746823069403
2.6529814271749754
2.717497556207233
2.744868035190616
2.7370478983382207
2.6989247311827955
2.64613880742913
2.5806451612903225
2.495601173020528
2.398826979472141
2.294232649071359
2.1867057673509285
2.0772238514174
1.9667644183773216
1.857282502443793
1.750733137829912
1.6480938416422288
1.5503421309872922
1.4701857282502444
1.401759530791789
1.332355816226784
1.267839687194526
1.2121212121212122
1.1681329423264908
1.1368523949169111
1.121212121212121
1.1202346041055715
1.1348973607038124
1.163245356793744
1.2043010752688172
1.2561094819159335
1.3079178885630498
1.359726295210166
1.418377321603128
1.478005865102639
1.5347018572825024
1.585532746823069
1.6285434995112416
1.6598240469208212
1.6803519061583578
1.6901270772238517
1.6911045943304008
1.6842619745845553
1.6735092864125125
1.6598240469208212
1.640273704789834
1.6158357771260996
1.5894428152492668
1.5610948191593352
1.5327468230694037
1.5053763440860215
1.482893450635386
1.4721407624633431
1.479960899315738
1.5141739980449658
1.5650048875855327
1.6383186705767352
1.7517106549364614
1.8963831867057677
2.06158357771261
2.232649071358749
2.3958944281524928
2.5376344086021505
2.6471163245356792
2.718475073313783
2.750733137829912
2.745845552297165
2.708699902248289
2.654936461388074
2.5865102639296187
2.498533724340176
2.3978494623655915
2.290322580645161
2.179863147605083
2.0684261974584555
1.9579667644183771
1.8484848484848484
1.7419354838709675
1.6383186705767352
1.5395894428152492
1.458455522971652
1.3890518084066472
1.3196480938416422
1.2561094819159335
1.2023460410557183
1.1593352883675463
1.1290322580645162
1.1133919843597262
1.1124144672531768
1.1251221896383188
1.1505376344086022
1.1886608015640274
1.2365591397849462
1.2854349951124144
1.335288367546432
1.391006842619746
1.4467253176930597
1.499511241446725
1.5464320625610948
1.5835777126099706
1.6099706744868034
1.6265884652981428
1.6314760508308896
1.6265884652981428
1.6129032258064515
1.595307917888563
1.5747800586510263
1.5464320625610948
1.5131964809384164
1.47702834799609
1.4389051808406648
1.3988269794721409
1.359726295210166
1.3235581622678396
1.2961876832844574
1.2834799608993157
1.2942326490713587
1.335288367546432
1.3949169110459434
1.479960899315738
1.607038123167155
1.7673509286412512
1.949169110459433
2.1358748778103616
2.312805474095797
2.4652981427174976
2.582600195503421
2.6608015640273703
2.697947214076246
2.6959921798631474
2.6666666666666665
2.6158357771261
2.539589442815249
2.44672531769306
2.3411534701857284
2.2277614858260018
2.1094819159335287
1.989247311827957
1.869012707722385
1.7517106549364614
1.6383186705767352
1.5288367546432062
1.4252199413489737
1.3401759530791788
1.2688172043010753
1.195503421309873
1.1270772238514175
1.0684261974584557
1.0234604105571847
0.9941348973607038
0.981427174975562
0.9882697947214076
1.013685239491691
1.0557184750733135
1.1143695014662756
1.1759530791788857
1.241446725317693
1.3196480938416422
1.4027370478983383
1.482893450635386
1.5581622678396871
1.6226783968719452
1.6744868035190617
1.7126099706744868
1.7380254154447703
1.750733137829912
1.7517106549364614
1.7429130009775171
1.729227761485826
1.7126099706744868
1.6881720430107527
1.6588465298142718
1.6256109481915937
1.590420332355816
1.5532746823069403
1.5151515151515151
1.478005865102639
1.4437927663734116
1.4173998044965788
1.4056695992179864
1.4105571847507332
1.436950146627566
1.4946236559139785
1.5884652981427174
1.7165200391006843
1.8729227761485825
2.0449657869012707
2.218963831867057
2.3812316715542523
2.520039100684262
2.624633431085044
2.6911045943304006
2.717497556207233
2.7116324535679373
2.679374389051808
2.6207233626588464
2.5405669599217986
2.444770283479961
2.3391984359726297
2.2267839687194524
2.1114369501466275
1.9951124144672527
1.8797653958944285
1.7673509286412512
1.6598240469208212
1.5708699902248289
1.4936461388074291
1.4134897360703813
1.33822091886608
1.2864125122189638
1.252199413489736
1.2189638318670577
1.195503421309873
1.18475073313783
1.187683284457478
1.206256109481916
1.241446725317693
1.2903225806451613
1.343108504398827
1.4007820136852396
1.4682306940371457
1.5405669599217986
1.6138807429130009
1.6842619745845553
1.747800586510264
1.8035190615835777
1.8494623655913975
1.884652981427175
1.9071358748778104
1.9178885630498532
1.9188660801564028
1.9120234604105573
1.8973607038123168
1.8748778103616808
1.8455522971652003
1.812316715542522
1.775171065493646
1.7360703812316716
1.694037145650049
1.6500488758553276
1.6050830889540566
1.560117302052786
1.5161290322580645
1.482893450635386
1.4604105571847508
1.4496578690127078
1.4623655913978495
1.5063538611925709
1.585532746823069
1.6989247311827955
1.8416422287390029
2.0019550342130987
2.166177908113392
2.3196480938416424
2.449657869012708
2.539589442815249
2.592375366568915
2.6158357771261
2.6050830889540566
2.5610948191593352
2.487781036168133
2.391006842619746
2.2766373411534704
2.150537634408602
2.0175953079178885
1.8807429130009776
1.7438905180840665
1.608993157380254
1.495601173020528
1.3949169110459434
1.2873900293255132
1.1788856304985338
1.0742913000977516
0.975562072336266
0.8836754643206256
0.8005865102639296
0.7262952101661779
0.6627565982404692
0.6099706744868035
0.5689149560117303
0.5464320625610948
0.5395894428152492
0.5425219941348973
0.5581622678396871
0.5874877810361682
0.6324535679374389
0.6911045943304008
0.761485826001955
0.841642228739003
0.927663734115347
1.0156402737047898
1.1016617790811338
1.176930596285435
1.241446725317693
1.303030303030303
1.356793743890518
1.3988269794721409
1.4281524926686218
1.4457478005865103
1.452590420332356
1.4486803519061584
1.436950146627566
1.418377321603128
1.393939393939394
1.3626588465298142
1.3343108504398826
1.305962854349951
1.2697947214076246
1.2316715542521994
1.1964809384164223
1.1681329423264908
1.1534701857282503
1.1583577712609971
1.1886608015640274
1.24633431085044
1.332355816226784
1.444770283479961
1.5571847507331378
1.6695992179863148
1.7986314760508308
1.927663734115347
2.0439882697947214
2.1378299120234603
2.2023460410557183
2.2346041055718477
2.2346041055718477
2.204301075268817
2.147605083088954
2.069403714565005
1.9765395894428155
1.8885630498533723
1.801564027370479
1.6989247311827955
1.5884652981427174
1.4760508308895406
1.3655913978494625
1.2609970674486803
1.164222873900293
1.0772238514173995
1.0009775171065494
0.9364613880742912
0.8856304985337243
0.855327468230694
0.8406647116324536
0.8357771260997068
0.8435972629521017
0.8680351906158358
0.9090909090909092
0.9667644183773216
1.0391006842619743
1.1241446725317692
1.2189638318670577
1.3206256109481915
1.4252199413489737
1.5278592375366569
1.6148582600195502
1.689149560117302
1.761485826001955
1.826001955034213
1.8797653958944285
1.919843597262952
1.946236559139785
1.9589442815249267
1.9589442815249267
1.946236559139785
1.9237536656891496
1.8934506353861196
1.8621700879765395
1.828934506353861
1.7878787878787878
1.7419354838709675
1.6959921798631477
1.653958944281525
1.6226783968719452
1.6099706744868034
1.624633431085044
1.6715542521994136
1.7556207233626588
1.87683284457478
2.029325513196481
2.177908113391984
2.324535679374389
2.4916911045943304
2.6559139784946235
2.7996089931573804
2.9120234604105573
2.9853372434017595
3.016617790811339
3.006842619745845
2.961876832844575
2.887585532746823
2.790811339198436
2.6901270772238512
2.58455522971652
2.462365591397849
2.3313782991202348
2.196480938416422
2.06158357771261
1.9296187683284456
1.8025415444770283
1.6823069403714566
1.5698924731182795
1.4672531769305963
1.375366568914956
1.2942326490713587
1.2326490713587488
1.1867057673509287
1.1436950146627567
1.1085043988269794
1.0840664711632453
1.072336265884653
1.072336265884653
1.0850439882697946
1.1085043988269794
1.1407624633431086
1.1808406647116323
1.224828934506354
1.2668621700879763
1.3069403714565004
1.3479960899315735
1.3870967741935485
1.423264907135875
1.455522971652004
1.4838709677419355
1.5073313782991202
1.525904203323558
1.5386119257087
1.5464320625610948
1.5503421309872922
1.5513196480938416
1.5513196480938416
1.5503421309872922
1.5464320625610948
1.5395894428152492
1.530791788856305
1.521016617790811
1.5112414467253177
1.5073313782991202
1.5161290322580645
1.5454545454545454
1.6011730205278591
1.6881720430107527
1.7849462365591398
1.8983382209188664
2.047898338220919
2.217986314760508
2.3949169110459434
2.5620723362658846
2.708699902248289
2.823069403714565
2.8993157380254155
2.9345063538611926
2.927663734115347
2.8826979472140764
2.806451612903226
2.718475073313783
2.618768328445748
2.4975562072336266
2.3626588465298144
2.220918866080156
2.0762463343108504
1.932551319648094
1.7917888563049853
1.653958944281525
1.520039100684262
1.474095796676442
1.482893450635386
1.457478005865103
1.4164222873900294
1.3577712609970674
1.2942326490713587
1.2316715542521994
1.173998044965787
1.1241446725317692
1.083088954056696
1.0527859237536656
1.0332355816226784
1.0254154447702837
1.0303030303030305
1.0488758553274682
1.0762463343108504
1.1124144672531768
1.1593352883675463
1.2150537634408602
1.278592375366569
1.346041055718475
1.4134897360703813
1.479960899315738
1.541544477028348
1.5962854349951123
1.6422287390029326
1.6793743890518085
1.70772238514174
1.7272727272727273
1.7409579667644184
1.747800586510264
1.7487781036168133
1.7438905180840665
1.7341153470185728
1.7243401759530792
1.7204301075268815
1.7282502443792769
1.75366568914956
1.8025415444770283
1.8641251221896384
1.9423264907135875
2.0527859237536656
2.188660801564027
2.3411534701857284
2.498533724340176
2.6480938416422286
2.782013685239492
2.8905180840664717
2.967741935483871
3.010752688172043
3.0205278592375366
2.99902248289345
2.9579667644183774
2.9012707722385143
2.825024437927664
2.7341153470185726
2.633431085043988
2.5268817204301075
2.4164222873900294
2.304007820136853
2.1915933528836757
2.0821114369501466
1.975562072336266
1.873900293255132
1.7898338220918866
1.7174975562072337
1.6441837732160314
1.5747800586510263
1.5141739980449658
1.4652981427174976
1.4281524926686218
1.4056695992179864
1.3988269794721409
1.4066471163245358
1.4291300097751711
1.4643206256109482
1.5112414467253177
1.560117302052786
1.611925708699902
1.672531769305963
1.7360703812316716
1.8005865102639296
1.86119257086999
1.9149560117302051
1.9589442815249267
1.9931573802541545
2.016617790811339
2.029325513196481
2.0332355816226784
2.0303030303030303
2.022482893450636
2.007820136852395
1.9872922776148585
1.9608993157380252
1.9286412512218964
1.8934506353861196
1.8592375366568916
1.828934506353861
1.8084066471163245
1.8035190615835777
1.822091886608016
1.869012707722385
1.9305962854349952
2.010752688172043
2.1251221896383186
2.2639296187683287
2.41544477028348
2.565982404692082
2.704789833822092
2.820136852394917
2.905180840664712
2.956011730205278
2.9716520039100685
2.95405669599218
2.9159335288367547
2.859237536656892
2.780058651026393
2.6823069403714563
2.572825024437928
2.455522971652004
2.333333333333333
2.2082111436950145
2.0821114369501466
1.9560117302052784
1.83088954056696
1.70772238514174
1.5884652981427174
1.4887585532746823
1.401759530791789
1.3079178885630498
1.217008797653959
1.1348973607038124
1.0635386119257086
1.0058651026392962
0.9638318670576737
0.93841642228739
0.9296187683284456
0.9364613880742912
0.9589442815249268
0.9912023460410556
1.032258064516129
1.0821114369501466
1.1397849462365592
1.2023460410557183
1.2649071358748778
1.324535679374389
1.3782991202346042
1.4242424242424243
1.4604105571847508
1.4858260019550342
1.500488758553275
1.504398826979472
1.5034213098729228
1.4965786901270772
1.479960899315738
1.455522971652004
1.4242424242424243
1.3861192570869991
1.3440860215053765
1.3010752688172045
1.260019550342131
1.2287390029325511
1.2160312805474096
1.2287390029325511
1.262952101661779
1.3235581622678396
1.423264907135875
1.5591397849462365
1.7223851417399805
1.902248289345064
2.086021505376344
2.260019550342131
2.4115347018572826
2.532746823069404
2.6177908113391983
2.664711632453568
2.674486803519061
2.6578690127077222
2.619745845552297
2.555229716520039
2.4711632453567938
2.372434017595308
2.26197458455523
2.142717497556207
2.01564027370479
1.881720430107527
1.7419354838709675
1.5972629521016617
1.4506353861192571
1.324535679374389
1.2101661779081134
1.0821114369501466
0.9530791788856304
0.8289345063538612
0.7135874877810362
0.6129032258064516
0.5288367546432062
0.4643206256109481
0.4193548387096774
0.3929618768328445
0.3841642228739003
0.3900293255131964
0.4086021505376344
0.436950146627566
0.4701857282502444
0.5083088954056696
0.5503421309872922
0.5933528836754643
0.6363636363636364
0.6774193548387096
0.7126099706744868
0.739980449657869
0.7565982404692082
0.761485826001955
0.7624633431085044
0.7556207233626588
0.7302052785923754
0.6871945259042033
0.6304985337243402
0.5610948191593352
0.4828934506353861
0.4027370478983382
0.3304007820136852
0.2746823069403714
0.2463343108504398
0.2580645161290322
0.3157380254154447
0.4056695992179863
0.5298142717497556
0.7038123167155426
0.9159335288367546
1.1515151515151516
1.3949169110459434
1.6304985337243405
1.8435972629521016
2.024437927663734
2.166177908113392
2.2658846529814274
2.3255131964809386
2.350928641251222
2.3489736070381237
2.3225806451612905
2.275659824046921
2.212121212121212
2.1378299120234603
2.0576735092864125
1.9736070381231672
1.8885630498533723
1.8025415444770283
1.715542521994135
1.629521016617791
1.5454545454545454
1.4760508308895406
1.41544477028348
1.348973607038123
1.284457478005865
1.3548387096774193
1.5024437927663734
1.5698924731182795
1.603128054740958
1.6265884652981428
1.651026392961877
1.6813294232649072
1.7194525904203324
1.7595307917888563
1.8025415444770283
1.8523949169110456
1.9071358748778104
1.964809384164223
2.021505376344086
2.075268817204301
2.12316715542522
2.1652003910068425
2.20039100684262
2.228739002932551
2.2502443792766376
2.264907135874878
2.2737047898338223
2.278592375366569
2.2795698924731185
2.275659824046921
2.2688172043010755
2.26197458455523
2.257086999022483
2.260019550342131
2.275659824046921
2.3088954056695994
2.364613880742913
2.444770283479961
2.529814271749756
2.6236559139784945
2.744868035190616
2.881720430107527
3.0234604105571847
3.161290322580645
3.2883675464320627
3.3958944281524928
3.479960899315738
3.5386119257087
3.56891495601173
3.573802541544477
3.557184750733138
3.52297165200391
3.4731182795698925
3.409579667644184
3.335288367546432
3.2531769305962857
3.164222873900293
3.071358748778104
2.975562072336266
2.878787878787879
2.782991202346041
2.687194525904203
2.5943304007820136
2.515151515151515
2.4457478005865103
2.3734115347018574
2.304985337243402
2.244379276637341
2.1925708699902247
2.150537634408602
2.120234604105572
2.102639296187683
2.096774193548387
2.103616813294233
2.121212121212121
2.142717497556207
2.1681329423264906
2.201368523949169
2.2375366568914954
2.2737047898338223
2.3088954056695994
2.3391984359726297
2.363636363636364
2.3822091886608017
2.3929618768328447
2.3958944281524928
2.3919843597262958
2.3812316715542523
2.366568914956012
2.3489736070381237
2.3255131964809386
2.2981427174975564
2.2658846529814274
2.231671554252199
2.1974584555229715
2.167155425219941
2.146627565982405
2.1407624633431084
2.15347018572825
2.188660801564027
2.2355816226783967
2.2981427174975564
2.388074291300098
2.496578690127077
2.616813294232649
2.7390029325513194
2.854349951124145
2.95405669599218
3.03128054740958
3.0821114369501466
3.1055718475073317
3.102639296187683
3.0762463343108504
3.0361681329423265
2.9853372434017595
2.918866080156403
2.841642228739003
2.757575757575758
2.6695992179863146
2.579667644183773
2.4887585532746823
2.398826979472141
2.3098729227761488
2.2238514173998043
2.1407624633431084
2.071358748778104
2.0117302052785924
1.9501466275659824
1.8914956011730208
1.8406647116324533
1.7986314760508308
1.7673509286412512
1.7487781036168133
1.7429130009775171
1.7497556207233629
1.7673509286412512
1.7956989247311828
1.8328445747800584
1.871945259042033
1.9120234604105573
1.9579667644183771
2.004887585532747
2.050830889540567
2.09188660801564
2.126099706744868
2.1524926686217007
2.1700879765395893
2.1788856304985336
2.1788856304985336
2.1710654936461387
2.1593352883675463
2.144672531769306
2.12316715542522
2.0957966764418376
2.064516129032258
2.03128054740958
1.997067448680352
1.964809384164223
1.9403714565004888
1.9266862170087975
1.9315738025415443
1.9589442815249267
2.0127077223851417
2.078201368523949
2.158357771260997
2.2658846529814274
2.3929618768328447
2.5268817204301075
2.6578690127077222
2.776148582600196
2.873900293255132
2.945259042033236
2.9872922776148583
3.0009775171065494
2.988269794721408
2.9579667644183774
2.913978494623656
2.8514173998044967
2.7751710654936463
2.6881720430107525
2.592375366568915
2.490713587487781
2.3851417399804498
2.27761485826002
2.16911045943304
2.0625610948191597
1.9589442815249267
1.8602150537634408
1.7810361681329423
1.7135874877810362
1.6451612903225807
1.581622678396872
1.525904203323558
1.4819159335288368
1.4506353861192571
1.434017595307918
1.4320625610948192
1.444770283479961
1.4731182795698925
1.5141739980449658
1.560117302052786
1.611925708699902
1.6735092864125125
1.7409579667644184
1.8113391984359728
1.8797653958944285
1.9442815249266865
2.0009775171065494
2.047898338220919
2.083088954056696
2.1055718475073317
2.1163245356793743
2.115347018572825
2.10850439882698
2.0957966764418376
2.074291300097752
2.0449657869012707
2.0117302052785924
1.975562072336266
1.9364613880742916
1.8973607038123168
1.858260019550342
1.8191593352883677
1.7820136852394917
1.747800586510264
1.721407624633431
1.699902248289345
1.6764418377321604
1.6529814271749756
1.6304985337243405
1.608993157380254
1.5894428152492668
1.5698924731182795
1.5513196480938416
1.5327468230694037
1.5151515151515151
1.4975562072336266
1.4819159335288368
1.4721407624633431
1.4652981427174976
1.457478005865103
1.4506353861192571
1.4467253176930597
1.4467253176930597
1.4506353861192571
1.4594330400782014
1.4721407624633431
1.4887585532746823
1.5083088954056696
1.5317693059628543
1.5562072336265884
1.5826001955034212
1.6099706744868034
1.6383186705767352
1.667644183773216
1.6959921798631477
1.7223851417399805
1.7458455522971652
1.7653958944281525
1.7820136852394917
1.7947214076246334
1.6920821114369502
1.530791788856305
1.4516129032258065
1.4105571847507332
1.3870967741935485
1.370478983382209
1.356793743890518
1.343108504398827
1.3304007820136852
1.3176930596285434
1.305962854349951
1.2942326490713587
1.2834799608993157
1.2727272727272727
1.2668621700879763
1.262952101661779
1.2580645161290325
1.2531769305962854
1.2482893450635386
1.2443792766373412
1.2434017595307918
1.2473118279569892
1.262952101661779
1.2942326490713587
1.3479960899315735
1.4271749755620724
1.5161290322580645
1.6187683284457477
1.75366568914956
1.9100684261974583
2.0772238514174
2.242424242424242
2.396871945259042
2.5317693059628543
2.6402737047898337
2.718475073313783
2.764418377321604
2.7810361681329425
2.7702834799608995
2.740957966764418
2.6959921798631474
