ppg
1.66177908113392
1.6217008797653958
1.5894428152492668
1.5591397849462365
1.5347018572825024
1.5161290322580645
1.5024437927663734
1.4936461388074291
1.4887585532746823
1.4858260019550342
1.4838709677419355
1.482893450635386
1.4809384164222874
1.478983382209189
1.4760508308895406
1.4711632453567938
1.4623655913978495
1.4506353861192571
1.4349951124144673
1.41544477028348
1.392961876832845
1.3685239491691104
1.3421309872922775
1.313782991202346
1.2834799608993157
1.252199413489736
1.2267839687194526
1.2052785923753666
1.1808406647116323
1.1573802541544478
1.1368523949169111
1.1192570869990224
1.1026392961876832
1.0879765395894427
1.0762463343108504
1.072336265884653
1.0840664711632453
1.1202346041055715
1.1749755620723363
1.2570869990224829
1.3851417399804498
1.5532746823069403
1.7517106549364614
1.964809384164223
2.175953079178885
2.3685239491691106
2.5317693059628543
2.6578690127077222
2.7438905180840663
2.790811339198436
2.803519061583578
2.789833822091887
2.755620723362659
2.701857282502444
2.633431085043988
2.5542521994134897
2.4672531769305963
2.376344086021505
2.2825024437927666
2.187683284457478
2.09188660801564
1.997067448680352
1.902248289345064
1.8191593352883677
1.7429130009775171
1.6588465298142718
1.5728250244379276
1.4868035190615836
1.4037145650048877
1.324535679374389
1.2502443792766371
1.1827956989247312
1.1241446725317692
1.075268817204301
1.0371456500488758
1.0097751710654936
0.9951124144672532
0.9902248289345064
0.9882697947214076
0.9912023460410556
0.9990224828934506
1.0117302052785924
1.0263929618768328
1.0420332355816226
1.0596285434995112
1.0772238514173995
1.0928641251221896
1.10752688172043
1.1202346041055715
1.130987292277615
1.13880742913001
1.142717497556207
1.142717497556207
1.1397849462365592
1.1348973607038124
1.1290322580645162
1.1231671554252198
1.1163245356793745
1.1094819159335287
1.1006842619745845
1.0918866080156402
1.086021505376344
1.0811339198435972
1.0742913000977516
1.0733137829912025
1.0879765395894427
1.1270772238514175
1.2003910068426198
1.313782991202346
1.4682306940371457
1.6559139784946235
1.865102639296188
2.080156402737048
2.260019550342131
2.409579667644184
2.552297165200391
2.668621700879765
2.752688172043011
2.8025415444770285
2.819159335288368
2.807429130009776
2.7722385141739982
2.718475073313783
2.6510263929618767
2.573802541544477
2.489736070381232
2.409579667644184
2.3313782991202348
2.2453567937438903
2.1544477028347995
2.060606060606061
1.9657869012707725
1.870967741935484
1.7771260997067448
1.6842619745845553
1.5933528836754642
1.5073313782991202
1.426197458455523
1.3607038123167154
1.3079178885630498
1.2561094819159335
1.2111436950146628
1.1749755620723363
1.1485826001955035
1.1319648093841643
1.1241446725317692
1.1241446725317692
1.1290322580645162
1.1378299120234605
1.1495601173020529
1.1622678396871946
1.1749755620723363
1.187683284457478
1.1974584555229717
1.2052785923753666
1.209188660801564
1.2101661779081134
1.2082111436950147
1.203323558162268
1.1964809384164223
1.187683284457478
1.1779081133919844
1.1671554252199414
1.160312805474096
1.1544477028347997
1.1466275659824048
1.13880742913001
1.1300097751710656
1.1202346041055715
1.1094819159335287
1.096774193548387
1.088954056695992
1.086021505376344
1.0850439882697946
1.099706744868035
1.141739980449658
1.2052785923753666
1.2981427174975562
1.4418377321603129
1.6265884652981428
1.8377321603128052
2.059628543499511
2.272727272727273
2.463343108504399
2.618768328445748
2.735092864125122
2.811339198435973
2.8484848484848486
2.854349951124145
2.835777126099707
2.7966764418377323
2.739980449657869
2.6695992179863146
2.589442815249267
2.5034213098729228
2.4134897360703813
2.3196480938416424
2.2238514173998043
2.1280547409579667
2.032258064516129
1.9374389051808407
1.8543499511241448
1.7781036168132942
1.6950146627565983
1.6099706744868034
1.525904203323558
1.444770283479961
1.3695014662756595
1.3010752688172045
1.2394916911045943
1.187683284457478
1.1456500488758554
1.1143695014662756
1.0948191593352885
1.086021505376344
1.0821114369501466
1.086021505376344
1.0948191593352885
1.1094819159335287
1.1290322580645162
1.1515151515151516
1.1749755620723363
1.1974584555229717
1.2179863147605083
1.2365591397849462
1.252199413489736
1.2639296187683284
1.270772238514174
1.273704789833822
1.273704789833822
1.270772238514174
1.2649071358748778
1.2570869990224829
1.2482893450635386
1.238514173998045
1.2297165200391007
1.2209188660801564
1.2121212121212122
1.206256109481916
1.2003910068426198
1.1925708699902249
1.1886608015640274
1.1974584555229717
1.227761485826002
1.2913000977517106
1.396871945259042
1.5464320625610948
1.7360703812316716
1.95405669599218
2.1837732160312804
2.380254154447703
2.5464320625610948
2.708699902248289
2.844574780058651
2.943304007820137
3.002932551319648
3.024437927663734
3.0127077223851417
2.972629521016618
2.9100684261974585
2.83088954056696
2.7390029325513194
2.6392961876832843
2.544477028347996
2.453567937438905
2.3528836754643208
2.249266862170088
2.144672531769306
2.0410557184750733
1.9374389051808407
1.835777126099707
1.7380254154447703
1.643206256109482
1.552297165200391
1.4672531769305963
1.3988269794721409
1.3421309872922775
1.2864125122189638
1.2375366568914956
1.1964809384164223
1.163245356793744
1.1397849462365592
1.1241446725317692
1.1163245356793745
1.115347018572825
1.118279569892473
1.1251221896383188
1.133919843597263
1.144672531769306
1.1564027370478984
1.166177908113392
1.1759530791788857
1.1837732160312806
1.1896383186705768
1.1945259042033236
1.1974584555229717
1.198435972629521
1.1964809384164223
1.1935483870967742
1.1886608015640274
1.18475073313783
1.181818181818182
1.1759530791788857
1.1700879765395895
1.163245356793744
1.1564027370478984
1.1485826001955035
1.13880742913001
1.126099706744868
1.1133919843597262
1.1036168132942326
1.1065493646138806
1.1319648093841643
1.176930596285435
1.2512218963831867
1.3734115347018572
1.542521994134897
1.7497556207233629
1.9794721407624636
2.2140762463343107
2.4349951124144678
2.627565982404692
2.782013685239492
2.8944281524926687
2.963831867057673
2.9931573802541545
2.991202346041056
2.9657869012707723
2.919843597262952
2.8563049853372435
2.780058651026393
2.695014662756598
2.6041055718475072
2.509286412512219
2.4115347018572826
2.3118279569892475
2.212121212121212
2.112414467253177
2.024437927663734
1.9423264907135875
1.8523949169110456
1.7595307917888563
1.6656891495601174
1.573802541544477
1.4848484848484849
1.401759530791789
1.3264907135874875
1.2609970674486803
1.2043010752688172
1.1583577712609971
1.1270772238514175
1.1085043988269794
1.093841642228739
1.086021505376344
1.086021505376344
1.0918866080156402
1.1026392961876832
1.1163245356793745
1.1319648093841643
1.1495601173020529
1.1652003910068427
1.1808406647116323
1.195503421309873
1.2082111436950147
1.2189638318670577
1.2258064516129032
1.2297165200391007
1.2297165200391007
1.2267839687194526
1.2218963831867058
1.2150537634408602
1.2072336265884651
1.1994134897360704
1.1906158357771262
1.1798631476050832
1.1720430107526882
1.164222873900293
1.1505376344086022
1.1348973607038124
1.1241446725317692
1.126099706744868
1.152492668621701
1.2150537634408602
1.3206256109481915
1.4721407624633431
1.664711632453568
1.8866080156402736
2.120234604105572
2.3196480938416424
2.4887585532746823
2.6529814271749754
2.791788856304985
2.8944281524926687
2.9589442815249267
2.9872922776148583
2.983382209188661
2.952101661779081
2.8993157380254155
2.827956989247312
2.7438905180840663
2.659824046920821
2.5747800586510263
2.4789833822091887
2.377321603128055
2.272727272727273
2.1681329423264906
2.0625610948191597
1.956989247311828
1.8523949169110456
1.7487781036168133
1.6471163245356797
1.5493646138807429
1.455522971652004
1.3792766373411536
1.3157380254154447
1.2512218963831867
1.1915933528836755
1.1397849462365592
1.0957966764418376
1.06158357771261
1.0371456500488758
1.021505376344086
1.013685239491691
1.0127077223851415
1.0175953079178883
1.0273704789833822
1.0410557184750733
1.056695992179863
1.072336265884653
1.0879765395894427
1.1036168132942326
1.118279569892473
1.130987292277615
1.1397849462365592
1.1456500488758554
1.1466275659824048
1.144672531769306
1.142717497556207
1.1407624633431086
1.1348973607038124
1.1270772238514175
1.118279569892473
1.110459433040078
1.1026392961876832
1.093841642228739
1.0821114369501466
1.067448680351906
1.050830889540567
1.0371456500488758
1.035190615835777
1.0488758553274682
1.086021505376344
1.1622678396871946
1.284457478005865
1.4516129032258065
1.6549364613880744
1.8807429130009776
2.1094819159335287
2.324535679374389
2.5102639296187683
2.659824046920821
2.76930596285435
2.833822091886608
2.863147605083089
2.870967741935484
2.855327468230694
2.820136852394917
2.768328445747801
2.704789833822092
2.632453567937439
2.5542521994134897
2.474095796676442
2.3929618768328447
2.312805474095797
2.2355816226783967
2.1681329423264906
2.1065493646138806
2.043010752688172
1.9804496578690127
1.920821114369501
1.865102639296188
1.8142717497556209
1.76930596285435
1.7302052785923754
1.696969696969697
1.6686217008797657
1.6451612903225807
1.6285434995112416
1.616813294232649
1.6050830889540566
1.5933528836754642
1.5806451612903225
1.5679374389051808
1.5542521994134897
1.5395894428152492
1.5239491691104594
1.5073313782991202
1.4897360703812317
1.4731182795698925
1.455522971652004
1.439882697947214
1.4252199413489737
1.4056695992179864
1.383186705767351
1.3587487781036167
1.332355816226784
1.3040078201368523
1.2756598240469208
1.24633431085044
1.2160312805474096
1.187683284457478
1.1612903225806452
1.1407624633431086
1.1231671554252198
1.1026392961876832
1.0821114369501466
1.0654936461388074
1.0606060606060606
1.075268817204301
1.1221896383186705
1.2101661779081134
1.3440860215053765
1.520039100684262
1.729227761485826
1.956989247311828
2.155425219941349
2.3274682306940373
2.4995112414467253
2.6471163245356792
2.7595307917888565
2.833822091886608
2.8699902248289346
2.873900293255132
2.849462365591398
2.803519061583578
2.740957966764418
2.667644183773216
2.5943304007820136
2.520039100684262
2.4379276637341154
2.350928641251222
2.26197458455523
2.1710654936461387
2.0791788856304985
1.986314760508309
1.89247311827957
1.7986314760508308
1.704789833822092
1.611925708699902
1.521016617790811
1.444770283479961
1.3792766373411536
1.3128054740957966
1.2512218963831867
1.1964809384164223
1.1515151515151516
1.1173020527859236
1.093841642228739
1.0801564027370478
1.075268817204301
1.0772238514173995
1.086021505376344
1.0987292277614855
1.1133919843597262
1.1290322580645162
1.1436950146627567
1.1573802541544478
1.1691104594330402
1.1779081133919844
1.1837732160312806
1.1857282502443791
1.1837732160312806
1.1788856304985338
1.1710654936461389
1.1612903225806452
1.1544477028347997
1.1485826001955035
1.1397849462365592
1.130987292277615
1.1241446725317692
1.1192570869990224
1.115347018572825
1.1114369501466277
1.1065493646138806
1.1016617790811338
1.1006842619745845
1.1114369501466277
1.1358748778103618
1.1827956989247312
1.2658846529814272
1.3919843597262953
1.5591397849462365
1.7595307917888563
1.978494623655914
2.198435972629521
2.4027370478983383
2.578690127077224
2.718475073313783
2.8181818181818183
2.878787878787879
2.902248289345064
2.897360703812317
2.870967741935484
2.8260019550342133
2.7653958944281527
2.6911045943304006
2.6080156402737047
2.5180840664711632
2.423264907135875
2.3255131964809386
2.2248289345063537
2.1221896383186705
2.0303030303030303
1.9442815249266865
1.8484848484848484
1.7487781036168133
1.6490713587487782
1.5513196480938416
1.456500488758553
1.367546432062561
1.2864125122189638
1.2150537634408602
1.1534701857282503
1.1036168132942326
1.0635386119257086
1.0381231671554252
1.0234604105571847
1.0127077223851415
1.007820136852395
1.007820136852395
1.0127077223851415
1.021505376344086
1.0342130987292275
1.0478983382209188
1.0625610948191593
1.0762463343108504
1.0879765395894427
1.099706744868035
1.1094819159335287
1.1173020527859236
1.1221896383186705
1.1241446725317692
1.1241446725317692
1.1221896383186705
1.1202346041055715
1.1173020527859236
1.1133919843597262
1.1085043988269794
1.1016617790811338
1.0948191593352885
1.0899315738025417
1.0850439882697946
1.0742913000977516
1.0596285434995112
1.0449657869012707
1.0371456500488758
1.04594330400782
1.083088954056696
1.160312805474096
1.2834799608993157
1.4496578690127078
1.651026392961877
1.8416422287390029
2.022482893450636
2.217986314760508
2.4027370478983383
2.5591397849462365
2.6803519061583576
2.7624633431085046
2.8084066471163247
2.822091886608016
2.8084066471163247
2.7722385141739982
2.718475073313783
2.659824046920821
2.5962854349951123
2.5219941348973607
2.441837732160313
2.3597262952101663
2.2766373411534704
2.1945259042033234
2.114369501466276
2.038123167155425
1.9736070381231672
1.9159335288367547
1.858260019550342
1.8025415444770283
1.7565982404692082
1.7165200391006843
1.6774193548387095
1.6392961876832846
1.6041055718475072
1.5728250244379276
1.543499511241447
1.517106549364614
1.4926686217008798
1.4701857282502444
1.4506353861192571
1.434017595307918
1.4222873900293256
1.4134897360703813
1.4027370478983383
1.392961876832845
1.3851417399804498
1.3773216031280548
1.3695014662756595
1.3607038123167154
1.3509286412512218
1.3411534701857282
1.3294232649071358
1.3157380254154447
1.300097751710655
1.2873900293255132
1.2756598240469208
1.2609970674486803
1.2453567937438903
1.2297165200391007
1.2140762463343109
1.198435972629521
1.181818181818182
1.164222873900293
1.1466275659824048
1.1329423264907137
1.1290322580645162
1.1397849462365592
1.173998044965787
1.2443792766373412
1.3577712609970674
1.5151515151515151
1.7086999022482894
1.9257086999022484
2.1495601173020527
2.361681329423265
2.548387096774193
2.6989247311827955
2.8084066471163247
2.877810361681329
2.909090909090909
2.909090909090909
2.8885630498533725
2.8475073313782997
2.789833822091887
2.718475073313783
2.638318670576735
2.552297165200391
2.462365591397849
2.36950146627566
2.2737047898338223
2.176930596285435
2.089931573802541
2.0087976539589443
1.9178885630498532
1.8240469208211143
1.729227761485826
1.6344086021505375
1.541544477028348
1.4545454545454546
1.3734115347018572
1.2991202346041055
1.2346041055718475
1.1808406647116323
1.1378299120234605
1.1094819159335287
1.0918866080156402
1.078201368523949
1.0713587487781036
1.0713587487781036
1.078201368523949
1.088954056695992
1.1036168132942326
1.121212121212121
1.1397849462365592
1.1583577712609971
1.1749755620723363
1.1915933528836755
1.206256109481916
1.217008797653959
1.2238514173998043
1.227761485826002
1.227761485826002
1.224828934506354
1.219941348973607
1.2130987292277615
1.2052785923753666
1.1974584555229717
1.1896383186705768
1.181818181818182
1.1759530791788857
1.1700879765395895
1.1583577712609971
1.1436950146627567
1.130987292277615
1.1290322580645162
1.1495601173020529
1.2052785923753666
1.3040078201368523
1.447702834799609
1.632453567937439
1.8465298142717497
2.043010752688172
2.2238514173998043
2.41544477028348
2.591397849462365
2.736070381231672
2.8426197458455524
2.911045943304008
2.9423264907135875
2.941348973607038
2.913978494623656
2.865102639296188
2.7996089931573804
2.7223851417399803
2.644183773216031
2.5650048875855327
2.4760508308895406
2.3812316715542523
2.2825024437927666
2.179863147605083
2.0762463343108504
1.9726295210166176
1.869012707722385
1.7663734115347018
1.6666666666666667
1.5708699902248289
1.4916911045943304
1.4222873900293256
1.3519061583577712
1.2854349951124144
1.2267839687194526
1.1788856304985338
1.142717497556207
1.118279569892473
1.104594330400782
1.1006842619745845
1.1055718475073313
1.115347018572825
1.1290322580645162
1.144672531769306
1.1612903225806452
1.1788856304985338
1.195503421309873
1.2101661779081134
1.2218963831867058
1.2297165200391007
1.2336265884652982
1.2336265884652982
1.2287390029325511
1.219941348973607
1.2072336265884651
1.1964809384164223
1.1857282502443791
1.1700879765395895
1.152492668621701
1.1348973607038124
1.118279569892473
1.1016617790811338
1.0840664711632453
1.064516129032258
1.0439882697947214
1.0224828934506354
1.0058651026392962
1.0019550342130987
1.0166177908113392
1.0576735092864125
1.1397849462365592
1.2688172043010753
1.4428152492668622
1.6520039100684265
1.8797653958944285
2.10752688172043
2.318670576735093
2.4995112414467253
2.643206256109482
2.745845552297165
2.8044965786901277
2.8299120234604107
2.831867057673509
2.811339198435973
2.7702834799608995
2.713587487781036
2.6451612903225805
2.5669599217986314
2.4838709677419355
2.3978494623655915
2.310850439882698
2.222873900293255
2.1358748778103616
2.058651026392962
1.988269794721408
1.9120234604105573
1.833822091886608
1.7556207233626588
1.6774193548387095
1.6011730205278591
1.5278592375366569
1.458455522971652
1.396871945259042
1.343108504398827
1.2981427174975562
1.2668621700879763
1.2473118279569892
1.2346041055718475
1.23069403714565
1.2346041055718475
1.2473118279569892
1.2668621700879763
1.2903225806451613
1.3157380254154447
1.3421309872922775
1.3665689149560116
1.3890518084066472
1.4066471163245358
1.4193548387096775
1.4271749755620724
1.4281524926686218
1.423264907135875
1.412512218963832
1.396871945259042
1.3792766373411536
1.3607038123167154
1.3411534701857282
1.3225806451612905
1.3069403714565004
1.29227761485826
1.2834799608993157
1.2766373411534702
1.2668621700879763
1.2561094819159335
1.249266862170088
1.2551319648093842
1.284457478005865
1.348973607038123
1.4594330400782014
1.6187683284457477
1.8240469208211143
2.06158357771261
2.27761485826002
2.4750733137829912
2.6823069403714563
2.8719452590420333
3.0254154447702835
3.1300097751710654
3.1847507331378297
3.1945259042033234
3.166177908113392
3.10850439882698
3.029325513196481
2.9335288367546437
2.827956989247312
2.7282502443792764
2.63049853372434
2.5239491691104594
2.4134897360703813
2.302052785923754
2.1915933528836757
2.081133919843597
1.9716520039100685
1.8631476050830889
1.7556207233626588
1.651026392961877
1.5493646138807429
1.4633431085043989
1.3890518084066472
1.3118279569892473
1.2375366568914956
1.1710654936461389
1.1143695014662756
1.0684261974584557
1.032258064516129
1.0068426197458455
0.9921798631476052
0.9863147605083088
0.989247311827957
0.9990224828934506
1.013685239491691
1.032258064516129
1.053763440860215
1.0762463343108504
1.0977517106549364
1.118279569892473
1.1378299120234605
1.1544477028347997
1.1671554252199414
1.1749755620723363
1.1779081133919844
1.176930596285435
1.1749755620723363
1.1710654936461389
1.1622678396871946
1.1515151515151516
1.1407624633431086
1.130987292277615
1.1221896383186705
1.1133919843597262
1.104594330400782
1.096774193548387
1.0899315738025417
1.088954056695992
1.1036168132942326
1.133919843597263
1.1896383186705768
1.2883675464320623
1.4330400782013686
1.619745845552297
1.8387096774193548
2.074291300097752
2.3069403714565007
2.5190615835777126
2.697947214076246
2.8367546432062563
2.932551319648094
2.983382209188661
2.99902248289345
2.9902248289345064
2.9589442815249267
2.9071358748778104
2.8396871945259043
2.760508308895406
2.6725317693059627
2.579667644183773
2.482893450635386
2.3851417399804498
2.286412512218964
2.1867057673509285
2.0977517106549364
2.013685239491691
1.921798631476051
1.826001955034213
1.729227761485826
1.6344086021505375
1.542521994134897
1.455522971652004
1.3743890518084063
1.3020527859237536
1.2394916911045943
1.1867057673509287
1.1505376344086022
1.126099706744868
1.1065493646138806
1.0948191593352885
1.0899315738025417
1.0928641251221896
1.1016617790811338
1.115347018572825
1.1329423264907137
1.1515151515151516
1.1700879765395895
1.1867057673509287
1.2013685239491692
1.2130987292277615
1.2228739002932552
1.2267839687194526
1.2258064516129032
1.2189638318670577
1.2082111436950147
1.1935483870967742
1.1759530791788857
1.1573802541544478
1.13880742913001
1.121212121212121
1.104594330400782
1.0928641251221896
1.0821114369501466
1.067448680351906
1.0488758553274682
1.0283479960899315
1.0117302052785924
1.0068426197458455
1.0263929618768328
1.0821114369501466
1.1827956989247312
1.332355816226784
1.5239491691104594
1.7438905180840665
1.945259042033236
2.129032258064516
2.320625610948192
2.495601173020528
2.638318670576735
2.7438905180840663
2.812316715542522
2.8455522971652005
2.8475073313782997
2.823069403714565
2.779081133919844
2.719452590420332
2.6559139784946235
2.5884652981427174
2.512218963831867
2.4301075268817205
2.346041055718475
2.26197458455523
2.177908113391984
2.0948191593352883
2.013685239491691
1.9335288367546437
1.8543499511241448
1.7761485826001957
1.699902248289345
1.6344086021505375
1.576735092864125
1.5151515151515151
1.456500488758553
1.4027370478983383
1.356793743890518
1.3196480938416422
1.2932551319648091
1.2766373411534702
1.2697947214076246
1.2717497556207231
1.281524926686217
1.2942326490713587
1.310850439882698
1.3313782991202343
1.3519061583577712
1.3714565004887584
1.3870967741935485
1.3998044965786902
1.4076246334310851
1.4086021505376345
1.4037145650048877
1.393939393939394
1.3782991202346042
1.3636363636363635
1.3479960899315735
1.327468230694037
1.305962854349951
1.2854349951124144
1.2649071358748778
1.2453567937438903
1.2267839687194526
1.2082111436950147
1.1906158357771262
1.1759530791788857
1.1710654936461389
1.18475073313783
1.217008797653959
1.2776148582600195
1.3851417399804498
1.5405669599217986
1.7380254154447703
1.9657869012707725
2.207233626588465
2.4408602150537635
2.6510263929618767
2.8260019550342133
2.9579667644183774
3.0439882697947214
3.085043988269794
3.089931573802541
3.070381231671554
3.026392961876833
2.962854349951124
2.8826979472140764
2.791788856304985
2.6940371456500487
2.590420332355816
2.4838709677419355
2.375366568914956
2.2658846529814274
2.155425219941349
2.0576735092864125
1.9657869012707725
1.8641251221896384
1.758553274682307
1.6529814271749756
1.5493646138807429
1.4486803519061584
1.3558162267839686
1.2717497556207231
1.198435972629521
1.1378299120234605
1.0899315738025417
1.0576735092864125
1.0391006842619743
1.0254154447702837
1.0195503421309873
1.0205278592375366
1.0273704789833822
1.0381231671554252
1.0527859237536656
1.0694037145650048
1.0869990224828934
1.1055718475073313
1.1221896383186705
1.1378299120234605
1.152492668621701
1.164222873900293
1.1730205278592376
1.1779081133919844
1.1798631476050832
1.1779081133919844
1.1730205278592376
1.1652003910068427
1.1564027370478984
1.147605083088954
1.1397849462365592
1.1329423264907137
1.1280547409579669
1.1231671554252198
1.115347018572825
1.104594330400782
1.0957966764418376
1.0957966764418376
1.1124144672531768
1.1564027370478984
1.2375366568914956
1.359726295210166
1.521016617790811
1.7126099706744868
1.919843597262952
2.101661779081134
2.260019550342131
2.4173998044965788
2.5532746823069403
2.6578690127077222
2.727272727272727
2.763440860215054
2.768328445747801
2.747800586510264
2.7067448680351904
2.649071358748778
2.579667644183773
2.509286412512219
2.4379276637341154
2.358748778103617
2.274682306940372
2.188660801564027
2.102639296187683
2.01564027370479
1.9296187683284456
1.8435972629521016
1.7595307917888563
1.6764418377321604
1.5962854349951123
1.5190615835777126
1.4535679374389052
1.3978494623655917
1.3411534701857282
1.2873900293255132
1.2404692082111437
1.2023460410557183
1.1720430107526882
1.1485826001955035
1.1329423264907137
1.1241446725317692
1.121212121212121
1.1241446725317692
1.1319648093841643
1.141739980449658
