ppg
1.0019550342130987
1.0058651026392962
1.0087976539589445
1.0117302052785924
1.0127077223851415
1.0156402737047898
1.021505376344086
1.0312805474095796
1.0488758553274682
1.0821114369501466
1.1358748778103618
1.2160312805474096
1.3255131964809383
1.4633431085043989
1.624633431085044
1.801564027370479
1.9843597262952104
2.164222873900293
2.310850439882698
2.4301075268817205
2.5464320625610948
2.6480938416422286
2.732160312805474
2.7996089931573804
2.852394916911046
2.8944281524926687
2.927663734115347
2.956011730205278
2.979472140762464
2.9980449657869013
3.005865102639296
3.006842619745845
3.007820136852395
3.004887585532747
2.995112414467253
2.975562072336266
2.946236559139785
2.905180840664712
2.8533724340175954
2.788856304985337
2.713587487781036
2.6285434995112413
2.535679374389052
2.4486803519061584
2.363636363636364
2.272727272727273
2.1837732160312804
2.099706744868035
2.024437927663734
1.9589442815249267
1.903225806451613
1.8563049853372435
1.8162267839687196
1.780058651026393
1.7458455522971652
1.7165200391006843
1.689149560117302
1.6598240469208212
1.6285434995112416
1.595307917888563
1.5610948191593352
1.525904203323558
1.490713587487781
1.456500488758553
1.4213098729227762
1.388074291300098
1.3548387096774193
1.3235581622678396
1.2991202346041055
1.278592375366569
1.2561094819159335
1.2336265884652982
1.2130987292277615
1.1945259042033236
1.1788856304985338
1.164222873900293
1.1505376344086022
1.1368523949169111
1.1241446725317692
1.110459433040078
1.1006842619745845
1.093841642228739
1.086021505376344
1.0772238514173995
1.0684261974584557
1.0596285434995112
1.0586510263929618
1.06158357771261
1.0586510263929618
1.053763440860215
1.0478983382209188
1.0410557184750733
1.0342130987292275
1.0312805474095796
1.029325513196481
1.0263929618768328
1.0224828934506354
1.018572825024438
1.0156402737047898
1.0127077223851415
1.0097751710654936
1.0068426197458455
1.0039100684261977
1.0019550342130987
1.0
1.0
1.0019550342130987
1.0019550342130987
1.0009775171065494
1.0009775171065494
1.0019550342130987
1.0039100684261977
1.0058651026392962
1.0068426197458455
1.007820136852395
1.0087976539589445
1.010752688172043
1.0127077223851415
1.0166177908113392
1.0224828934506354
1.0263929618768328
1.029325513196481
1.032258064516129
1.0342130987292275
1.0371456500488758
1.0410557184750733
1.0498533724340176
1.067448680351906
1.099706744868035
1.152492668621701
1.2160312805474096
1.2971652003910068
1.4115347018572826
1.5532746823069403
1.7145650048875856
1.8875855327468232
2.0625610948191597
2.228739002932551
2.3792766373411536
2.509286412512219
2.6177908113391983
2.704789833822092
2.763440860215054
2.8025415444770285
2.8377321603128056
2.868035190615836
2.89247311827957
2.913000977517106
2.9315738025415445
2.9472140762463344
2.9589442815249267
2.9657869012707723
2.964809384164223
2.9550342130987293
2.9345063538611926
2.903225806451613
2.86217008797654
2.8103616813294234
2.747800586510264
2.675464320625611
2.595307917888563
2.509286412512219
2.418377321603128
2.3255131964809386
2.236559139784946
2.1524926686217007
2.0772238514174
2.01564027370479
1.9657869012707725
1.919843597262952
1.8797653958944285
1.844574780058651
1.8132942326490715
1.7839687194525904
1.7546432062561097
1.7243401759530792
1.694037145650049
1.6637341153470186
1.632453567937439
1.6001955034213098
1.5718475073313782
1.544477028347996
1.5131964809384164
1.4809384164222874
1.4486803519061584
1.4173998044965788
1.3890518084066472
1.3616813294232648
1.3362658846529814
1.3128054740957966
1.29227761485826
1.2756598240469208
1.2639296187683284
1.2541544477028348
1.241446725317693
1.227761485826002
1.2140762463343109
1.2013685239491692
1.1886608015640274
1.176930596285435
1.166177908113392
1.1544477028347997
1.1436950146627567
1.133919843597263
1.1241446725317692
1.1192570869990224
1.115347018572825
1.110459433040078
1.104594330400782
1.096774193548387
1.0879765395894427
1.0791788856304985
1.0703812316715542
1.06158357771261
1.053763440860215
1.0469208211143697
1.0420332355816226
1.0410557184750733
1.0420332355816226
1.0420332355816226
1.0410557184750733
1.0391006842619743
1.0381231671554252
1.0391006842619743
1.040078201368524
1.040078201368524
1.040078201368524
1.0391006842619743
1.0391006842619743
1.0391006842619743
1.0420332355816226
1.0449657869012707
1.04594330400782
1.0469208211143697
1.0469208211143697
1.0469208211143697
1.0469208211143697
1.0469208211143697
1.0469208211143697
1.0469208211143697
1.0469208211143697
1.0469208211143697
1.0488758553274682
1.0527859237536656
1.0586510263929618
1.0713587487781036
1.0977517106549364
1.1436950146627567
1.2150537634408602
1.3147605083088951
1.4437927663734116
1.5962854349951123
1.7663734115347018
1.9442815249266865
2.1192570869990224
2.26197458455523
2.380254154447703
2.4975562072336266
2.601173020527859
2.686217008797654
2.7546432062561097
2.807429130009776
2.849462365591398
2.8826979472140764
2.9100684261974585
2.9335288367546437
2.9530791788856305
2.961876832844575
2.963831867057673
2.9657869012707723
2.962854349951124
2.952101661779081
2.932551319648094
2.902248289345064
2.860215053763441
2.806451612903226
2.740957966764418
2.665689149560117
2.581622678396872
2.4916911045943304
2.406647116324536
2.326490713587488
2.241446725317693
2.157380254154448
2.0791788856304985
2.0097751710654936
1.949169110459433
1.8963831867057677
1.8514173998044965
1.8132942326490715
1.7790811339198436
1.747800586510264
1.7204301075268815
1.6950146627565983
1.667644183773216
1.6383186705767352
1.6080156402737047
1.5747800586510263
1.5405669599217986
1.5053763440860215
1.469208211143695
1.434017595307918
1.4007820136852396
1.3695014662756595
1.3411534701857282
1.3196480938416422
1.303030303030303
1.284457478005865
1.2658846529814272
1.2473118279569892
1.2297165200391007
1.2121212121212122
1.195503421309873
1.1798631476050832
1.166177908113392
1.1534701857282503
1.141739980449658
1.133919843597263
1.1280547409579669
1.1192570869990224
1.110459433040078
1.1016617790811338
1.0928641251221896
1.0840664711632453
1.075268817204301
1.067448680351906
1.0596285434995112
1.0518084066471165
1.0439882697947214
1.035190615835777
1.029325513196481
1.0263929618768328
1.021505376344086
1.0166177908113392
1.0127077223851415
1.0097751710654936
1.0068426197458455
1.0039100684261977
1.0019550342130987
1.0
0.997067448680352
0.9951124144672532
0.9980449657869012
1.0039100684261977
1.0068426197458455
1.0087976539589445
1.0097751710654936
1.010752688172043
1.0117302052785924
1.0117302052785924
1.013685239491691
1.0156402737047898
1.0175953079178883
1.0195503421309873
1.021505376344086
1.0254154447702837
1.0312805474095796
1.035190615835777
1.0381231671554252
1.0410557184750733
1.0439882697947214
1.04594330400782
1.0488758553274682
1.056695992179863
1.072336265884653
1.1006842619745845
1.1485826001955035
1.2072336265884651
1.2834799608993157
1.393939393939394
1.533724340175953
1.6950146627565983
1.8699902248289344
2.046920821114369
2.217986314760508
2.3734115347018574
2.5102639296187683
2.624633431085044
2.717497556207233
2.780058651026393
2.8240469208211145
2.865102639296188
2.900293255131965
2.930596285434995
2.956011730205278
2.978494623655914
2.995112414467253
3.006842619745845
3.010752688172043
3.007820136852395
2.995112414467253
2.972629521016618
2.940371456500489
2.8993157380254155
2.8475073313782997
2.7839687194525906
2.7096774193548385
2.625610948191593
2.5347018572825024
2.4408602150537635
2.346041055718475
2.254154447702835
2.1681329423264906
2.09188660801564
2.0303030303030303
1.9804496578690127
1.9345063538611929
1.895405669599218
1.86119257086999
1.83088954056696
1.801564027370479
1.772238514173998
1.7429130009775171
1.7135874877810362
1.683284457478006
1.6520039100684265
1.619745845552297
1.5913978494623655
1.564027370478983
1.5327468230694037
1.500488758553275
1.4701857282502444
1.4408602150537635
1.412512218963832
1.3851417399804498
1.359726295210166
1.3372434017595307
1.3157380254154447
1.295210166177908
1.2805474095796676
1.2688172043010753
1.2561094819159335
1.2434017595307918
1.23069403714565
1.2179863147605083
1.2052785923753666
1.1945259042033236
1.18475073313783
1.1759530791788857
1.1671554252199414
1.1583577712609971
1.1505376344086022
1.1456500488758554
1.141739980449658
1.1358748778103618
1.1290322580645162
1.1221896383186705
1.115347018572825
1.10752688172043
1.1006842619745845
1.0948191593352885
1.0879765395894427
1.0821114369501466
1.0772238514173995
1.075268817204301
1.0742913000977516
1.0713587487781036
1.0684261974584557
1.0654936461388074
1.0635386119257086
1.0625610948191593
1.06158357771261
1.06158357771261
1.06158357771261
1.06158357771261
1.06158357771261
1.06158357771261
1.0635386119257086
1.0664711632453567
1.0664711632453567
1.0654936461388074
1.0654936461388074
1.0654936461388074
1.0654936461388074
1.0654936461388074
1.0654936461388074
1.064516129032258
1.0635386119257086
1.0625610948191593
1.0635386119257086
1.067448680351906
1.072336265884653
1.083088954056696
1.104594330400782
1.141739980449658
1.2003910068426198
1.2854349951124144
1.3988269794721409
1.5386119257087
1.6989247311827955
1.871945259042033
2.047898338220919
2.1955034213098727
2.321603128054741
2.449657869012708
2.565982404692082
2.664711632453568
2.7438905180840663
2.8054740957966766
2.8533724340175954
2.8905180840664717
2.920821114369501
2.945259042033236
2.9657869012707723
2.9765395894428157
2.979472140762464
2.983382209188661
2.983382209188661
2.975562072336266
2.9579667644183774
2.930596285434995
2.8914956011730206
2.8406647116324537
2.779081133919844
2.7067448680351904
2.625610948191593
2.536656891495601
2.452590420332356
2.3714565004887587
2.2844574780058653
2.198435972629521
2.1163245356793743
2.043010752688172
1.9794721407624636
1.9257086999022484
1.8797653958944285
1.8406647116324533
1.8064516129032255
1.775171065493646
1.7468230694037146
1.7204301075268815
1.6920821114369502
1.6608015640273706
1.6285434995112416
1.595307917888563
1.563049853372434
1.530791788856305
1.499511241446725
1.4672531769305963
1.435972629521017
1.4066471163245358
1.3792766373411536
1.356793743890518
1.3372434017595307
1.3157380254154447
1.295210166177908
1.2776148582600195
1.262952101661779
1.2512218963831867
1.2424242424242424
1.2346041055718475
1.2258064516129032
1.2160312805474096
1.2052785923753666
1.1964809384164223
1.1867057673509287
1.1710654936461389
1.1505376344086022
1.1290322580645162
1.10752688172043
1.088954056695992
1.0733137829912025
1.0625610948191593
1.0557184750733135
1.050830889540567
1.0478983382209188
1.0469208211143697
1.0488758553274682
1.0527859237536656
1.0547409579667644
1.0576735092864125
1.0625610948191593
1.0703812316715542
1.0811339198435972
1.0948191593352885
1.1114369501466277
1.130987292277615
1.1534701857282503
1.176930596285435
1.1994134897360704
1.2228739002932552
1.2473118279569892
1.2717497556207231
1.2961876832844574
1.3206256109481915
1.3450635386119256
1.3685239491691104
1.3900293255131966
1.4076246334310851
1.4222873900293256
1.434017595307918
1.4428152492668622
1.4486803519061584
1.4506353861192571
1.4496578690127078
1.4467253176930597
1.4408602150537635
1.4320625610948192
1.418377321603128
1.401759530791789
1.3851417399804498
1.370478983382209
1.359726295210166
1.3587487781036167
1.3685239491691104
1.393939393939394
1.4437927663734116
1.521016617790811
1.6275659824046922
1.7605083088954057
1.9149560117302051
2.0821114369501466
2.251221896383187
2.4134897360703813
2.5640273704789838
2.696969696969697
2.7947214076246336
2.868035190615836
2.936461388074292
2.994134897360704
3.0391006842619745
3.074291300097752
3.099706744868035
3.1163245356793743
3.1251221896383186
3.126099706744868
3.1192570869990224
3.103616813294233
3.0791788856304985
3.04594330400782
3.002932551319648
2.948191593352884
2.881720430107527
2.8044965786901277
2.717497556207233
2.622678396871945
2.5239491691104594
2.4242424242424243
2.3274682306940373
2.236559139784946
2.15347018572825
2.086021505376344
2.0283479960899315
1.9745845552297163
1.9257086999022484
1.881720430107527
1.8416422287390029
1.8035190615835777
1.7653958944281525
1.7282502443792769
1.6901270772238517
1.6529814271749756
1.6148582600195502
1.576735092864125
1.543499511241447
1.512218963831867
1.4760508308895406
1.436950146627566
1.3978494623655917
1.3607038123167154
1.3255131964809383
1.2932551319648091
1.2639296187683284
1.2355816226783969
1.2111436950146628
1.1886608015640274
1.1720430107526882
1.1573802541544478
1.1407624633431086
1.1251221896383188
1.110459433040078
1.0977517106549364
1.0869990224828934
1.0772238514173995
1.067448680351906
1.0586510263929618
1.050830889540567
1.0439882697947214
1.0391006842619743
1.0371456500488758
1.0371456500488758
1.035190615835777
1.0312805474095796
1.0263929618768328
1.0205278592375366
1.013685239491691
1.0068426197458455
0.9980449657869012
0.989247311827957
0.9824046920821116
0.9765395894428152
0.9745845552297164
0.9745845552297164
0.9726295210166178
0.9696969696969696
0.9657869012707724
0.9618768328445748
0.9579667644183774
0.9530791788856304
0.9481915933528836
0.9452590420332356
0.9433040078201368
0.9423264907135877
0.9423264907135877
0.9452590420332356
0.9491691104594332
0.9521016617790812
0.9560117302052786
0.959921798631476
0.9648093841642228
0.9687194525904204
0.9726295210166178
0.975562072336266
0.978494623655914
0.9833822091886608
0.989247311827957
0.997067448680352
1.0058651026392962
1.013685239491691
1.024437927663734
1.0410557184750733
1.067448680351906
1.1085043988269794
1.1710654936461389
1.2580645161290325
1.370478983382209
1.5073313782991202
1.6656891495601174
1.835777126099707
1.986314760508309
2.121212121212121
2.264907135874878
2.401759530791789
2.5210166177908118
2.621700879765396
2.702834799608993
2.766373411534702
2.81622678396872
2.8563049853372435
2.8885630498533725
2.9159335288367547
2.932551319648094
2.941348973607038
2.9530791788856305
2.962854349951124
2.967741935483871
2.964809384164223
2.952101661779081
2.9286412512218964
2.8944281524926687
2.8484848484848486
2.790811339198436
2.721407624633431
2.6422287390029324
2.5640273704789838
2.484848484848485
2.396871945259042
2.3059628543499517
2.217986314760508
2.134897360703812
2.058651026392962
1.9902248289345064
1.9305962854349952
1.8807429130009776
1.8377321603128052
1.8005865102639296
1.7702834799608993
1.7438905180840665
1.715542521994135
1.686217008797654
1.653958944281525
1.6207233626588464
1.585532746823069
1.5503421309872922
1.5141739980449658
1.478983382209189
1.444770283479961
1.4105571847507332
1.3782991202346042
1.3519061583577712
1.3294232649071358
1.3040078201368523
1.2795698924731185
1.2570869990224829
1.2355816226783969
1.2160312805474096
1.1974584555229717
1.1808406647116323
1.166177908113392
1.1534701857282503
1.141739980449658
1.133919843597263
1.1280547409579669
1.1192570869990224
1.110459433040078
1.1016617790811338
1.0928641251221896
1.0840664711632453
1.075268817204301
1.0664711632453567
1.0586510263929618
1.050830889540567
1.0439882697947214
1.0371456500488758
1.0332355816226784
1.0312805474095796
1.0273704789833822
1.024437927663734
1.021505376344086
1.0195503421309873
1.0166177908113392
1.013685239491691
1.0087976539589445
1.0039100684261977
1.0
0.997067448680352
0.997067448680352
0.9990224828934506
0.9990224828934506
0.9980449657869012
0.997067448680352
0.997067448680352
0.9980449657869012
1.0
1.0039100684261977
1.0087976539589445
1.0166177908113392
1.029325513196481
1.0469208211143697
1.0742913000977516
1.118279569892473
1.1837732160312806
1.2746823069403714
1.3919843597262953
1.5317693059628543
1.6881720430107527
1.8543499511241448
2.0195503421309877
2.175953079178885
2.315738025415445
2.4359726295210167
2.52297165200391
2.5855327468230693
2.6402737047898337
2.6852394916911044
2.720430107526881
2.747800586510264
2.7702834799608995
2.788856304985337
2.803519061583578
2.814271749755621
2.819159335288368
2.8152492668621703
2.801564027370479
2.7536656891495603
2.686217008797654
2.6295210166177907
2.572825024437928
2.5112414467253177
2.441837732160313
2.3655913978494625
2.2844574780058653
2.201368523949169
2.1192570869990224
2.042033235581622
1.9726295210166176
1.916911045943304
1.870967741935484
1.827956989247312
1.790811339198436
1.7595307917888563
1.732160312805474
1.7067448680351909
1.6823069403714566
1.656891495601173
1.6314760508308896
1.6050830889540566
1.576735092864125
1.5513196480938416
1.5268817204301075
1.498533724340176
1.4701857282502444
1.4418377321603129
1.414467253176931
1.3870967741935485
1.3616813294232648
1.33822091886608
1.3157380254154447
1.295210166177908
1.2766373411534702
1.260019550342131
1.2482893450635386
1.2394916911045943
1.2287390029325511
1.2189638318670577
1.209188660801564
1.1994134897360704
1.1896383186705768
1.1798631476050832
1.1700879765395895
1.1612903225806452
1.1534701857282503
1.144672531769306
1.1397849462365592
1.1358748778103618
1.1300097751710656
1.1241446725317692
1.118279569892473
1.1124144672531768
1.1065493646138806
1.099706744868035
1.0928641251221896
1.0869990224828934
1.0821114369501466
1.0772238514173995
1.0733137829912025
1.072336265884653
1.072336265884653
1.0703812316715542
1.067448680351906
1.0635386119257086
1.0596285434995112
1.056695992179863
1.0547409579667644
1.0527859237536656
1.050830889540567
1.0488758553274682
1.0469208211143697
1.0469208211143697
1.0488758553274682
1.050830889540567
1.0527859237536656
1.0547409579667644
1.056695992179863
1.0586510263929618
1.0606060606060606
1.0625610948191593
1.064516129032258
1.0664711632453567
1.067448680351906
1.0684261974584557
1.0713587487781036
1.075268817204301
1.0772238514173995
1.0791788856304985
1.0811339198435972
1.083088954056696
1.086021505376344
1.088954056695992
1.0909090909090908
1.0928641251221896
1.0948191593352885
1.0957966764418376
1.0977517106549364
1.1006842619745845
1.1036168132942326
1.110459433040078
1.1251221896383188
1.1534701857282503
1.2003910068426198
1.2717497556207231
1.370478983382209
1.4975562072336266
1.6490713587487782
1.818181818181818
1.9951124144672527
2.147605083088954
2.2795698924731185
2.41544477028348
2.5405669599217986
2.6480938416422286
2.7370478983382207
2.8084066471163247
2.8641251221896384
2.9071358748778104
2.941348973607038
2.9667644183773216
2.9872922776148583
2.9960899315738025
2.997067448680352
3.0
3.0
2.995112414467253
2.983382209188661
2.963831867057673
2.9345063538611926
2.895405669599218
2.8455522971652005
2.7839687194525906
2.7126099706744866
2.632453567937439
2.555229716520039
2.4789833822091887
2.3958944281524928
2.3118279569892475
2.2297165200391005
2.1524926686217007
2.081133919843597
2.018572825024438
1.9657869012707725
1.920821114369501
1.8826979472140764
1.847507331378299
1.8191593352883677
1.793743890518084
1.7663734115347018
1.7360703812316716
1.7038123167155426
1.6705767350928642
1.6363636363636365
1.6021505376344083
1.56891495601173
1.5356793743890518
1.5034213098729228
1.4721407624633431
1.4437927663734116
1.4213098729227762
1.401759530791789
1.380254154447703
1.3587487781036167
1.3362658846529814
1.3147605083088951
1.2961876832844574
1.278592375366569
1.2619745845552297
1.24633431085044
1.2326490713587488
1.2209188660801564
1.2121212121212122
1.2052785923753666
1.195503421309873
1.1857282502443791
1.1759530791788857
1.166177908113392
1.1583577712609971
1.1515151515151516
1.144672531769306
1.1378299120234605
1.1300097751710656
1.1221896383186705
1.1143695014662756
1.1094819159335287
1.1055718475073313
1.1006842619745845
1.0957966764418376
1.0928641251221896
1.0899315738025417
1.0869990224828934
1.0840664711632453
1.0811339198435972
1.078201368523949
1.075268817204301
1.0733137829912025
1.0733137829912025
1.075268817204301
1.075268817204301
1.0742913000977516
1.0742913000977516
1.075268817204301
1.0772238514173995
1.0791788856304985
1.0811339198435972
1.083088954056696
1.0850439882697946
1.0869990224828934
1.0909090909090908
1.0948191593352885
1.096774193548387
1.0977517106549364
1.0977517106549364
1.0977517106549364
1.0987292277614855
1.099706744868035
1.1016617790811338
1.1036168132942326
1.1085043988269794
1.118279569892473
1.1368523949169111
1.163245356793744
1.2013685239491692
1.2619745845552297
1.3470185728250244
1.455522971652004
1.5865102639296187
1.7341153470185728
1.889540566959922
2.0449657869012707
2.1915933528836757
2.324535679374389
2.4389051808406648
2.5219941348973607
2.582600195503421
2.636363636363636
2.6803519061583576
2.7155425219941347
2.742913000977517
2.763440860215054
2.7781036168132944
2.787878787878788
2.793743890518084
2.7947214076246336
2.789833822091887
2.777126099706745
2.7565982404692084
2.7282502443792764
2.6911045943304006
2.643206256109482
2.58455522971652
2.5161290322580645
2.439882697947214
2.3519061583577714
2.260019550342131
2.1739980449657867
2.093841642228739
2.022482893450636
1.964809384164223
1.916911045943304
1.873900293255132
1.836754643206256
1.8035190615835777
1.7741935483870968
1.7458455522971652
1.7174975562072337
1.6901270772238517
1.66177908113392
1.6314760508308896
1.6011730205278591
1.5708699902248289
1.543499511241447
1.517106549364614
1.487781036168133
1.458455522971652
1.4301075268817205
1.4027370478983383
1.3773216031280548
1.3519061583577712
1.3294232649071358
1.3088954056695992
1.289345063538612
1.270772238514174
1.2570869990224829
1.2453567937438903
1.2336265884652982
1.2209188660801564
1.2082111436950147
1.1964809384164223
1.1857282502443791
1.176930596285435
1.1681329423264908
1.1593352883675463
1.1495601173020529
1.1397849462365592
1.1300097751710656
1.1231671554252198
1.118279569892473
1.1124144672531768
1.1065493646138806
1.1006842619745845
1.0957966764418376
1.0899315738025417
1.083088954056696
1.075268817204301
1.067448680351906
1.0606060606060606
1.053763440860215
1.0518084066471165
1.0518084066471165
1.0488758553274682
1.04594330400782
1.043010752688172
1.0410557184750733
1.0391006842619743
1.0371456500488758
1.0371456500488758
1.0381231671554252
1.0391006842619743
1.0410557184750733
1.043010752688172
1.04594330400782
1.0498533724340176
1.0518084066471165
1.0527859237536656
1.0527859237536656
1.0527859237536656
1.0527859237536656
1.0527859237536656
1.0527859237536656
1.053763440860215
1.053763440860215
1.053763440860215
1.0557184750733135
1.0586510263929618
1.0606060606060606
1.0635386119257086
1.0713587487781036
1.088954056695992
1.1202346041055715
1.1710654936461389
1.24633431085044
1.3479960899315735
1.4750733137829912
1.6236559139784943
1.7859237536656891
1.9305962854349952
2.06158357771261
2.20039100684262
2.333333333333333
2.450635386119257
2.549364613880743
2.627565982404692
2.689149560117302
2.736070381231672
2.7722385141739982
2.80058651026393
2.822091886608016
2.832844574780059
2.8377321603128056
2.843597262952102
2.84652981427175
2.8455522971652005
2.8377321603128056
2.822091886608016
2.7976539589442817
2.763440860215054
2.718475073313783
2.662756598240469
2.5962854349951123
2.5210166177908118
2.447702834799609
2.3743890518084068
2.2952101661779083
2.2140762463343107
2.1358748778103616
2.0625610948191597
1.997067448680352
1.9403714565004888
1.8914956011730208
1.8484848484848484
1.8113391984359728
1.7781036168132942
1.7487781036168133
1.7223851417399805
1.6950146627565983
1.6656891495601174
1.6363636363636365
1.6050830889540566
1.5747800586510263
1.543499511241447
1.512218963831867
1.4809384164222874
