ppg
2.048875855327468
1.991202346041056
1.9403714565004888
1.8973607038123168
1.8641251221896384
1.835777126099707
1.8084066471163245
1.7820136852394917
1.7556207233626588
1.729227761485826
1.7018572825024438
1.675464320625611
1.6480938416422288
1.619745845552297
1.5913978494623655
1.563049853372434
1.5356793743890518
1.512218963831867
1.4916911045943304
1.4682306940371457
1.4437927663734116
1.4037145650048877
1.3548387096774193
1.3186705767350928
1.289345063538612
1.262952101661779
1.238514173998045
1.2160312805474096
1.1945259042033236
1.1779081133919844
1.1652003910068427
1.1495601173020529
1.133919843597263
1.1192570869990224
1.1055718475073313
1.0928641251221896
1.0811339198435972
1.0703812316715542
1.0596285434995112
1.050830889540567
1.043010752688172
1.0371456500488758
1.035190615835777
1.035190615835777
1.0332355816226784
1.0312805474095796
1.0303030303030305
1.029325513196481
1.029325513196481
1.0283479960899315
1.0283479960899315
1.0273704789833822
1.0273704789833822
1.0273704789833822
1.029325513196481
1.032258064516129
1.0332355816226784
1.0332355816226784
1.0342130987292275
1.035190615835777
1.0361681329423265
1.0371456500488758
1.0381231671554252
1.0381231671554252
1.0381231671554252
1.0371456500488758
1.0361681329423265
1.0381231671554252
1.040078201368524
1.040078201368524
1.0381231671554252
1.0361681329423265
1.0342130987292275
1.032258064516129
1.0303030303030305
1.0273704789833822
1.0234604105571847
1.0195503421309873
1.0166177908113392
1.018572825024438
1.0273704789833822
1.04594330400782
1.0840664711632453
1.1495601173020529
1.2473118279569892
1.3773216031280548
1.5356793743890518
1.715542521994135
1.906158357771261
2.0957966764418376
2.2737047898338223
2.43108504398827
2.548387096774193
2.635386119257087
2.710654936461388
2.76930596285435
2.8103616813294234
2.835777126099707
2.8475073313782997
2.8484848484848486
2.841642228739003
2.8289345063538613
2.8132942326490715
2.7947214076246336
2.773216031280548
2.750733137829912
2.730205278592375
2.7096774193548385
2.689149560117302
2.6666666666666665
2.641251221896383
2.610948191593353
2.5747800586510263
2.529814271749756
2.4760508308895406
2.412512218963832
2.3421309872922778
2.274682306940372
2.207233626588465
2.132942326490713
2.058651026392962
1.988269794721408
1.9227761485826005
1.865102639296188
1.81524926686217
1.7732160312805474
1.737047898338221
1.704789833822092
1.6764418377321604
1.6529814271749756
1.6314760508308896
1.6080156402737047
1.5826001955034212
1.555229716520039
1.5268817204301075
1.4975562072336266
1.4672531769305963
1.436950146627566
1.4076246334310851
1.3782991202346042
1.348973607038123
1.3206256109481915
1.2971652003910068
1.2776148582600195
1.2551319648093842
1.23069403714565
1.2072336265884651
1.1837732160312806
1.160312805474096
1.1378299120234605
1.1163245356793745
1.0957966764418376
1.0762463343108504
1.0576735092864125
1.0449657869012707
1.035190615835777
1.0224828934506354
1.0087976539589445
0.9960899315738024
0.9833822091886608
0.9716520039100685
0.9618768328445748
0.95405669599218
0.946236559139785
0.9393939393939394
0.9325513196480938
0.9266862170087976
0.9257086999022482
0.9266862170087976
0.9257086999022482
0.9247311827956988
0.9247311827956988
0.9257086999022482
0.9266862170087976
0.927663734115347
0.9286412512218964
0.9296187683284456
0.9315738025415444
0.9335288367546432
0.93841642228739
0.9442815249266864
0.9481915933528836
0.9501466275659824
0.9521016617790812
0.9530791788856304
0.95405669599218
0.95405669599218
0.95405669599218
0.9550342130987292
0.9560117302052786
0.9560117302052786
0.9589442815249268
0.9628543499511242
0.9638318670576737
0.9628543499511242
0.959921798631476
0.956989247311828
0.956989247311828
0.9638318670576737
0.9824046920821116
1.021505376344086
1.0869990224828934
1.18475073313783
1.316715542521994
1.452590420332356
1.598240469208211
1.7761485826001957
1.967741935483871
2.157380254154448
2.333333333333333
2.487781036168133
2.6158357771261
2.716520039100684
2.790811339198436
2.841642228739003
2.8719452590420333
2.8836754643206257
2.881720430107527
2.874877810361681
2.86217008797654
2.84652981427175
2.8269794721407626
2.8054740957966766
2.7839687194525906
2.760508308895406
2.735092864125122
2.70772238514174
2.678396871945259
2.644183773216031
2.606060606060606
2.563049853372434
2.5131964809384164
2.455522971652004
2.391006842619746
2.321603128054741
2.249266862170088
2.177908113391984
2.1094819159335287
2.047898338220919
1.994134897360704
1.948191593352884
1.911045943304008
1.881720430107527
1.855327468230694
1.83088954056696
1.8084066471163245
1.7869012707722385
1.7644183773216031
1.7409579667644184
1.715542521994135
1.689149560117302
1.6608015640273706
1.6314760508308896
1.6011730205278591
1.5747800586510263
1.5513196480938416
1.5239491691104594
1.495601173020528
1.4672531769305963
1.4389051808406648
1.4105571847507332
1.3841642228739004
1.3587487781036167
1.3343108504398826
1.310850439882698
1.2883675464320623
1.270772238514174
1.2561094819159335
1.2404692082111437
1.2238514173998043
1.2082111436950147
1.1935483870967742
1.1798631476050832
1.1671554252199414
1.155425219941349
1.1456500488758554
1.1368523949169111
1.1495601173020529
1.1730205278592376
1.18475073313783
1.1906158357771262
1.1906158357771262
1.1886608015640274
1.1867057673509287
1.18475073313783
1.1837732160312806
1.1827956989247312
1.1827956989247312
1.1827956989247312
1.1827956989247312
1.1827956989247312
1.1857282502443791
1.1896383186705768
1.1925708699902249
1.195503421309873
1.1974584555229717
1.198435972629521
1.1994134897360704
1.2013685239491692
1.2023460410557183
1.2023460410557183
1.2023460410557183
1.2013685239491692
1.2013685239491692
1.203323558162268
1.2072336265884651
1.209188660801564
1.2101661779081134
1.2101661779081134
1.209188660801564
1.206256109481916
1.2023460410557183
1.2003910068426198
1.2043010752688172
1.219941348973607
1.2541544477028348
1.3010752688172045
1.367546432062561
1.4711632453567938
1.608993157380254
1.7761485826001957
1.962854349951124
2.157380254154448
2.3489736070381237
2.525904203323558
2.681329423264907
2.811339198435973
2.9149560117302054
2.992179863147605
3.040078201368524
3.065493646138808
3.0821114369501466
3.090909090909091
3.09188660801564
3.0821114369501466
3.069403714565005
3.058651026392962
3.0439882697947214
3.027370478983382
3.0097751710654936
2.992179863147605
2.9716520039100685
2.949169110459433
2.9266862170087977
2.902248289345064
2.873900293255132
2.8396871945259043
2.7976539589442817
2.7468230694037143
2.686217008797654
2.6158357771261
2.536656891495601
2.452590420332356
2.3655913978494625
2.2873900293255134
2.2170087976539588
2.144672531769306
2.0762463343108504
2.0146627565982405
1.9618768328445748
1.916911045943304
1.878787878787879
1.8465298142717497
1.818181818181818
1.7917888563049853
1.7653958944281525
1.7429130009775171
1.721407624633431
1.6979472140762464
1.672531769305963
1.64613880742913
1.6187683284457477
1.590420332355816
1.5620723362658846
1.5347018572825024
1.5073313782991202
1.4809384164222874
1.455522971652004
1.4301075268817205
1.409579667644184
1.3919843597262953
1.3724340175953078
1.3509286412512218
1.3304007820136852
1.3088954056695992
1.2883675464320623
1.2697947214076246
1.2512218963831867
1.2326490713587488
1.2160312805474096
1.2003910068426198
1.1896383186705768
1.181818181818182
1.1720430107526882
1.1612903225806452
1.1515151515151516
1.141739980449658
1.1329423264907137
1.1251221896383188
1.118279569892473
1.1124144672531768
1.1065493646138806
1.1016617790811338
1.099706744868035
1.099706744868035
1.0987292277614855
1.096774193548387
1.0948191593352885
1.093841642228739
1.093841642228739
1.093841642228739
1.0957966764418376
1.0977517106549364
1.099706744868035
1.1016617790811338
1.1036168132942326
1.1065493646138806
1.110459433040078
1.1124144672531768
1.1133919843597262
1.1143695014662756
1.1143695014662756
1.1143695014662756
1.1143695014662756
1.1133919843597262
1.1124144672531768
1.1094819159335287
1.104594330400782
1.1026392961876832
1.1036168132942326
1.1065493646138806
1.118279569892473
1.1466275659824048
1.1994134897360704
1.2825024437927663
1.3988269794721409
1.547409579667644
1.7204301075268815
1.9100684261974583
2.102639296187683
2.2873900293255134
2.4349951124144678
2.5532746823069403
2.664711632453568
2.757575757575758
2.8299120234604107
2.8807429130009776
2.913978494623656
2.932551319648094
2.9393939393939394
2.9374389051808407
2.929618768328446
2.917888563049853
2.900293255131965
2.8807429130009776
2.863147605083089
2.8475073313782997
2.831867057673509
2.817204301075269
2.80058651026393
2.782013685239492
2.7595307917888565
2.718475073313783
2.67644183773216
2.6402737047898337
2.590420332355816
2.535679374389052
2.4750733137829912
2.4027370478983383
2.3225806451612905
2.2385141739980448
2.1544477028347995
2.074291300097752
2.0009775171065494
1.935483870967742
1.878787878787879
1.83088954056696
1.790811339198436
1.7595307917888563
1.7341153470185728
1.7096774193548387
1.6842619745845553
1.6598240469208212
1.635386119257087
1.6109481915933528
1.58455522971652
1.5581622678396871
1.530791788856305
1.5034213098729228
1.4760508308895406
1.4467253176930597
1.4242424242424243
1.4066471163245358
1.3861192570869991
1.3636363636363635
1.3401759530791788
1.3176930596285434
1.295210166177908
1.2727272727272727
1.2502443792766371
1.2287390029325511
1.209188660801564
1.1896383186705768
1.1749755620723363
1.163245356793744
1.1485826001955035
1.133919843597263
1.1202346041055715
1.1065493646138806
1.0928641251221896
1.0811339198435972
1.0703812316715542
1.0596285434995112
1.0498533724340176
1.0420332355816226
1.035190615835777
1.032258064516129
1.032258064516129
1.029325513196481
1.0263929618768328
1.0234604105571847
1.021505376344086
1.0205278592375366
1.0205278592375366
1.0205278592375366
1.021505376344086
1.0224828934506354
1.024437927663734
1.029325513196481
1.0361681329423265
1.0410557184750733
1.043010752688172
1.0449657869012707
1.0420332355816226
1.0361681329423265
1.0332355816226784
1.0312805474095796
1.029325513196481
1.0283479960899315
1.0273704789833822
1.0283479960899315
1.0303030303030305
1.0303030303030305
1.029325513196481
1.0263929618768328
1.0205278592375366
1.0166177908113392
1.0146627565982405
1.018572825024438
1.0361681329423265
1.0742913000977516
1.1407624633431086
1.2209188660801564
1.3206256109481915
1.4594330400782014
1.6265884652981428
1.812316715542522
1.9560117302052784
2.117302052785924
2.321603128054741
2.458455522971652
2.572825024437928
2.6901270772238512
2.771260997067449
2.825024437927664
2.852394916911046
2.86217008797654
2.8641251221896384
2.860215053763441
2.850439882697948
2.8377321603128056
2.822091886608016
2.8044965786901277
2.7869012707722387
2.768328445747801
2.7497556207233624
2.729227761485826
2.705767350928641
2.678396871945259
2.6471163245356792
2.610948191593353
2.567937438905181
2.5161290322580645
2.4574780058651027
2.3919843597262958
2.3225806451612905
2.251221896383187
2.1808406647116323
2.114369501466276
2.053763440860215
2.003910068426197
1.9618768328445748
1.9227761485826005
1.8875855327468232
1.8563049853372435
1.827956989247312
1.801564027370479
1.7761485826001957
1.7497556207233629
1.7233626588465298
1.6959921798631477
1.6686217008797657
1.6441837732160314
1.6207233626588464
1.595307917888563
1.5679374389051808
1.5395894428152492
1.5112414467253177
1.4838709677419355
1.456500488758553
1.4301075268817205
1.404692082111437
1.380254154447703
1.356793743890518
1.335288367546432
1.3186705767350928
1.3040078201368523
1.2873900293255132
1.2697947214076246
1.252199413489736
1.2346041055718475
1.2189638318670577
1.203323558162268
1.1896383186705768
1.176930596285435
1.1652003910068427
1.155425219941349
1.1495601173020529
1.1466275659824048
1.142717497556207
1.1378299120234605
1.133919843597263
1.1300097751710656
1.1270772238514175
1.1241446725317692
1.1221896383186705
1.1202346041055715
1.1192570869990224
1.1192570869990224
1.1221896383186705
1.126099706744868
1.1280547409579669
1.1290322580645162
1.130987292277615
1.1329423264907137
1.1358748778103618
1.13880742913001
1.141739980449658
1.144672531769306
1.1466275659824048
1.1485826001955035
1.1505376344086022
1.1544477028347997
1.1583577712609971
1.1612903225806452
1.163245356793744
1.1652003910068427
1.1652003910068427
1.164222873900293
1.1622678396871946
1.160312805474096
1.1583577712609971
1.160312805474096
1.1700879765395895
1.1896383186705768
1.224828934506354
1.2864125122189638
1.3792766373411536
1.504398826979472
1.6588465298142718
1.835777126099707
2.024437927663734
2.2130987292277613
2.3900293255131966
2.548387096774193
2.681329423264907
2.788856304985337
2.8611925708699903
2.9071358748778104
2.9442815249266863
2.9696969696969697
2.983382209188661
2.988269794721408
2.986314760508309
2.9804496578690127
2.970674486803519
2.959921798631476
2.9472140762463344
2.9345063538611926
2.917888563049853
2.900293255131965
2.8836754643206257
2.8670576735092865
2.8475073313782997
2.8240469208211145
2.793743890518084
2.755620723362659
2.70772238514174
2.650048875855328
2.582600195503421
2.50733137829912
2.4252199413489737
2.347996089931574
2.2737047898338223
2.193548387096774
2.113391984359726
2.038123167155425
1.9696969696969695
1.9100684261974583
1.8592375366568916
1.8162267839687196
1.780058651026393
1.7487781036168133
1.721407624633431
1.6989247311827955
1.678396871945259
1.6559139784946235
1.632453567937439
1.607038123167155
1.581622678396872
1.5562072336265884
1.5298142717497556
1.504398826979472
1.478005865102639
1.452590420332356
1.4271749755620724
1.4027370478983383
1.3822091886608017
1.3655913978494625
1.346041055718475
1.324535679374389
1.303030303030303
1.281524926686217
1.2609970674486803
1.241446725317693
1.2228739002932552
1.2052785923753666
1.187683284457478
1.1720430107526882
1.1612903225806452
1.1534701857282503
1.1436950146627567
1.133919843597263
1.1241446725317692
1.1143695014662756
1.104594330400782
1.0957966764418376
1.0879765395894427
1.0811339198435972
1.0762463343108504
1.0713587487781036
1.067448680351906
1.067448680351906
1.0694037145650048
1.0684261974584557
1.067448680351906
1.0664711632453567
1.0664711632453567
1.0664711632453567
1.067448680351906
1.0694037145650048
1.0713587487781036
1.0733137829912025
1.075268817204301
1.0791788856304985
1.0840664711632453
1.0879765395894427
1.0899315738025417
1.0918866080156402
1.0928641251221896
1.093841642228739
1.0948191593352885
1.0957966764418376
1.096774193548387
1.0977517106549364
1.0977517106549364
1.0977517106549364
1.099706744868035
1.1016617790811338
1.1006842619745845
1.0987292277614855
1.099706744868035
1.1094819159335287
1.133919843597263
1.1808406647116323
1.2561094819159335
1.364613880742913
1.5034213098729228
1.667644183773216
1.8240469208211143
1.9765395894428155
2.1485826001955037
2.3196480938416424
2.4760508308895406
2.6099706744868034
2.718475073313783
2.801564027370479
2.8611925708699903
2.900293255131965
2.9237536656891496
2.935483870967742
2.936461388074292
2.927663734115347
2.913000977517106
2.898338220918866
2.8826979472140764
2.8670576735092865
2.8514173998044967
2.834799608993157
2.8181818181818183
2.7996089931573804
2.779081133919844
2.7536656891495603
2.7223851417399803
2.687194525904203
2.64613880742913
2.5962854349951123
2.5376344086021505
2.469208211143695
2.3929618768328447
2.3118279569892475
2.2267839687194524
2.142717497556207
2.06158357771261
1.986314760508309
1.9178885630498532
1.857282502443793
1.8103616813294232
1.772238514173998
1.7360703812316716
1.7028347996089932
1.672531769305963
1.6441837732160314
1.6158357771260996
1.5884652981427174
1.5610948191593352
1.5327468230694037
1.504398826979472
1.4760508308895406
1.4516129032258065
1.4301075268817205
1.4056695992179864
1.380254154447703
1.3548387096774193
1.3294232649071358
1.3040078201368523
1.2795698924731185
1.2561094819159335
1.2336265884652982
1.2121212121212122
1.1906158357771262
1.1749755620723363
1.1612903225806452
1.1456500488758554
1.1290322580645162
1.1133919843597262
1.0977517106549364
1.083088954056696
1.0694037145650048
1.056695992179863
1.0439882697947214
1.0312805474095796
1.0205278592375366
1.010752688172043
1.0058651026392962
1.0039100684261977
0.9990224828934506
0.9941348973607038
0.989247311827957
0.9853372434017597
0.9833822091886608
0.9824046920821116
0.981427174975562
0.981427174975562
0.981427174975562
0.981427174975562
0.9843597262952102
0.9882697947214076
0.9902248289345064
0.9921798631476052
0.9941348973607038
0.9960899315738024
0.9980449657869012
1.0
1.0019550342130987
1.0039100684261977
1.0058651026392962
1.0068426197458455
1.0068426197458455
1.0097751710654936
1.0127077223851415
1.013685239491691
1.013685239491691
1.013685239491691
1.013685239491691
1.0146627565982405
1.0156402737047898
1.0156402737047898
1.0156402737047898
1.0146627565982405
1.0127077223851415
1.0146627565982405
1.021505376344086
1.035190615835777
1.064516129032258
1.1173020527859236
1.1994134897360704
1.313782991202346
1.4594330400782014
1.629521016617791
1.81524926686217
2.004887585532747
2.187683284457478
2.35386119257087
2.4809384164222874
2.5777126099706744
2.664711632453568
2.735092864125122
2.7869012707722387
2.8211143695014664
2.8396871945259043
2.8475073313782997
2.8455522971652005
2.8377321603128056
2.825024437927664
2.8084066471163247
2.788856304985337
2.768328445747801
2.747800586510264
2.727272727272727
2.705767350928641
2.681329423264907
2.6529814271749754
2.619745845552297
2.578690127077224
2.529814271749756
2.472140762463343
2.406647116324536
2.335288367546432
2.267839687194526
2.203323558162268
2.133919843597263
2.065493646138808
2.0019550342130987
1.946236559139785
1.8973607038123168
1.8563049853372435
1.8211143695014664
1.790811339198436
1.7644183773216031
1.7390029325513197
1.7165200391006843
1.6950146627565983
1.6705767350928642
1.6441837732160314
1.616813294232649
1.587487781036168
1.5581622678396871
1.5288367546432062
1.499511241446725
1.4711632453567938
1.4437927663734116
1.4173998044965788
1.3919843597262953
1.370478983382209
1.3519061583577712
1.3304007820136852
1.3079178885630498
1.2854349951124144
1.2639296187683284
1.2434017595307918
1.2228739002932552
1.203323558162268
1.1857282502443791
1.1700879765395895
1.1564027370478984
1.1466275659824048
1.1397849462365592
1.1319648093841643
1.1231671554252198
1.115347018572825
1.1094819159335287
1.104594330400782
1.1006842619745845
1.0977517106549364
1.0957966764418376
1.0948191593352885
1.0957966764418376
1.0977517106549364
1.1016617790811338
1.10752688172043
1.1124144672531768
1.1173020527859236
1.1221896383186705
1.1280547409579669
1.133919843597263
1.1397849462365592
1.1456500488758554
1.1515151515151516
1.1573802541544478
1.163245356793744
1.1700879765395895
1.1779081133919844
1.1837732160312806
1.1886608015640274
1.1915933528836755
1.1945259042033236
1.1974584555229717
1.1994134897360704
1.2003910068426198
1.2013685239491692
1.2013685239491692
1.2013685239491692
1.2003910068426198
1.2003910068426198
1.2003910068426198
1.198435972629521
1.1974584555229717
1.2023460410557183
1.2189638318670577
1.2551319648093842
1.3176930596285434
1.4115347018572826
1.5366568914956011
1.6911045943304008
1.866080156402737
2.026392961876833
2.175953079178885
2.3382209188660803
2.493646138807429
2.632453567937439
2.747800586510264
2.8377321603128056
2.9042033235581624
2.9501466275659824
2.9775171065493646
2.991202346041056
2.994134897360704
2.989247311827957
2.975562072336266
2.956011730205278
2.9374389051808407
2.918866080156403
2.900293255131965
2.8807429130009776
2.860215053763441
2.838709677419355
2.8152492668621703
2.787878787878788
2.755620723362659
2.716520039100684
2.673509286412512
2.624633431085044
2.565982404692082
2.4995112414467253
2.426197458455523
2.3489736070381237
2.270772238514174
2.1955034213098727
2.124144672531769
2.059628543499511
2.002932551319648
1.9550342130987293
1.9149560117302051
1.8826979472140764
1.8563049853372435
1.83088954056696
1.8074291300097751
1.7839687194525904
1.7605083088954057
1.7360703812316716
1.7116324535679377
1.6871945259042034
1.6627565982404693
1.6373411534701858
1.6109481915933528
1.5884652981427174
1.5679374389051808
1.5454545454545454
1.521016617790811
1.4965786901270772
1.4721407624633431
1.4486803519061584
1.4252199413489737
1.401759530791789
1.3792766373411536
1.3577712609970674
1.3362658846529814
1.3196480938416422
1.305962854349951
1.2913000977517106
1.2756598240469208
1.260019550342131
1.2453567937438903
1.2316715542521994
1.2189638318670577
1.2082111436950147
1.198435972629521
1.1886608015640274
1.1798631476050832
1.1720430107526882
1.1681329423264908
1.166177908113392
1.1612903225806452
1.1564027370478984
1.1505376344086022
1.144672531769306
1.1397849462365592
1.1358748778103618
1.1329423264907137
1.130987292277615
1.1300097751710656
1.1290322580645162
1.130987292277615
1.1348973607038124
1.1368523949169111
1.1378299120234605
1.13880742913001
1.1407624633431086
1.141739980449658
1.1436950146627567
1.144672531769306
1.1456500488758554
1.1456500488758554
1.1456500488758554
1.1456500488758554
1.1485826001955035
1.152492668621701
1.1544477028347997
1.155425219941349
1.155425219941349
1.1544477028347997
1.152492668621701
1.1485826001955035
1.1466275659824048
1.1495601173020529
1.164222873900293
1.195503421309873
1.2394916911045943
1.303030303030303
1.401759530791789
1.5327468230694037
1.6911045943304008
1.868035190615836
2.0527859237536656
2.232649071358749
2.398826979472141
2.544477028347996
2.665689149560117
2.7614858260019552
2.833822091886608
2.877810361681329
2.902248289345064
2.920821114369501
2.932551319648094
2.9393939393939394
2.943304007820137
2.9442815249266863
2.9442815249266863
2.9423264907135875
2.940371456500489
2.9374389051808407
2.932551319648094
2.921798631476051
2.906158357771261
2.8905180840664717
2.870967741935484
2.8455522971652005
2.811339198435973
2.76930596285435
2.718475073313783
2.656891495601173
2.5855327468230693
2.506353861192571
2.4222873900293256
2.335288367546432
2.257086999022483
2.185728250244379
2.112414467253177
2.043010752688172
1.981427174975562
1.9266862170087975
1.878787878787879
1.8377321603128052
1.801564027370479
1.76930596285435
1.7390029325513197
1.7096774193548387
1.6842619745845553
1.66177908113392
1.635386119257087
1.6080156402737047
1.5806451612903225
1.552297165200391
1.5239491691104594
1.4965786901270772
1.469208211143695
1.4428152492668622
1.41544477028348
1.3890518084066472
1.3626588465298142
1.3421309872922775
1.324535679374389
1.303030303030303
1.2805474095796676
1.2580645161290325
1.2365591397849462
1.2150537634408602
1.1945259042033236
1.1749755620723363
1.1573802541544478
1.1407624633431086
1.1241446725317692
1.1133919843597262
1.104594330400782
1.093841642228739
1.083088954056696
1.072336265884653
1.0625610948191593
1.0527859237536656
1.043010752688172
1.0342130987292275
1.0263929618768328
1.0195503421309873
1.0127077223851415
1.0058651026392962
1.002932551319648
1.0019550342130987
0.9990224828934506
0.9951124144672532
0.9902248289345064
0.9853372434017597
0.9804496578690128
0.9765395894428152
0.9726295210166178
0.9706744868035192
0.9696969696969696
0.9687194525904204
0.9706744868035192
0.9745845552297164
0.9765395894428152
0.9775171065493646
0.9775171065493646
0.9765395894428152
0.975562072336266
0.975562072336266
0.975562072336266
0.975562072336266
0.975562072336266
0.975562072336266
