ppg
1.0684261974584557
1.0654936461388074
1.0625610948191593
1.0596285434995112
1.056695992179863
1.053763440860215
1.053763440860215
1.0547409579667644
1.0518084066471165
1.04594330400782
1.0391006842619743
1.0312805474095796
1.0254154447702837
1.024437927663734
1.032258064516129
1.0547409579667644
1.0987292277614855
1.1681329423264908
1.2482893450635386
1.3450635386119256
1.4760508308895406
1.6314760508308896
1.8035190615835777
1.981427174975562
2.155425219941349
2.317693059628544
2.463343108504399
2.589442815249267
2.6959921798631474
2.782991202346041
2.8533724340175954
2.900293255131965
2.9315738025415445
2.961876832844575
2.9872922776148583
3.006842619745845
3.018572825024438
3.021505376344086
3.0146627565982405
2.997067448680352
2.9687194525904204
2.930596285434995
2.881720430107527
2.8269794721407626
2.766373411534702
2.6940371456500487
2.613880742913001
2.5288367546432062
2.4408602150537635
2.3528836754643208
2.267839687194526
2.1867057673509285
2.113391984359726
2.047898338220919
1.9902248289345064
1.9403714565004888
1.9012707722385145
1.868035190615836
1.835777126099707
1.8054740957966764
1.7761485826001957
1.7468230694037146
1.718475073313783
1.6901270772238517
1.6608015640273706
1.6304985337243405
1.5992179863147604
1.5679374389051808
1.5405669599217986
1.5141739980449658
1.4848484848484849
1.4535679374389052
1.4222873900293256
1.391006842619746
1.359726295210166
1.3294232649071358
1.300097751710655
1.2717497556207231
1.2453567937438903
1.219941348973607
1.1945259042033236
1.1759530791788857
1.1612903225806452
1.144672531769306
1.1270772238514175
1.1094819159335287
1.093841642228739
1.078201368523949
1.0635386119257086
1.050830889540567
1.0391006842619743
1.0303030303030305
1.0234604105571847
1.0205278592375366
1.0205278592375366
1.018572825024438
1.0166177908113392
1.0146627565982405
1.0127077223851415
1.010752688172043
1.0097751710654936
1.0087976539589445
1.007820136852395
1.0068426197458455
1.0068426197458455
1.0068426197458455
1.0097751710654936
1.0127077223851415
1.013685239491691
1.0127077223851415
1.0097751710654936
1.0068426197458455
1.0058651026392962
1.010752688172043
1.0273704789833822
1.06158357771261
1.1192570869990224
1.2043010752688172
1.2981427174975562
1.4066471163245358
1.547409579667644
1.7096774193548387
1.8826979472140764
2.056695992179863
2.222873900293255
2.3734115347018574
2.506353861192571
2.619745845552297
2.7145650048875853
2.791788856304985
2.852394916911046
2.8914956011730206
2.9159335288367547
2.93841642228739
2.956011730205278
2.9667644183773216
2.9696969696969697
2.962854349951124
2.946236559139785
2.918866080156403
2.8807429130009776
2.83088954056696
2.7702834799608995
2.7067448680351904
2.6392961876832843
2.5610948191593352
2.47702834799609
2.3900293255131966
2.302052785923754
2.217986314760508
2.1388074291300097
2.0684261974584555
2.006842619745845
1.964809384164223
1.9374389051808407
1.9071358748778104
1.8807429130009776
1.857282502443793
1.8328445747800584
1.8074291300097751
1.7820136852394917
1.7575757575757576
1.7331378299120237
1.70772238514174
1.6813294232649072
1.653958944281525
1.6256109481915937
1.5962854349951123
1.5698924731182795
1.5454545454545454
1.5180840664711632
1.4897360703812317
1.4623655913978495
1.4349951124144673
1.4086021505376345
1.383186705767351
1.3587487781036167
1.3362658846529814
1.3157380254154447
1.2961876832844574
1.281524926686217
1.2688172043010753
1.2531769305962854
1.238514173998045
1.2238514173998043
1.2101661779081134
1.1974584555229717
1.1857282502443791
1.1749755620723363
1.1652003910068427
1.1564027370478984
1.1495601173020529
1.142717497556207
1.1397849462365592
1.13880742913001
1.1358748778103618
1.1319648093841643
1.1280547409579669
1.1241446725317692
1.1221896383186705
1.1202346041055715
1.118279569892473
1.1163245356793745
1.1143695014662756
1.1133919843597262
1.1143695014662756
1.1163245356793745
1.115347018572825
1.1133919843597262
1.110459433040078
1.10752688172043
1.1055718475073313
1.1094819159335287
1.121212121212121
1.1466275659824048
1.1896383186705768
1.2561094819159335
1.3479960899315735
1.4467253176930597
1.5562072336265884
1.694037145650049
1.847507331378299
2.005865102639296
2.160312805474096
2.304985337243402
2.4349951124144678
2.5464320625610948
2.6402737047898337
2.716520039100684
2.777126099706745
2.817204301075269
2.8426197458455524
2.865102639296188
2.8826979472140764
2.89345063538612
2.897360703812317
2.8944281524926687
2.881720430107527
2.859237536656892
2.825024437927664
2.780058651026393
2.7253176930596283
2.66177908113392
2.598240469208211
2.532746823069404
2.4594330400782014
2.3822091886608017
2.3059628543499517
2.231671554252199
2.161290322580645
2.0987292277614857
2.043010752688172
1.994134897360704
1.9521016617790807
1.9159335288367547
1.8866080156402736
1.8621700879765395
1.8387096774193548
1.81524926686217
1.790811339198436
1.7663734115347018
1.7429130009775171
1.718475073313783
1.6920821114369502
1.664711632453568
1.6373411534701858
1.608993157380254
1.5796676441837731
1.555229716520039
1.5327468230694037
1.5053763440860215
1.4760508308895406
1.447702834799609
1.4203323558162269
1.393939393939394
1.3685239491691104
1.3450635386119256
1.3235581622678396
1.303030303030303
1.2834799608993157
1.2688172043010753
1.2570869990224829
1.2443792766373412
1.23069403714565
1.217008797653959
1.2052785923753666
1.1945259042033236
1.18475073313783
1.176930596285435
1.1700879765395895
1.163245356793744
1.1564027370478984
1.1505376344086022
1.1495601173020529
1.1495601173020529
1.1485826001955035
1.1466275659824048
1.144672531769306
1.142717497556207
1.141739980449658
1.1397849462365592
1.1378299120234605
1.1368523949169111
1.1348973607038124
1.133919843597263
1.1358748778103618
1.13880742913001
1.1397849462365592
1.13880742913001
1.1378299120234605
1.1378299120234605
1.141739980449658
1.1544477028347997
1.1827956989247312
1.2316715542521994
1.3049853372434017
1.404692082111437
1.5288367546432062
1.6520039100684265
1.7781036168132942
1.9266862170087975
2.083088954056696
2.2355816226783967
2.378299120234604
2.505376344086021
2.6148582600195502
2.7067448680351904
2.7810361681329425
2.8396871945259043
2.8856304985337244
2.913978494623656
2.930596285434995
2.945259042033236
2.9550342130987293
2.9579667644183774
2.9530791788856305
2.93841642228739
2.913978494623656
2.878787878787879
2.832844574780059
2.777126099706745
2.7126099706744866
2.6402737047898337
2.56891495601173
2.498533724340176
2.420332355816227
2.3411534701857284
2.2639296187683287
2.1915933528836757
2.126099706744868
2.067448680351906
2.016617790811339
1.9716520039100685
1.9335288367546437
1.900293255131965
1.873900293255132
1.8514173998044965
1.827956989247312
1.804496578690127
1.7810361681329423
1.7565982404692082
1.7302052785923754
1.7028347996089932
1.6744868035190617
1.64613880742913
1.616813294232649
1.5865102639296187
1.5562072336265884
1.530791788856305
1.5083088954056696
1.482893450635386
1.456500488758553
1.4301075268817205
1.404692082111437
1.3792766373411536
1.3558162267839686
1.3333333333333333
1.3128054740957966
1.2942326490713587
1.2766373411534702
1.2639296187683284
1.2541544477028348
1.241446725317693
1.2287390029325511
1.217008797653959
1.2052785923753666
1.195503421309873
1.1857282502443791
1.176930596285435
1.1691104594330402
1.1622678396871946
1.155425219941349
1.1495601173020529
1.147605083088954
1.147605083088954
1.1466275659824048
1.1456500488758554
1.144672531769306
1.1456500488758554
1.1466275659824048
1.1485826001955035
1.1515151515151516
1.155425219941349
1.160312805474096
1.166177908113392
1.1730205278592376
1.1788856304985338
1.181818181818182
1.181818181818182
1.155425219941349
1.1143695014662756
1.0948191593352885
1.0928641251221896
1.1094819159335287
1.1495601173020529
1.2160312805474096
1.3098729227761483
1.4105571847507332
1.521994134897361
1.66177908113392
1.8162267839687196
1.9745845552297163
2.129032258064516
2.2737047898338223
2.403714565004888
2.5180840664711632
2.616813294232649
2.7008797653958942
2.773216031280548
2.8367546432062563
2.881720430107527
2.9149560117302054
2.949169110459433
2.9804496578690127
3.005865102639296
3.022482893450636
3.0283479960899315
3.021505376344086
3.0
2.962854349951124
2.9100684261974585
2.8426197458455524
2.771260997067449
2.695014662756598
2.606060606060606
2.509286412512219
2.4115347018572826
2.3167155425219943
2.2277614858260018
2.146627565982405
2.0762463343108504
2.01564027370479
1.964809384164223
1.920821114369501
1.884652981427175
1.8563049853372435
1.8318670576735088
1.8064516129032255
1.7810361681329423
1.7565982404692082
1.7311827956989247
1.7057673509286413
1.6803519061583578
1.6549364613880744
1.629521016617791
1.6021505376344083
1.573802541544477
1.5493646138807429
1.5268817204301075
1.499511241446725
1.4701857282502444
1.439882697947214
1.409579667644184
1.380254154447703
1.3509286412512218
1.3206256109481915
1.2903225806451613
1.2609970674486803
1.2316715542521994
1.2023460410557183
1.1788856304985338
1.1593352883675463
1.1368523949169111
1.1133919843597262
1.0909090909090908
1.0703812316715542
1.0518084066471165
1.0361681329423265
1.021505376344086
1.0097751710654936
1.0009775171065494
0.9951124144672532
0.9941348973607038
0.997067448680352
0.9990224828934506
1.0009775171065494
1.0039100684261977
1.007820136852395
1.0127077223851415
1.0175953079178883
1.021505376344086
1.0254154447702837
1.0283479960899315
1.0303030303030305
1.0303030303030305
1.032258064516129
1.035190615835777
1.0361681329423265
1.040078201368524
1.050830889540567
1.0742913000977516
1.118279569892473
1.187683284457478
1.284457478005865
1.4076246334310851
1.5542521994134897
1.7174975562072337
1.866080156402737
2.003910068426197
2.1544477028347995
2.3010752688172045
2.4359726295210167
2.5532746823069403
2.6529814271749754
2.736070381231672
2.8025415444770285
2.8563049853372435
2.898338220918866
2.929618768328446
2.951124144672532
2.959921798631476
2.9579667644183774
2.951124144672532
2.9374389051808407
2.9149560117302054
2.8826979472140764
2.838709677419355
2.782991202346041
2.717497556207233
2.643206256109482
2.5620723362658846
2.4780058651026398
2.40078201368524
2.3284457478005867
2.2531769305962857
2.1788856304985336
2.110459433040078
2.046920821114369
1.9902248289345064
1.9413489736070384
1.8993157380254155
1.8621700879765395
1.828934506353861
1.7986314760508308
1.76930596285435
1.7448680351906158
1.721407624633431
1.6959921798631477
1.6686217008797657
1.6392961876832846
1.6099706744868034
1.5796676441837731
1.5483870967741935
1.517106549364614
1.4848484848484849
1.452590420332356
1.4213098729227762
1.3958944281524928
1.3734115347018572
1.3479960899315735
1.321603128054741
1.2961876832844574
1.2717497556207231
1.2482893450635386
1.2267839687194526
1.2072336265884651
1.1896383186705768
1.1730205278592376
1.1564027370478984
1.1407624633431086
1.1300097751710656
1.121212121212121
1.1114369501466277
1.1006842619745845
1.0909090909090908
1.0801564027370478
1.0703812316715542
1.06158357771261
1.053763440860215
1.0469208211143697
1.0410557184750733
1.035190615835777
1.0332355816226784
1.0342130987292275
1.0342130987292275
1.0332355816226784
1.032258064516129
1.0303030303030305
1.0283479960899315
1.0273704789833822
1.0263929618768328
1.0254154447702837
1.0234604105571847
1.021505376344086
1.0205278592375366
1.021505376344086
1.0254154447702837
1.032258064516129
1.04594330400782
1.0742913000977516
1.1241446725317692
1.1994134897360704
1.3040078201368523
1.435972629521017
1.590420332355816
1.7605083088954057
1.9374389051808407
2.090909090909091
2.225806451612903
2.366568914956012
2.498533724340176
2.6158357771261
2.7145650048875853
2.795698924731183
2.8611925708699903
2.9120234604105573
2.952101661779081
2.981427174975562
3.0009775171065494
3.006842619745845
3.002932551319648
2.995112414467253
2.9804496578690127
2.956989247311828
2.9227761485826003
2.877810361681329
2.8211143695014664
2.7546432062561097
2.679374389051808
2.5972629521016617
2.5102639296187683
2.421309872922776
2.3411534701857284
2.267839687194526
2.193548387096774
2.1221896383186705
2.056695992179863
1.9990224828934504
1.9501466275659824
1.9071358748778104
1.870967741935484
1.839687194525904
1.8103616813294232
1.782991202346041
1.7595307917888563
1.737047898338221
1.7116324535679377
1.683284457478006
1.6529814271749756
1.6207233626588464
1.5884652981427174
1.5562072336265884
1.52297165200391
1.4897360703812317
1.457478005865103
1.4271749755620724
1.396871945259042
1.3734115347018572
1.3519061583577712
1.327468230694037
1.3010752688172045
1.2756598240469208
1.2502443792766371
1.2267839687194526
1.2052785923753666
1.18475073313783
1.166177908113392
1.1485826001955035
1.1329423264907137
1.121212121212121
1.1124144672531768
1.1026392961876832
1.0928641251221896
1.0840664711632453
1.0762463343108504
1.0694037145650048
1.0635386119257086
1.0576735092864125
1.0527859237536656
1.0478983382209188
1.043010752688172
1.0391006842619743
1.0391006842619743
1.040078201368524
1.0391006842619743
1.0381231671554252
1.0371456500488758
1.035190615835777
1.0342130987292275
1.0342130987292275
1.0332355816226784
1.032258064516129
1.0303030303030305
1.0273704789833822
1.0273704789833822
1.029325513196481
1.0332355816226784
1.043010752688172
1.0654936461388074
1.1065493646138806
1.1720430107526882
1.2639296187683284
1.3812316715542523
1.521016617790811
1.6793743890518085
1.847507331378299
2.016617790811339
2.1593352883675463
2.281524926686217
2.404692082111437
2.5190615835777126
2.616813294232649
2.697947214076246
2.763440860215054
2.8152492668621703
2.855327468230694
2.8856304985337244
2.906158357771261
2.918866080156403
2.917888563049853
2.90811339198436
2.89247311827957
2.868035190615836
2.834799608993157
2.791788856304985
2.7370478983382207
2.6725317693059627
2.60019550342131
2.5210166177908118
2.436950146627566
2.3519061583577714
2.2668621700879767
2.193548387096774
2.1280547409579667
2.0635386119257086
2.003910068426197
1.951124144672532
1.9042033235581624
1.8641251221896384
1.8299120234604105
1.8005865102639296
1.7732160312805474
1.747800586510264
1.7223851417399805
1.699902248289345
1.6793743890518085
1.6559139784946235
1.6304985337243405
1.603128054740958
1.5747800586510263
1.5454545454545454
1.5151515151515151
1.4848484848484849
1.4535679374389052
1.423264907135875
1.393939393939394
1.364613880742913
1.3411534701857282
1.321603128054741
1.2991202346041055
1.2766373411534702
1.2541544477028348
1.2316715542521994
1.2111436950146628
1.1906158357771262
1.1710654936461389
1.152492668621701
1.1358748778103618
1.121212121212121
1.1114369501466277
1.1055718475073313
1.0977517106549364
1.088954056695992
1.0801564027370478
1.072336265884653
1.0654936461388074
1.0596285434995112
1.053763440860215
1.0488758553274682
1.0439882697947214
1.040078201368524
1.0371456500488758
1.0381231671554252
1.040078201368524
1.0410557184750733
1.0410557184750733
1.0410557184750733
1.040078201368524
1.0391006842619743
1.0361681329423265
1.0332355816226784
1.0303030303030305
1.0263929618768328
1.024437927663734
1.0263929618768328
1.0342130987292275
1.0498533724340176
1.0791788856304985
1.126099706744868
1.1974584555229717
1.2961876832844574
1.4203323558162269
1.5669599217986314
1.729227761485826
1.8993157380254155
2.0684261974584555
2.228739002932551
2.356793743890518
2.4613880742913
2.563049853372434
2.653958944281525
2.730205278592375
2.792766373411535
2.8406647116324537
2.877810361681329
2.9042033235581624
2.921798631476051
2.930596285434995
2.929618768328446
2.916911045943304
2.895405669599218
2.866080156402737
2.827956989247312
2.7810361681329425
2.7233626588465296
2.656891495601173
2.5835777126099706
2.505376344086021
2.423264907135875
2.3391984359726297
2.257086999022483
2.179863147605083
2.114369501466276
2.0576735092864125
2.003910068426197
1.95405669599218
1.9100684261974583
1.871945259042033
1.8387096774193548
1.8093841642228736
1.7810361681329423
1.75366568914956
1.726295210166178
1.699902248289345
1.6764418377321604
1.653958944281525
1.6275659824046922
1.6001955034213098
1.5718475073313782
1.541544477028348
1.512218963831867
1.482893450635386
1.4545454545454546
1.4252199413489737
1.3958944281524928
1.367546432062561
1.3440860215053765
1.3235581622678396
1.300097751710655
1.2766373411534702
1.2531769305962854
1.2316715542521994
1.2111436950146628
1.1906158357771262
1.1720430107526882
1.155425219941349
1.1397849462365592
1.126099706744868
1.1143695014662756
1.10752688172043
1.1026392961876832
1.0948191593352885
1.0869990224828934
1.0791788856304985
1.0713587487781036
1.064516129032258
1.0586510263929618
1.0527859237536656
1.0478983382209188
1.0449657869012707
1.043010752688172
1.0449657869012707
1.0478983382209188
1.0478983382209188
1.0478983382209188
1.0469208211143697
1.04594330400782
1.0449657869012707
1.0439882697947214
1.0420332355816226
1.040078201368524
1.0391006842619743
1.0381231671554252
1.0410557184750733
1.0498533724340176
1.0684261974584557
1.1006842619745845
1.1534701857282503
1.2316715542521994
1.3372434017595307
1.4682306940371457
1.619745845552297
1.7859237536656891
1.956989247311828
2.1251221896383186
2.2825024437927666
2.406647116324536
2.506353861192571
2.6041055718475072
2.6911045943304006
2.7653958944281527
2.8406647116324537
2.911045943304008
2.959921798631476
2.9931573802541545
3.0146627565982405
3.0254154447702835
3.027370478983382
3.0195503421309877
3.0019550342130987
2.9745845552297165
2.940371456500489
2.898338220918866
2.84652981427175
2.7859237536656893
2.717497556207233
2.643206256109482
2.563049853372434
2.4789833822091887
2.393939393939394
2.3098729227761488
2.2375366568914954
2.172043010752688
2.1065493646138806
2.0439882697947214
1.9872922776148585
1.9374389051808407
1.8934506353861196
1.8543499511241448
1.818181818181818
1.782991202346041
1.747800586510264
1.7135874877810362
1.6803519061583578
1.6529814271749756
1.6275659824046922
1.6001955034213098
1.5718475073313782
1.543499511241447
1.5161290322580645
1.490713587487781
1.4682306940371457
1.447702834799609
1.4301075268817205
1.41544477028348
1.404692082111437
1.3978494623655917
1.392961876832845
1.3870967741935485
1.3782991202346042
1.367546432062561
1.35386119257087
1.33822091886608
1.3196480938416422
1.2991202346041055
1.2756598240469208
1.2502443792766371
1.2228739002932552
1.195503421309873
1.1720430107526882
1.152492668621701
1.1300097751710656
1.10752688172043
1.086021505376344
1.0664711632453567
1.050830889540567
1.0391006842619743
1.0312805474095796
1.0273704789833822
1.0254154447702837
1.0263929618768328
1.032258064516129
1.0410557184750733
1.050830889540567
1.0625610948191593
1.075268817204301
1.088954056695992
1.1016617790811338
1.1133919843597262
1.1221896383186705
1.1280547409579669
1.1319648093841643
1.1358748778103618
1.1436950146627567
1.1583577712609971
1.18475073313783
1.2287390029325511
1.2971652003910068
1.391006842619746
1.5102639296187683
1.6490713587487782
1.8025415444770283
1.9618768328445748
2.1192570869990224
2.2668621700879767
2.398826979472141
2.4995112414467253
2.5777126099706744
2.6510263929618767
2.7145650048875853
2.7653958944281527
2.8044965786901277
2.832844574780059
2.850439882697948
2.860215053763441
2.8611925708699903
2.8533724340175954
2.835777126099707
2.807429130009776
2.771260997067449
2.727272727272727
2.6725317693059627
2.6080156402737047
2.535679374389052
2.4574780058651027
2.3743890518084068
2.290322580645161
2.2082111436950145
2.1300097751710654
2.0576735092864125
1.992179863147605
1.9403714565004888
1.8973607038123168
1.857282502443793
1.822091886608016
1.7898338220918866
1.761485826001955
1.7350928641251222
1.710654936461388
1.686217008797654
1.66177908113392
1.6363636363636365
1.6099706744868034
1.5826001955034212
1.5571847507331378
1.533724340175953
1.5063538611925709
1.47702834799609
1.4467253176930597
1.4164222873900294
1.3861192570869991
1.3558162267839686
1.3264907135874875
1.2991202346041055
1.273704789833822
1.2502443792766371
1.2316715542521994
1.2160312805474096
1.198435972629521
1.1798631476050832
1.1622678396871946
1.1456500488758554
1.1290322580645162
1.1133919843597262
1.0987292277614855
1.0850439882697946
1.072336265884653
1.06158357771261
1.050830889540567
1.0449657869012707
1.0410557184750733
1.035190615835777
1.029325513196481
1.0234604105571847
1.018572825024438
1.0127077223851415
1.007820136852395
1.0039100684261977
1.0
0.9960899315738024
0.9931573802541545
0.9941348973607038
0.997067448680352
0.997067448680352
0.9960899315738024
0.9951124144672532
0.9931573802541545
0.989247311827957
0.9863147605083088
0.9824046920821116
0.9804496578690128
0.981427174975562
0.9902248289345064
1.007820136852395
1.040078201368524
1.093841642228739
1.173998044965787
1.2834799608993157
1.4193548387096775
1.5777126099706744
1.7517106549364614
1.9335288367546437
2.112414467253177
2.280547409579668
2.434017595307918
2.567937438905181
2.667644183773216
2.742913000977517
2.8132942326490715
2.875855327468231
2.927663734115347
2.9687194525904204
3.0009775171065494
3.024437927663734
3.0391006842619745
3.04594330400782
3.043010752688172
3.029325513196481
3.005865102639296
2.972629521016618
2.929618768328446
2.87683284457478
2.812316715542522
2.73802541544477
2.6559139784946235
2.567937438905181
2.47702834799609
2.386119257086999
2.297165200391007
2.2130987292277613
2.134897360703812
2.070381231671554
2.016617790811339
1.964809384164223
1.9178885630498532
1.8748778103616808
1.836754643206256
1.8025415444770283
1.7712609970674489
1.7419354838709675
1.7135874877810362
1.686217008797654
1.6588465298142718
1.635386119257087
1.611925708699902
1.58455522971652
1.5542521994134897
1.521016617790811
1.4868035190615836
1.452590420332356
1.418377321603128
1.3851417399804498
1.3528836754643203
1.3225806451612905
1.2942326490713587
1.2658846529814272
1.2443792766373412
1.2258064516129032
1.2052785923753666
1.18475073313783
1.1652003910068427
1.1466275659824048
1.1290322580645162
1.1124144672531768
1.0977517106549364
1.0840664711632453
1.0703812316715542
1.0625610948191593
1.0625610948191593
1.06158357771261
1.0576735092864125
1.0527859237536656
1.0478983382209188
1.043010752688172
1.0381231671554252
1.0332355816226784
1.0283479960899315
1.024437927663734
1.021505376344086
1.018572825024438
1.0156402737047898
1.0156402737047898
1.0166177908113392
1.0146627565982405
1.0127077223851415
1.0097751710654936
1.0068426197458455
1.0048875855327468
1.002932551319648
1.0009775171065494
1.0009775171065494
1.0058651026392962
1.0205278592375366
1.0449657869012707
1.083088954056696
1.1456500488758554
1.2355816226783969
1.3519061583577712
1.4916911045943304
1.651026392961877
1.822091886608016
1.9931573802541545
2.157380254154448
2.3088954056695994
2.443792766373412
2.5591397849462365
2.644183773216031
2.70772238514174
2.7673509286412514
2.819159335288368
2.8611925708699903
2.89345063538612
2.916911045943304
2.9315738025415445
2.936461388074292
2.932551319648094
2.918866080156403
2.895405669599218
2.8641251221896384
2.825024437927664
2.7751710654936463
2.716520039100684
2.649071358748778
2.573802541544477
2.49266862170088
2.407624633431085
2.3225806451612905
2.239491691104594
2.160312805474096
2.0879765395894427
2.0234604105571847
1.9716520039100685
1.9286412512218964
1.8866080156402736
1.8484848484848484
1.8142717497556209
1.782991202346041
1.75366568914956
1.7253176930596286
1.6989247311827955
