ppg
1.2072336265884651
1.1505376344086022
1.1143695014662756
1.096774193548387
1.093841642228739
1.104594330400782
1.1251221896383188
1.1544477028347997
1.1896383186705768
1.227761485826002
1.2668621700879763
1.3040078201368523
1.3372434017595307
1.3665689149560116
1.3890518084066472
1.4056695992179864
1.4164222873900294
1.4222873900293256
1.4222873900293256
1.4173998044965788
1.409579667644184
1.3988269794721409
1.3822091886608017
1.3607038123167154
1.335288367546432
1.3079178885630498
1.278592375366569
1.249266862170088
1.2189638318670577
1.1935483870967742
1.1700879765395895
1.141739980449658
1.1114369501466277
1.0850439882697946
1.0694037145650048
1.072336265884653
1.1036168132942326
1.1720430107526882
1.2825024437927663
1.434017595307918
1.6217008797653958
1.8025415444770283
1.9794721407624636
2.1788856304985336
2.375366568914956
2.552297165200391
2.6989247311827955
2.8103616813294234
2.8856304985337244
2.9257086999022484
2.935483870967742
2.917888563049853
2.87683284457478
2.8240469208211145
2.7595307917888565
2.678396871945259
2.5835777126099706
2.4780058651026398
2.361681329423265
2.2385141739980448
2.1094819159335287
1.9765395894428155
1.8435972629521016
1.7135874877810362
1.590420332355816
1.47702834799609
1.388074291300098
1.3176930596285434
1.2531769305962854
1.2013685239491692
1.1652003910068427
1.144672531769306
1.1397849462365592
1.1485826001955035
1.1681329423264908
1.195503421309873
1.227761485826002
1.2639296187683284
1.2971652003910068
1.327468230694037
1.3577712609970674
1.3851417399804498
1.4076246334310851
1.4252199413489737
1.436950146627566
1.4418377321603129
1.439882697947214
1.4320625610948192
1.4193548387096775
1.401759530791789
1.380254154447703
1.3607038123167154
1.3411534701857282
1.3147605083088951
1.2854349951124144
1.2541544477028348
1.2218963831867058
1.1886608015640274
1.1544477028347997
1.1192570869990224
1.0869990224828934
1.0625610948191593
1.0547409579667644
1.0654936461388074
1.1016617790811338
1.1759530791788857
1.2932551319648091
1.452590420332356
1.64613880742913
1.8631476050830889
2.0879765395894427
2.304007820136853
2.498533724340176
2.662756598240469
2.790811339198436
2.8807429130009776
2.930596285434995
2.949169110459433
2.946236559139785
2.921798631476051
2.877810361681329
2.81622678396872
2.7390029325513194
2.649071358748778
2.547409579667644
2.4359726295210167
2.3167155425219943
2.190615835777126
2.075268817204301
1.9657869012707725
1.844574780058651
1.7204301075268815
1.6001955034213098
1.4887585532746823
1.3900293255131966
1.3069403714565004
1.2404692082111437
1.1915933528836755
1.160312805474096
1.144672531769306
1.1436950146627567
1.1534701857282503
1.1710654936461389
1.1964809384164223
1.2267839687194526
1.2590420332355816
1.2913000977517106
1.3225806451612905
1.3499511241446724
1.3734115347018572
1.391006842619746
1.4037145650048877
1.4105571847507332
1.414467253176931
1.414467253176931
1.4076246334310851
1.3958944281524928
1.3792766373411536
1.3587487781036167
1.3343108504398826
1.3069403714565004
1.2776148582600195
1.2482893450635386
1.217008797653959
1.1857282502443791
1.152492668621701
1.126099706744868
1.1026392961876832
1.0772238514173995
1.056695992179863
1.0518084066471165
1.0703812316715542
1.1231671554252198
1.217008797653959
1.35386119257087
1.5298142717497556
1.7350928641251222
1.9560117302052784
2.1485826001955037
2.317693059628544
2.487781036168133
2.6392961876832843
2.7614858260019552
2.849462365591398
2.902248289345064
2.9237536656891496
2.916911045943304
2.8856304985337244
2.833822091886608
2.7653958944281527
2.6823069403714563
2.598240469208211
2.509286412512219
2.404692082111437
2.2883675464320627
2.163245356793744
2.0332355816226784
1.9012707722385145
1.7712609970674489
1.64613880742913
1.5288367546432062
1.4242424242424243
1.3343108504398826
1.267839687194526
1.219941348973607
1.1798631476050832
1.1534701857282503
1.1407624633431086
1.141739980449658
1.1544477028347997
1.1759530791788857
1.203323558162268
1.2346041055718475
1.267839687194526
1.300097751710655
1.3294232649071358
1.35386119257087
1.3743890518084063
1.3919843597262953
1.404692082111437
1.412512218963832
1.414467253176931
1.4115347018572826
1.4027370478983383
1.3890518084066472
1.370478983382209
1.3479960899315735
1.3225806451612905
1.300097751710655
1.278592375366569
1.2512218963831867
1.2218963831867058
1.1896383186705768
1.1564027370478984
1.1221896383186705
1.088954056695992
1.0625610948191593
1.0488758553274682
1.056695992179863
1.0957966764418376
1.1749755620723363
1.273704789833822
1.3988269794721409
1.5708699902248289
1.7741935483870968
1.9931573802541545
2.210166177908113
2.410557184750733
2.5835777126099706
2.7223851417399803
2.8240469208211145
2.8885630498533725
2.919843597262952
2.921798631476051
2.900293255131965
2.860215053763441
2.8025415444770285
2.730205278592375
2.644183773216031
2.5464320625610948
2.4389051808406648
2.32355816226784
2.20039100684262
2.072336265884653
1.9413489736070384
1.8113391984359728
1.7008797653958945
1.603128054740958
1.5024437927663734
1.4076246334310851
1.324535679374389
1.2570869990224829
1.206256109481916
1.1720430107526882
1.1534701857282503
1.1505376344086022
1.152492668621701
1.1612903225806452
1.1798631476050832
1.2043010752688172
1.2336265884652982
1.2649071358748778
1.295210166177908
1.3235581622678396
1.3479960899315735
1.367546432062561
1.3812316715542523
1.3890518084066472
1.391006842619746
1.3870967741935485
1.3822091886608017
1.3734115347018572
1.3577712609970674
1.3372434017595307
1.313782991202346
1.2864125122189638
1.2570869990224829
1.2258064516129032
1.1935483870967742
1.160312805474096
1.126099706744868
1.0909090909090908
1.056695992179863
1.032258064516129
1.018572825024438
1.0156402737047898
1.035190615835777
1.088954056695992
1.1837732160312806
1.321603128054741
1.499511241446725
1.70772238514174
1.9335288367546437
2.1593352883675463
2.3704789833822093
2.5347018572825024
2.659824046920821
2.7702834799608995
2.8533724340175954
2.905180840664712
2.9257086999022484
2.918866080156403
2.887585532746823
2.8367546432062563
2.768328445747801
2.6852394916911044
2.589442815249267
2.482893450635386
2.3812316715542523
2.2795698924731185
2.1622678396871944
2.035190615835777
1.903225806451613
1.7712609970674489
1.6441837732160314
1.5239491691104594
1.41544477028348
1.321603128054741
1.2443792766373412
1.18475073313783
1.147605083088954
1.1270772238514175
1.1173020527859236
1.118279569892473
1.1300097751710656
1.1505376344086022
1.176930596285435
1.2072336265884651
1.2394916911045943
1.270772238514174
1.300097751710655
1.3255131964809383
1.346041055718475
1.3616813294232648
1.3724340175953078
1.3773216031280548
1.3782991202346042
1.3743890518084063
1.364613880742913
1.3509286412512218
1.332355816226784
1.3098729227761483
1.284457478005865
1.2570869990224829
1.227761485826002
1.2023460410557183
1.1798631476050832
1.1515151515151516
1.1202346041055715
1.0869990224828934
1.0547409579667644
1.0283479960899315
1.0156402737047898
1.0254154447702837
1.0684261974584557
1.1515151515151516
1.2795698924731185
1.4496578690127078
1.6217008797653958
1.7996089931573802
2.0097751710654936
2.225806451612903
2.429130009775171
2.6050830889540566
2.7468230694037143
2.8514173998044967
2.917888563049853
2.9501466275659824
2.9530791788856305
2.929618768328446
2.889540566959922
2.835777126099707
2.7653958944281527
2.681329423264907
2.5865102639296187
2.4809384164222874
2.366568914956012
2.2453567937438903
2.117302052785924
1.9853372434017595
1.8533724340175952
1.7233626588465298
1.6001955034213098
1.500488758553275
1.4173998044965788
1.3372434017595307
1.267839687194526
1.2130987292277615
1.1749755620723363
1.1534701857282503
1.1466275659824048
1.1534701857282503
1.1700879765395895
1.1935483870967742
1.2218963831867058
1.2502443792766371
1.278592375366569
1.3079178885630498
1.335288367546432
1.3587487781036167
1.3782991202346042
1.3919843597262953
1.4007820136852396
1.4037145650048877
1.4007820136852396
1.392961876832845
1.3792766373411536
1.3616813294232648
1.3450635386119256
1.327468230694037
1.3040078201368523
1.2766373411534702
1.2473118279569892
1.217008797653959
1.1857282502443791
1.152492668621701
1.118279569892473
1.086021505376344
1.0606060606060606
1.0478983382209188
1.050830889540567
1.078201368523949
1.1397849462365592
1.2434017595307918
1.3890518084066472
1.573802541544477
1.7859237536656891
2.010752688172043
2.232649071358749
2.4379276637341154
2.6158357771261
2.758553274682307
2.8641251221896384
2.9266862170087977
2.956011730205278
2.963831867057673
2.949169110459433
2.913000977517106
2.859237536656892
2.789833822091887
2.7067448680351904
2.6129032258064515
2.5083088954056696
2.3958944281524928
2.2766373411534704
2.1652003910068425
2.0576735092864125
1.9374389051808407
1.812316715542522
1.6881720430107527
1.5708699902248289
1.4643206256109482
1.370478983382209
1.2932551319648091
1.2326490713587488
1.1906158357771262
1.166177908113392
1.1564027370478984
1.1593352883675463
1.1720430107526882
1.1925708699902249
1.2189638318670577
1.2482893450635386
1.278592375366569
1.3079178885630498
1.3343108504398826
1.356793743890518
1.3734115347018572
1.3851417399804498
1.391006842619746
1.393939393939394
1.3919843597262953
1.3841642228739004
1.3714565004887584
1.35386119257087
1.3313782991202343
1.305962854349951
1.2776148582600195
1.2473118279569892
1.2160312805474096
1.1827956989247312
1.1495601173020529
1.121212121212121
1.0957966764418376
1.064516129032258
1.0332355816226784
1.007820136852395
0.9960899315738024
1.007820136852395
1.053763440860215
1.141739980449658
1.273704789833822
1.447702834799609
1.653958944281525
1.8797653958944285
2.0791788856304985
2.2561094819159337
2.436950146627566
2.60019550342131
2.7331378299120237
2.831867057673509
2.8944281524926687
2.9237536656891496
2.9237536656891496
2.897360703812317
2.849462365591398
2.7839687194525906
2.7116324535679373
2.632453567937439
2.5376344086021505
2.4301075268817205
2.312805474095797
2.1915933528836757
2.067448680351906
1.9374389051808407
1.8074291300097751
1.6803519061583578
1.560117302052786
1.4516129032258065
1.3558162267839686
1.284457478005865
1.2326490713587488
1.1886608015640274
1.1573802541544478
1.1397849462365592
1.1368523949169111
1.1456500488758554
1.164222873900293
1.1896383186705768
1.2189638318670577
1.2502443792766371
1.281524926686217
1.3088954056695992
1.332355816226784
1.3528836754643203
1.3695014662756595
1.380254154447703
1.3861192570869991
1.3861192570869991
1.3812316715542523
1.370478983382209
1.3558162267839686
1.3372434017595307
1.3147605083088951
1.289345063538612
1.267839687194526
1.2473118279569892
1.2218963831867058
1.1945259042033236
1.166177908113392
1.1368523949169111
1.1065493646138806
1.0772238514173995
1.0527859237536656
1.0391006842619743
1.0449657869012707
1.0801564027370478
1.1358748778103618
1.219941348973607
1.3509286412512218
1.52297165200391
1.726295210166178
1.946236559139785
2.166177908113392
2.3734115347018574
2.555229716520039
2.7038123167155423
2.814271749755621
2.887585532746823
2.9266862170087977
2.9335288367546437
2.916911045943304
2.8807429130009776
2.8260019550342133
2.755620723362659
2.6725317693059627
2.576735092864125
2.4711632453567938
2.355816226783969
2.233626588465298
2.104594330400782
1.9726295210166176
1.8563049853372435
1.750733137829912
1.6373411534701858
1.5268817204301075
1.4252199413489737
1.3372434017595307
1.2658846529814272
1.2130987292277615
1.1779081133919844
1.160312805474096
1.1583577712609971
1.1691104594330402
1.1896383186705768
1.2150537634408602
1.2424242424242424
1.273704789833822
1.3049853372434017
1.335288367546432
1.3616813294232648
1.383186705767351
1.3998044965786902
1.4105571847507332
1.414467253176931
1.4134897360703813
1.4076246334310851
1.3998044965786902
1.3900293255131966
1.3743890518084063
1.35386119257087
1.3294232649071358
1.303030303030303
1.2746823069403714
1.24633431085044
1.2179863147605083
1.1886608015640274
1.1583577712609971
1.1280547409579669
1.0977517106549364
1.0762463343108504
1.0635386119257086
1.06158357771261
1.083088954056696
1.1368523949169111
1.2316715542521994
1.3695014662756595
1.5464320625610948
1.7526881720430108
1.9745845552297163
2.196480938416422
2.403714565004888
2.5650048875855327
2.687194525904203
2.7947214076246336
2.874877810361681
2.924731182795699
2.9442815249266863
2.9374389051808407
2.906158357771261
2.855327468230694
2.787878787878788
2.7067448680351904
2.613880742913001
2.5112414467253177
2.412512218963832
2.312805474095797
2.198435972629521
2.075268817204301
1.9472140762463344
1.818181818181818
1.6930596285434996
1.5747800586510263
1.4672531769305963
1.3734115347018572
1.2961876832844574
1.2365591397849462
1.198435972629521
1.176930596285435
1.166177908113392
1.1671554252199414
1.1779081133919844
1.1974584555229717
1.2238514173998043
1.2541544477028348
1.2854349951124144
1.316715542521994
1.346041055718475
1.370478983382209
1.3900293255131966
1.4037145650048877
1.4115347018572826
1.4134897360703813
1.409579667644184
1.3988269794721409
1.383186705767351
1.3626588465298142
1.33822091886608
1.310850439882698
1.2805474095796676
1.249266862170088
1.217008797653959
1.1896383186705768
1.1652003910068427
1.1378299120234605
1.1133919843597262
1.099706744868035
1.1055718475073313
1.1407624633431086
1.2121212121212122
1.3235581622678396
1.474095796676442
1.6559139784946235
1.858260019550342
2.0664711632453567
2.242424242424242
2.3900293255131966
2.5347018572825024
2.656891495601173
2.7497556207233624
2.8103616813294234
2.8396871945259043
2.8396871945259043
2.814271749755621
2.7673509286412514
2.702834799608993
2.6236559139784945
2.5434995112414467
2.4574780058651027
2.355816226783969
2.242424242424242
2.120234604105572
1.991202346041056
1.8592375366568916
1.7282502443792769
1.6021505376344083
1.4838709677419355
1.3773216031280548
1.2854349951124144
1.217008797653959
1.1691104594330402
1.1300097751710656
1.1036168132942326
1.0918866080156402
1.093841642228739
1.1065493646138806
1.1290322580645162
1.1573802541544478
1.1886608015640274
1.219941348973607
1.2502443792766371
1.2766373411534702
1.2991202346041055
1.3176930596285434
1.332355816226784
1.3421309872922775
1.3470185728250244
1.3470185728250244
1.343108504398827
1.335288367546432
1.3235581622678396
1.3088954056695992
1.29227761485826
1.2727272727272727
1.2561094819159335
1.2404692082111437
1.219941348973607
1.1964809384164223
1.1710654936461389
1.144672531769306
1.1163245356793745
1.0869990224828934
1.0557184750733135
1.024437927663734
0.9980449657869012
0.981427174975562
0.9843597262952102
1.0087976539589445
1.06158357771261
1.1593352883675463
1.3049853372434017
1.4936461388074291
1.715542521994135
1.956989247311828
2.19941348973607
2.426197458455523
2.6265884652981426
2.790811339198436
2.913978494623656
2.989247311827957
3.0283479960899315
3.046920821114369
3.043010752688172
3.0175953079178885
2.973607038123167
2.9120234604105573
2.8377321603128056
2.750733137829912
2.653958944281525
2.547409579667644
2.4330400782013686
2.310850439882698
2.198435972629521
2.090909090909091
1.970674486803519
1.847507331378299
1.7272727272727273
1.6138807429130009
1.512218963831867
1.4252199413489737
1.35386119257087
1.300097751710655
1.262952101661779
1.2424242424242424
1.2365591397849462
1.241446725317693
1.2541544477028348
1.273704789833822
1.2971652003910068
1.3235581622678396
1.3499511241446724
1.3743890518084063
1.3958944281524928
1.4134897360703813
1.4271749755620724
1.435972629521017
1.439882697947214
1.4408602150537635
1.4379276637341154
1.4301075268817205
1.4173998044965788
1.3998044965786902
1.3792766373411536
1.3558162267839686
1.3294232649071358
1.3010752688172045
1.2717497556207231
1.2404692082111437
1.209188660801564
1.1827956989247312
1.1593352883675463
1.130987292277615
1.1026392961876832
1.0801564027370478
1.0713587487781036
1.086021505376344
1.133919843597263
1.219941348973607
1.3479960899315735
1.5141739980449658
1.7096774193548387
1.9227761485826005
2.110459433040078
2.2766373411534704
2.4457478005865103
2.598240469208211
2.7223851417399803
2.8132942326490715
2.8699902248289346
2.895405669599218
2.89247311827957
2.866080156402737
2.819159335288368
2.755620723362659
2.686217008797654
2.610948191593353
2.520039100684262
2.418377321603128
2.3069403714565007
2.188660801564027
2.064516129032258
1.93841642228739
1.812316715542522
1.6901270772238517
1.5747800586510263
1.469208211143695
1.3782991202346042
1.3098729227761483
1.260019550342131
1.2189638318670577
1.1896383186705768
1.1730205278592376
1.1691104594330402
1.1759530791788857
1.1925708699902249
1.2150537634408602
1.241446725317693
1.2697947214076246
1.2981427174975562
1.3225806451612905
1.3440860215053765
1.3626588465298142
1.3782991202346042
1.3890518084066472
1.3949169110459434
1.3949169110459434
1.3900293255131966
1.380254154447703
1.3665689149560116
1.348973607038123
1.327468230694037
1.303030303030303
1.281524926686217
1.2619745845552297
1.238514173998045
1.2111436950146628
1.181818181818182
1.1505376344086022
1.1192570869990224
1.088954056695992
1.0654936461388074
1.056695992179863
1.072336265884653
1.121212121212121
1.1915933528836755
1.29227761485826
1.4408602150537635
1.6285434995112416
1.8416422287390029
2.064516129032258
2.281524926686217
2.4789833822091887
2.6471163245356792
2.779081133919844
2.873900293255132
2.9335288367546437
2.960899315738025
2.959921798631476
2.9374389051808407
2.897360703812317
2.841642228739003
2.7722385141739982
2.6901270772238512
2.5972629521016617
2.4946236559139785
2.3841642228739004
2.2668621700879767
2.1436950146627565
2.0175953079178885
1.905180840664712
1.8025415444770283
1.6920821114369502
1.58455522971652
1.4838709677419355
1.3958944281524928
1.3225806451612905
1.2649071358748778
1.2238514173998043
1.198435972629521
1.187683284457478
1.1896383186705768
1.2003910068426198
1.217008797653959
1.238514173998045
1.262952101661779
1.289345063538612
1.3147605083088951
1.33822091886608
1.3577712609970674
1.3743890518084063
1.3861192570869991
1.392961876832845
1.3949169110459434
1.3919843597262953
1.388074291300098
1.3812316715542523
1.3685239491691104
1.3509286412512218
1.3294232649071358
1.3049853372434017
1.278592375366569
1.2512218963831867
1.2238514173998043
1.195503421309873
1.1652003910068427
1.133919843597263
1.1094819159335287
1.0899315738025417
1.072336265884653
1.067448680351906
1.086021505376344
1.13880742913001
1.2316715542521994
1.3665689149560116
1.5395894428152492
1.7429130009775171
1.9618768328445748
2.1808406647116323
2.386119257086999
2.5454545454545454
2.667644183773216
2.7751710654936463
2.8563049853372435
2.9071358748778104
2.929618768328446
2.924731182795699
2.8963831867057674
2.849462365591398
2.7859237536656893
2.7096774193548385
2.622678396871945
2.536656891495601
2.4486803519061584
2.346041055718475
2.233626588465298
2.114369501466276
1.9902248289345064
1.865102639296188
1.7429130009775171
1.6275659824046922
1.521016617790811
1.4271749755620724
1.3479960899315735
1.284457478005865
1.241446725317693
1.2150537634408602
1.198435972629521
1.1925708699902249
1.1974584555229717
1.2111436950146628
1.23069403714565
1.2541544477028348
1.2795698924731185
1.3049853372434017
1.3284457478005864
1.3499511241446724
1.367546432062561
1.3812316715542523
1.391006842619746
1.396871945259042
1.3978494623655917
1.3949169110459434
1.388074291300098
1.3773216031280548
1.3616813294232648
1.3421309872922775
1.3196480938416422
1.2942326490713587
1.267839687194526
1.2453567937438903
1.224828934506354
1.1994134897360704
1.1710654936461389
1.1407624633431086
1.1016617790811338
1.0625610948191593
1.0420332355816226
1.0449657869012707
1.0801564027370478
1.1544477028347997
1.2717497556207231
1.4027370478983383
1.5513196480938416
1.7409579667644184
1.951124144672532
2.163245356793744
2.361681329423265
2.5347018572825024
2.674486803519061
2.7781036168132944
2.8475073313782997
2.8836754643206257
2.8905180840664717
2.8719452590420333
2.8367546432062563
2.788856304985337
2.7253176930596283
2.649071358748778
2.5620723362658846
2.466275659824047
2.3626588465298144
2.2521994134897363
2.1358748778103616
2.016617790811339
1.895405669599218
1.7761485826001957
1.6744868035190617
1.585532746823069
1.4946236559139785
1.409579667644184
1.3362658846529814
1.2776148582600195
1.2336265884652982
1.2043010752688172
1.1886608015640274
1.1857282502443791
1.1925708699902249
1.206256109481916
1.224828934506354
1.2453567937438903
1.2658846529814272
1.2864125122189638
1.305962854349951
1.3235581622678396
1.3372434017595307
1.3470185728250244
1.3519061583577712
1.3528836754643203
1.348973607038123
1.3401759530791788
1.327468230694037
1.3157380254154447
1.3020527859237536
1.2825024437927663
1.2590420332355816
1.2336265884652982
1.206256109481916
1.176930596285435
1.1466275659824048
1.1163245356793745
1.0840664711632453
1.050830889540567
1.0205278592375366
0.9960899315738024
0.9853372434017597
0.9921798631476052
1.0234604105571847
1.0909090909090908
1.1994134897360704
1.348973607038123
1.5347018572825024
1.7448680351906158
1.964809384164223
2.179863147605083
2.376344086021505
2.5434995112414467
2.6637341153470184
2.744868035190616
2.8054740957966766
2.8406647116324537
2.850439882697948
2.835777126099707
2.7996089931573804
2.745845552297165
2.677419354838709
2.5962854349951123
2.504398826979472
2.403714565004888
2.2952101661779083
2.193548387096774
2.093841642228739
1.9794721407624636
1.8592375366568916
1.737047898338221
1.616813294232649
1.5034213098729228
1.4007820136852396
1.3118279569892473
1.238514173998045
1.181818181818182
1.142717497556207
1.121212121212121
1.1133919843597262
1.115347018572825
1.126099706744868
1.1436950146627567
1.166177908113392
1.1915933528836755
1.2179863147605083
1.2434017595307918
1.2668621700879763
1.2873900293255132
1.303030303030303
1.313782991202346
1.3206256109481915
1.3235581622678396
1.3206256109481915
1.3128054740957966
1.3010752688172045
1.284457478005865
1.2649071358748778
1.2424242424242424
1.2179863147605083
1.1915933528836755
1.1652003910068427
1.1378299120234605
1.115347018572825
1.0957966764418376
1.0703812316715542
1.043010752688172
1.0166177908113392
0.9960899315738024
0.9882697947214076
1.002932551319648
1.0488758553274682
1.133919843597263
1.2609970674486803
1.4281524926686218
1.5962854349951123
1.76930596285435
1.9716520039100685
2.1788856304985336
2.3734115347018574
2.5425219941348973
2.677419354838709
2.776148582600196
2.838709677419355
2.868035190615836
2.868035190615836
2.843597262952102
2.798631476050831
2.742913000977517
2.677419354838709
2.5972629521016617
2.504398826979472
2.401759530791789
2.290322580645161
2.172043010752688
2.0498533724340176
1.924731182795699
1.7996089931573802
1.678396871945259
1.5650048875855327
1.4721407624633431
1.3958944281524928
1.3235581622678396
1.2619745845552297
1.2150537634408602
1.1827956989247312
1.166177908113392
1.163245356793744
1.1720430107526882
1.1896383186705768
1.2130987292277615
1.2404692082111437
1.2688172043010753
1.2942326490713587
1.316715542521994
1.3372434017595307
1.35386119257087
1.3665689149560116
1.3743890518084063
1.3763440860215057
1.3734115347018572
1.3665689149560116
1.3548387096774193
1.33822091886608
1.3186705767350928
1.3010752688172045
1.2834799608993157
1.260019550342131
1.2346041055718475
1.2072336265884651
1.1798631476050832
1.1515151515151516
1.1221896383186705
1.0918866080156402
1.0625610948191593
1.0371456500488758
1.0234604105571847
