ppg
1.303030303030303
1.4027370478983383
1.52297165200391
1.656891495601173
1.8005865102639296
1.946236559139785
2.088954056695992
2.2248289345063537
2.347996089931574
2.4594330400782014
2.557184750733138
2.644183773216031
2.70772238514174
2.7565982404692084
2.8054740957966766
2.849462365591398
2.887585532746823
2.919843597262952
2.9472140762463344
2.9696969696969697
2.9853372434017595
2.995112414467253
2.997067448680352
2.989247311827957
2.9696969696969697
2.940371456500489
2.9042033235581624
2.857282502443793
2.7996089931573804
2.7331378299120237
2.658846529814272
2.5806451612903225
2.4995112414467253
2.418377321603128
2.3391984359726297
2.264907135874878
2.1974584555229715
2.1407624633431084
2.0928641251221896
2.046920821114369
2.004887585532747
1.9667644183773216
1.9315738025415443
1.8983382209188664
1.866080156402737
1.8328445747800584
1.7996089931573802
1.7644183773216031
1.7282502443792769
1.6959921798631477
1.6656891495601174
1.6304985337243405
1.5923753665689149
1.552297165200391
1.5102639296187683
1.466275659824047
1.4213098729227762
1.3773216031280548
1.3343108504398826
1.2932551319648091
1.2561094819159335
1.2228739002932552
1.1994134897360704
1.1837732160312806
1.1720430107526882
1.1652003910068427
1.1652003910068427
1.1730205278592376
1.187683284457478
1.2082111436950147
1.2316715542521994
1.2580645161290325
1.284457478005865
1.3098729227761483
1.3313782991202343
1.3479960899315735
1.3616813294232648
1.370478983382209
1.3734115347018572
1.370478983382209
1.3616813294232648
1.3470185728250244
1.3264907135874875
1.3010752688172045
1.2717497556207231
1.2394916911045943
1.2111436950146628
1.1857282502443791
1.1564027370478984
1.126099706744868
1.0957966764418376
1.0664711632453567
1.0410557184750733
1.0195503421309873
1.0
0.9824046920821116
0.967741935483871
0.9560117302052786
0.9452590420332356
0.93841642228739
0.9345063538611924
0.927663734115347
0.919843597262952
0.9090909090909092
0.8963831867057673
0.8826979472140762
0.8690127077223851
0.8563049853372434
0.8455522971652004
0.8396871945259042
0.841642228739003
0.8543499511241447
0.8797653958944281
0.9227761485826002
0.9882697947214076
1.0762463343108504
1.1867057673509287
1.3147605083088951
1.457478005865103
1.607038123167155
1.7575757575757576
1.903225806451613
2.040078201368524
2.163245356793744
2.2580645161290325
2.333333333333333
2.404692082111437
2.4672531769305963
2.520039100684262
2.563049853372434
2.598240469208211
2.627565982404692
2.6529814271749754
2.674486803519061
2.6911045943304006
2.702834799608993
2.705767350928641
2.701857282502444
2.695014662756598
2.681329423264907
2.659824046920821
2.6285434995112413
2.587487781036168
2.5376344086021505
2.4789833822091887
2.4134897360703813
2.345063538611926
2.275659824046921
2.209188660801564
2.15347018572825
2.1055718475073317
2.059628543499511
2.0175953079178885
1.9794721407624636
1.9442815249266865
1.9100684261974583
1.8778103616813293
1.8455522971652003
1.812316715542522
1.780058651026393
1.7468230694037146
1.7165200391006843
1.686217008797654
1.6520039100684265
1.6138807429130009
1.5747800586510263
1.5347018572825024
1.495601173020528
1.457478005865103
1.4213098729227762
1.3870967741935485
1.3558162267839686
1.327468230694037
1.300097751710655
1.2795698924731185
1.2639296187683284
1.2482893450635386
1.2355816226783969
1.2238514173998043
1.2130987292277615
1.2023460410557183
1.1935483870967742
1.1867057673509287
1.1808406647116323
1.1749755620723363
1.1700879765395895
1.1671554252199414
1.2013685239491692
1.2531769305962854
1.2795698924731185
1.2932551319648091
1.300097751710655
1.3040078201368523
1.3069403714565004
1.3088954056695992
1.3079178885630498
1.305962854349951
1.303030303030303
1.2981427174975562
1.295210166177908
1.29227761485826
1.2854349951124144
1.2756598240469208
1.2619745845552297
1.2453567937438903
1.2258064516129032
1.203323558162268
1.1788856304985338
1.1534701857282503
1.126099706744868
1.099706744868035
1.0801564027370478
1.064516129032258
1.04594330400782
1.029325513196481
1.0166177908113392
1.007820136852395
1.0039100684261977
1.0039100684261977
1.0087976539589445
1.0166177908113392
1.0283479960899315
1.04594330400782
1.0713587487781036
1.1016617790811338
1.1407624633431086
1.195503421309873
1.2668621700879763
1.356793743890518
1.4643206256109482
1.5865102639296187
1.718475073313783
1.857282502443793
1.9980449657869013
2.134897360703812
2.2629521016617797
2.3655913978494625
2.449657869012708
2.533724340175953
2.610948191593353
2.678396871945259
2.736070381231672
2.78494623655914
2.8260019550342133
2.860215053763441
2.8885630498533725
2.911045943304008
2.9266862170087977
2.936461388074292
2.936461388074292
2.9286412512218964
2.9159335288367547
2.897360703812317
2.8699902248289346
2.832844574780059
2.7869012707722387
2.732160312805474
2.6695992179863146
2.6021505376344085
2.530791788856305
2.4594330400782014
2.3958944281524928
2.337243401759531
2.2795698924731185
2.225806451612903
2.177908113391984
2.1358748778103616
2.1006842619745845
2.069403714565005
2.042033235581622
2.016617790811339
1.992179863147605
1.967741935483871
1.943304007820137
1.919843597262952
1.8983382209188664
1.8729227761485825
1.8455522971652003
1.818181818181818
1.790811339198436
1.7634408602150538
1.7350928641251222
1.7067448680351909
1.6774193548387095
1.6490713587487782
1.6217008797653958
1.598240469208211
1.5786901270772238
1.5562072336265884
1.5327468230694037
1.509286412512219
1.4858260019550342
1.4652981427174976
1.4467253176930597
1.4291300097751711
1.412512218963832
1.396871945259042
1.3822091886608017
1.3685239491691104
1.3587487781036167
1.3519061583577712
1.343108504398827
1.3343108504398826
1.3255131964809383
1.316715542521994
1.3079178885630498
1.300097751710655
1.2932551319648091
1.2864125122189638
1.2805474095796676
1.273704789833822
1.2697947214076246
1.267839687194526
1.262952101661779
1.2570869990224829
1.2502443792766371
1.2453567937438903
1.241446725317693
1.238514173998045
1.2355816226783969
1.2336265884652982
1.2326490713587488
1.2326490713587488
1.2336265884652982
1.2355816226783969
1.2355816226783969
1.2346041055718475
1.2336265884652982
1.2326490713587488
1.2326490713587488
1.2326490713587488
1.2326490713587488
1.2326490713587488
1.2326490713587488
1.2326490713587488
1.2326490713587488
1.2365591397849462
1.2443792766373412
1.260019550342131
1.2883675464320623
1.3333333333333333
1.396871945259042
1.479960899315738
1.5826001955034212
1.7008797653958945
1.8328445747800584
1.9736070381231672
2.1163245356793743
2.2385141739980448
2.346041055718475
2.4604105571847508
2.570869990224829
2.6725317693059627
2.764418377321604
2.8475073313782997
2.920821114369501
2.98435972629521
3.0410557184750733
3.090909090909091
3.132942326490713
3.16911045943304
3.1915933528836757
3.203323558162268
3.2130987292277613
3.217986314760508
3.2160312805474094
3.204301075268817
3.1808406647116323
3.144672531769306
3.0957966764418376
3.035190615835777
2.964809384164223
2.8885630498533725
2.814271749755621
2.740957966764418
2.6608015640273703
2.579667644183773
2.4995112414467253
2.4222873900293256
2.350928641251222
2.2873900293255134
2.231671554252199
2.182795698924731
2.1407624633431084
2.103616813294233
2.069403714565005
2.040078201368524
2.013685239491691
1.986314760508309
1.956989247311828
1.9266862170087975
1.8963831867057677
1.8641251221896384
1.83088954056696
1.796676441837732
1.7624633431085044
1.7282502443792769
1.694037145650049
1.6656891495601174
1.640273704789834
1.6109481915933528
1.5796676441837731
1.547409579667644
1.5161290322580645
1.4868035190615836
1.458455522971652
1.4320625610948192
1.4066471163245358
1.383186705767351
1.3616813294232648
1.3411534701857282
1.3264907135874875
1.313782991202346
1.300097751710655
1.2854349951124144
1.2697947214076246
1.2541544477028348
1.2394916911045943
1.2258064516129032
1.2121212121212122
1.198435972629521
1.18475073313783
1.1710654936461389
1.1622678396871946
1.1564027370478984
1.1485826001955035
1.141739980449658
1.1348973607038124
1.1280547409579669
1.121212121212121
1.1143695014662756
1.10752688172043
1.1006842619745845
1.093841642228739
1.088954056695992
1.0850439882697946
1.0850439882697946
1.0869990224828934
1.0869990224828934
1.0869990224828934
1.086021505376344
1.086021505376344
1.086021505376344
1.0840664711632453
1.0811339198435972
1.078201368523949
1.0762463343108504
1.0742913000977516
1.0762463343108504
1.0791788856304985
1.0811339198435972
1.0850439882697946
1.0928641251221896
1.1085043988269794
1.133919843597263
1.1720430107526882
1.2267839687194526
1.2981427174975562
1.3861192570869991
1.487781036168133
1.6011730205278591
1.704789833822092
1.8025415444770283
1.911045943304008
2.0195503421309877
2.1221896383186705
2.2170087976539588
2.3010752688172045
2.3743890518084068
2.4379276637341154
2.490713587487781
2.5347018572825024
2.5718475073313782
2.595307917888563
2.6099706744868034
2.625610948191593
2.638318670576735
2.6471163245356792
2.6510263929618767
2.649071358748778
2.6402737047898337
2.6236559139784945
2.5992179863147604
2.565982404692082
2.5239491691104594
2.474095796676442
2.4242424242424243
2.372434017595308
2.314760508308896
2.2531769305962857
2.1925708699902247
2.134897360703812
2.081133919843597
2.032258064516129
1.989247311827957
1.951124144672532
1.9178885630498532
1.8885630498533723
1.865102639296188
1.844574780058651
1.8240469208211143
1.801564027370479
1.7790811339198436
1.7565982404692082
1.7331378299120237
1.70772238514174
1.6813294232649072
1.6549364613880744
1.6265884652981428
1.598240469208211
1.5698924731182795
1.5464320625610948
1.525904203323558
1.5024437927663734
1.47702834799609
1.4516129032258065
1.4271749755620724
1.4037145650048877
1.3812316715542523
1.359726295210166
1.3401759530791788
1.3225806451612905
1.3049853372434017
1.29227761485826
1.2825024437927663
1.2727272727272727
1.262952101661779
1.252199413489736
1.2424242424242424
1.2336265884652982
1.2267839687194526
1.219941348973607
1.2140762463343109
1.209188660801564
1.2043010752688172
1.2023460410557183
1.2023460410557183
1.2003910068426198
1.1974584555229717
1.1935483870967742
1.1896383186705768
1.1857282502443791
1.181818181818182
1.1779081133919844
1.173998044965787
1.1700879765395895
1.1671554252199414
1.164222873900293
1.163245356793744
1.163245356793744
1.1612903225806452
1.1583577712609971
1.1544477028347997
1.1515151515151516
1.1485826001955035
1.1456500488758554
1.1436950146627567
1.141739980449658
1.1407624633431086
1.1407624633431086
1.141739980449658
1.144672531769306
1.1456500488758554
1.1466275659824048
1.147605083088954
1.1505376344086022
1.1593352883675463
1.1779081133919844
1.2101661779081134
1.2580645161290325
1.3225806451612905
1.4056695992179864
1.5034213098729228
1.5972629521016617
1.6911045943304008
1.801564027370479
1.9178885630498532
2.0332355816226784
2.1417399804496577
2.2404692082111435
2.3274682306940373
2.401759530791789
2.4652981427174976
2.5190615835777126
2.563049853372434
2.591397849462365
2.610948191593353
2.631476050830889
2.6510263929618767
2.667644183773216
2.679374389051808
2.686217008797654
2.687194525904203
2.681329423264907
2.668621700879765
2.6471163245356792
2.616813294232649
2.576735092864125
2.532746823069404
2.484848484848485
2.4301075268817205
2.3704789833822093
2.3088954056695994
2.2482893450635384
2.188660801564027
2.133919843597263
2.0840664711632453
2.040078201368524
2.0019550342130987
1.9696969696969695
1.943304007820137
1.920821114369501
1.8983382209188664
1.8758553274682308
1.8533724340175952
1.8299120234604105
1.8064516129032255
1.7820136852394917
1.7575757575757576
1.732160312805474
1.704789833822092
1.678396871945259
1.6520039100684265
1.6285434995112416
1.607038123167155
1.5826001955034212
1.5562072336265884
1.5298142717497556
1.5034213098729228
1.478983382209189
1.456500488758553
1.4349951124144673
1.414467253176931
1.3949169110459434
1.3763440860215057
1.3616813294232648
1.348973607038123
1.3362658846529814
1.3235581622678396
1.310850439882698
1.2981427174975562
1.2873900293255132
1.278592375366569
1.270772238514174
1.2639296187683284
1.2570869990224829
1.2502443792766371
1.2443792766373412
1.2404692082111437
1.238514173998045
1.2346041055718475
1.2287390029325511
1.2228739002932552
1.2179863147605083
1.2140762463343109
1.2111436950146628
1.2082111436950147
1.2052785923753666
1.2023460410557183
1.1994134897360704
1.198435972629521
1.198435972629521
1.1974584555229717
1.1964809384164223
1.1964809384164223
1.1964809384164223
1.1964809384164223
1.1964809384164223
1.1964809384164223
1.1964809384164223
1.195503421309873
1.1935483870967742
1.1915933528836755
1.1915933528836755
1.1935483870967742
1.1935483870967742
1.1925708699902249
1.1925708699902249
1.1945259042033236
1.2013685239491692
1.23069403714565
1.2649071358748778
1.3147605083088951
1.4213098729227762
1.499511241446725
1.5835777126099706
1.6871945259042034
1.8631476050830889
1.9824046920821117
2.0977517106549364
2.2580645161290325
2.3519061583577714
2.4330400782013686
2.5034213098729228
2.587487781036168
2.6295210166177907
2.696969696969697
2.889540566959922
2.973607038123167
3.026392961876833
3.059628543499511
3.0879765395894427
3.096774193548387
3.0957966764418376
3.0772238514174
3.0518084066471163
3.016617790811339
2.972629521016618
2.916911045943304
2.850439882697948
2.7751710654936463
2.6940371456500487
2.610948191593353
2.5268817204301075
2.4457478005865103
2.36950146627566
2.2981427174975564
2.2346041055718477
2.1808406647116323
2.136852394916911
2.099706744868035
2.064516129032258
2.0303030303030303
1.9980449657869013
1.9667644183773216
1.9364613880742916
1.906158357771261
1.87683284457478
1.8465298142717497
1.8142717497556209
1.780058651026393
1.750733137829912
1.7223851417399805
1.6901270772238517
1.6559139784946235
1.6217008797653958
1.5865102639296187
1.5513196480938416
1.5180840664711632
1.4868035190615836
1.455522971652004
1.4252199413489737
1.3958944281524928
1.3685239491691104
1.3470185728250244
1.3294232649071358
1.310850439882698
1.29227761485826
1.2746823069403714
1.2590420332355816
1.2443792766373412
1.23069403714565
1.2179863147605083
1.206256109481916
1.1935483870967742
1.181818181818182
1.1749755620723363
1.1700879765395895
1.163245356793744
1.155425219941349
1.147605083088954
1.1407624633431086
1.133919843597263
1.1280547409579669
1.1221896383186705
1.1173020527859236
1.1114369501466277
1.1055718475073313
1.1036168132942326
1.1026392961876832
1.0987292277614855
1.0948191593352885
1.0918866080156402
1.088954056695992
1.086021505376344
1.083088954056696
1.0801564027370478
1.078201368523949
1.0762463343108504
1.0742913000977516
1.072336265884653
1.0733137829912025
1.075268817204301
1.075268817204301
1.0742913000977516
1.0733137829912025
1.072336265884653
1.0733137829912025
1.0772238514173995
1.0869990224828934
1.1055718475073313
1.13880742913001
1.1896383186705768
1.2502443792766371
1.3235581622678396
1.423264907135875
1.544477028347996
1.6803519061583578
1.826001955034213
1.9745845552297163
2.120234604105572
2.2580645161290325
2.3841642228739004
2.498533724340176
2.598240469208211
2.6832844574780057
2.744868035190616
2.790811339198436
2.835777126099707
2.875855327468231
2.911045943304008
2.941348973607038
2.964809384164223
2.983382209188661
2.997067448680352
3.004887585532747
3.004887585532747
2.997067448680352
2.979472140762464
2.952101661779081
2.9159335288367547
2.8699902248289346
2.814271749755621
2.750733137829912
2.678396871945259
2.601173020527859
2.5210166177908118
2.441837732160313
2.367546432062561
2.2981427174975564
2.236559139784946
2.1847507331378297
2.1417399804496577
2.1006842619745845
2.0635386119257086
2.0303030303030303
2.0
1.970674486803519
1.9413489736070384
1.9130009775171064
1.8836754643206255
1.8533724340175952
1.822091886608016
1.7947214076246334
1.7673509286412512
1.737047898338221
1.7057673509286413
1.672531769305963
1.6383186705767352
1.6041055718475072
1.5708699902248289
1.5376344086021505
1.5053763440860215
1.474095796676442
1.444770283479961
1.418377321603128
1.3988269794721409
1.3822091886608017
1.3626588465298142
1.343108504398827
1.324535679374389
1.3069403714565004
1.2903225806451613
1.2746823069403714
1.260019550342131
1.2473118279569892
1.2375366568914956
1.2287390029325511
1.2238514173998043
1.2209188660801564
1.2150537634408602
1.209188660801564
1.2023460410557183
1.1945259042033236
1.1867057673509287
1.1368523949169111
1.1378299120234605
1.1456500488758554
1.163245356793744
1.1974584555229717
1.2502443792766371
1.3128054740957966
1.388074291300098
1.490713587487781
1.6129032258064515
1.7497556207233629
1.895405669599218
2.0439882697947214
2.190615835777126
2.3304007820136854
2.4574780058651027
2.5718475073313782
2.6725317693059627
2.747800586510264
2.8054740957966766
2.863147605083089
2.9149560117302054
2.959921798631476
2.9980449657869013
3.03128054740958
3.059628543499511
3.085043988269794
3.1065493646138806
3.12316715542522
3.132942326490713
3.134897360703812
3.1251221896383186
3.103616813294233
3.072336265884653
3.0303030303030303
2.9765395894428157
2.911045943304008
2.834799608993157
2.7497556207233624
2.6578690127077222
2.5640273704789838
2.4711632453567938
2.3822091886608017
2.304985337243402
2.2375366568914954
2.172043010752688
2.112414467253177
2.060606060606061
2.0146627565982405
1.9736070381231672
1.9364613880742916
1.87683284457478
1.8084066471163245
1.7605083088954057
1.721407624633431
1.6871945259042034
1.6598240469208212
1.6363636363636365
1.6099706744868034
1.581622678396872
1.5532746823069403
1.52297165200391
1.4936461388074291
1.4652981427174976
1.4379276637341154
1.412512218963832
1.3870967741935485
1.3636363636363635
1.346041055718475
1.3313782991202343
1.3157380254154447
1.2991202346041055
1.2825024437927663
1.2668621700879763
1.252199413489736
1.2375366568914956
1.2228739002932552
1.2082111436950147
1.1945259042033236
1.1808406647116323
1.1681329423264908
1.1593352883675463
1.152492668621701
1.141739980449658
1.1280547409579669
1.1133919843597262
1.0987292277614855
1.083088954056696
1.0664711632453567
1.050830889540567
1.0361681329423265
1.0224828934506354
1.010752688172043
1.0039100684261977
1.0
0.9951124144672532
0.9882697947214076
0.981427174975562
0.9745845552297164
0.967741935483871
0.959921798631476
0.9530791788856304
0.9472140762463344
0.9423264907135877
0.9393939393939394
0.9403714565004888
0.9433040078201368
0.9452590420332356
0.946236559139785
0.946236559139785
0.9452590420332356
0.9442815249266864
0.9442815249266864
0.9442815249266864
0.9472140762463344
0.9560117302052786
0.9765395894428152
1.0127077223851415
1.0576735092864125
1.115347018572825
1.1974584555229717
1.303030303030303
1.4281524926686218
1.5669599217986314
1.7126099706744868
1.8602150537634408
2.004887585532747
2.1407624633431084
2.264907135874878
2.376344086021505
2.4613880742913
2.527859237536657
2.593352883675464
2.654936461388074
2.708699902248289
2.7536656891495603
2.790811339198436
2.822091886608016
2.8475073313782997
2.868035190615836
2.8836754643206257
2.89345063538612
2.8963831867057674
2.8885630498533725
2.870967741935484
2.8475073313782997
2.81622678396872
2.774193548387097
2.721407624633431
2.6578690127077222
2.5855327468230693
2.50733137829912
2.4271749755620724
2.347996089931574
2.271749755620724
2.206256109481916
2.1485826001955037
2.09188660801564
2.0410557184750733
1.9960899315738023
1.9560117302052784
1.920821114369501
1.8905180840664717
1.86119257086999
1.8318670576735088
1.8025415444770283
1.7741935483870968
1.7458455522971652
1.7204301075268815
1.696969696969697
1.6705767350928642
1.6422287390029326
1.6109481915933528
1.5786901270772238
1.5454545454545454
1.512218963831867
1.479960899315738
1.4486803519061584
1.418377321603128
1.388074291300098
1.3636363636363635
1.343108504398827
1.3206256109481915
1.295210166177908
1.2717497556207231
1.2502443792766371
1.2297165200391007
1.209188660801564
1.1906158357771262
1.1759530791788857
1.1622678396871946
1.1495601173020529
1.1368523949169111
1.1280547409579669
1.121212121212121
1.1124144672531768
1.1036168132942326
1.096774193548387
1.0909090909090908
1.0840664711632453
1.0772238514173995
1.0703812316715542
1.0635386119257086
1.056695992179863
1.050830889540567
1.0478983382209188
1.0469208211143697
1.0439882697947214
1.0420332355816226
1.0410557184750733
1.040078201368524
1.040078201368524
1.0381231671554252
1.0361681329423265
1.0332355816226784
1.029325513196481
1.0254154447702837
1.0224828934506354
1.021505376344086
1.0224828934506354
1.0224828934506354
1.021505376344086
1.0205278592375366
1.0205278592375366
1.0205278592375366
1.0205278592375366
1.0205278592375366
1.0224828934506354
1.0254154447702837
1.0342130987292275
1.050830889540567
1.0772238514173995
1.1202346041055715
1.1837732160312806
1.2697947214076246
1.3763440860215057
1.5024437927663734
1.640273704789834
1.7869012707722385
1.935483870967742
2.080156402737048
2.2160312805474094
2.3411534701857284
2.4389051808406648
2.5180840664711632
2.5972629521016617
2.6695992179863146
2.7341153470185726
2.790811339198436
2.8396871945259043
2.881720430107527
2.917888563049853
2.948191593352884
2.9716520039100685
2.988269794721408
2.994134897360704
2.9902248289345064
2.983382209188661
2.970674486803519
2.949169110459433
2.917888563049853
2.87683284457478
2.8240469208211145
2.7614858260019552
2.689149560117302
2.610948191593353
2.5288367546432062
2.444770283479961
2.3704789833822093
2.302052785923754
2.231671554252199
2.1652003910068425
2.104594330400782
2.050830889540567
2.003910068426197
1.963831867057673
1.927663734115347
1.8944281524926687
1.8631476050830889
1.8318670576735088
1.804496578690127
1.7781036168132942
1.7487781036168133
1.7174975562072337
1.6852394916911049
1.6529814271749756
1.619745845552297
1.585532746823069
1.5513196480938416
1.517106549364614
1.4848484848484849
1.452590420332356
1.4213098729227762
1.3958944281524928
1.3734115347018572
1.3479960899315735
1.321603128054741
1.295210166177908
1.2697947214076246
1.2473118279569892
1.2267839687194526
1.206256109481916
1.1886608015640274
1.1730205278592376
1.1593352883675463
1.1505376344086022
1.1436950146627567
1.1466275659824048
1.155425219941349
1.1544477028347997
1.1495601173020529
1.142717497556207
1.133919843597263
1.1251221896383188
1.1163245356793745
1.1085043988269794
1.1006842619745845
1.096774193548387
1.0948191593352885
1.0909090909090908
1.086021505376344
1.0821114369501466
1.078201368523949
1.0733137829912025
1.0694037145650048
1.0664711632453567
1.0625610948191593
1.0596285434995112
1.056695992179863
1.053763440860215
1.0547409579667644
1.056695992179863
1.056695992179863
1.0547409579667644
1.0527859237536656
1.050830889540567
1.0488758553274682
1.0469208211143697
1.0439882697947214
1.0420332355816226
1.040078201368524
1.0371456500488758
1.0381231671554252
1.043010752688172
1.0488758553274682
1.0606060606060606
1.0821114369501466
1.118279569892473
1.1720430107526882
1.2453567937438903
1.33822091886608
1.4486803519061584
1.5708699902248289
1.7008797653958945
1.833822091886608
1.9472140762463344
2.047898338220919
2.15347018572825
2.254154447702835
2.345063538611926
2.426197458455523
2.496578690127077
2.557184750733138
2.6099706744868034
2.654936461388074
2.6930596285435
2.727272727272727
2.748778103616813
2.7624633431085046
2.7781036168132944
2.790811339198436
2.7966764418377323
2.7947214076246336
2.78494623655914
2.766373411534702
