ppg
1.2658846529814272
1.295210166177908
1.3519061583577712
1.4408602150537635
1.5620723362658846
1.710654936461388
1.87683284457478
2.048875855327468
2.2160312805474094
2.3685239491691106
2.4858260019550342
2.5777126099706744
2.6637341153470184
2.7390029325513194
2.8025415444770285
2.8533724340175954
2.89345063538612
2.9237536656891496
2.9442815249266863
2.9550342130987293
2.956989247311828
2.952101661779081
2.9374389051808407
2.913000977517106
2.8797653958944283
2.8367546432062563
2.782013685239492
2.717497556207233
2.6451612903225805
2.56891495601173
2.49266862170088
2.419354838709677
2.3528836754643208
2.2932551319648096
2.2404692082111435
2.198435972629521
2.1622678396871944
2.1251221896383186
2.088954056695992
2.053763440860215
2.018572825024438
1.9843597262952104
1.949169110459433
1.913978494623656
1.878787878787879
1.844574780058651
1.8103616813294232
1.7810361681329423
1.75366568914956
1.7243401759530792
1.6930596285434996
1.66177908113392
1.6314760508308896
1.6001955034213098
1.5698924731182795
1.5405669599217986
1.512218963831867
1.4848484848484849
1.4604105571847508
1.4379276637341154
1.4203323558162269
1.404692082111437
1.3861192570869991
1.3685239491691104
1.3509286412512218
1.3343108504398826
1.316715542521994
1.300097751710655
1.2864125122189638
1.2756598240469208
1.2658846529814272
1.2561094819159335
1.2512218963831867
1.2473118279569892
1.241446725317693
1.2336265884652982
1.224828934506354
1.2150537634408602
1.2043010752688172
1.1945259042033236
1.1857282502443791
1.1759530791788857
1.164222873900293
1.1505376344086022
1.1368523949169111
1.1290322580645162
1.1300097751710656
1.142717497556207
1.1779081133919844
1.2443792766373412
1.3450635386119256
1.478983382209189
1.6383186705767352
1.8132942326490715
1.991202346041056
2.1622678396871944
2.317693059628544
2.436950146627566
2.530791788856305
2.6207233626588464
2.699902248289345
2.7673509286412514
2.823069403714565
2.868035190615836
2.9042033235581624
2.9315738025415445
2.949169110459433
2.9579667644183774
2.9589442815249267
2.951124144672532
2.9335288367546437
2.9071358748778104
2.870967741935484
2.8240469208211145
2.7653958944281527
2.697947214076246
2.622678396871945
2.5425219941348973
2.462365591397849
2.383186705767351
2.3088954056695994
2.2404692082111435
2.1847507331378297
2.1388074291300097
2.093841642228739
2.0518084066471163
2.0117302052785924
1.9726295210166176
1.935483870967742
1.8993157380254155
1.8641251221896384
1.8299120234604105
1.7956989247311828
1.7605083088954057
1.7253176930596286
1.6959921798631477
1.6695992179863148
1.6412512218963833
1.6109481915933528
1.5806451612903225
1.5513196480938416
1.521994134897361
1.4809384164222874
1.4349951124144673
1.3988269794721409
1.3665689149560116
1.33822091886608
1.3176930596285434
1.3010752688172045
1.281524926686217
1.2619745845552297
1.2434017595307918
1.224828934506354
1.2082111436950147
1.1925708699902249
1.1779081133919844
1.163245356793744
1.1495601173020529
1.1397849462365592
1.130987292277615
1.126099706744868
1.1251221896383188
1.121212121212121
1.115347018572825
1.1094819159335287
1.1036168132942326
1.096774193548387
1.088954056695992
1.0791788856304985
1.067448680351906
1.0547409579667644
1.0420332355816226
1.0342130987292275
1.035190615835777
1.0469208211143697
1.0821114369501466
1.1485826001955035
1.252199413489736
1.391006842619746
1.5581622678396871
1.7429130009775171
1.932551319648094
2.115347018572825
2.2844574780058653
2.4173998044965788
2.5239491691104594
2.627565982404692
2.720430107526881
2.80058651026393
2.8699902248289346
2.9286412512218964
2.9765395894428157
3.0146627565982405
3.043010752688172
3.0625610948191597
3.072336265884653
3.074291300097752
3.0664711632453567
3.048875855327468
3.0234604105571847
2.9872922776148583
2.940371456500489
2.8826979472140764
2.814271749755621
2.736070381231672
2.6510263929618767
2.563049853372434
2.4760508308895406
2.393939393939394
2.324535679374389
2.2658846529814274
2.209188660801564
2.157380254154448
2.1094819159335287
2.064516129032258
2.022482893450636
1.981427174975562
1.9423264907135875
1.905180840664712
1.869012707722385
1.833822091886608
1.7996089931573802
1.7712609970674489
1.7458455522971652
1.7165200391006843
1.6842619745845553
1.651026392961877
1.6177908113391983
1.585532746823069
1.5542521994134897
1.52297165200391
1.4926686217008798
1.4633431085043989
1.4349951124144673
1.4134897360703813
1.3949169110459434
1.3724340175953078
1.348973607038123
1.327468230694037
1.3069403714565004
1.2873900293255132
1.2688172043010753
1.2512218963831867
1.2355816226783969
1.2218963831867058
1.209188660801564
1.198435972629521
1.1925708699902249
1.1896383186705768
1.18475073313783
1.1779081133919844
1.1700879765395895
1.1622678396871946
1.1544477028347997
1.147605083088954
1.141739980449658
1.1358748778103618
1.1290322580645162
1.1202346041055715
1.115347018572825
1.1114369501466277
1.1055718475073313
1.1065493646138806
1.1251221896383188
1.1700879765395895
1.2502443792766371
1.3685239491691104
1.5190615835777126
1.6950146627565983
1.884652981427175
2.0762463343108504
2.2580645161290325
2.403714565004888
2.5219941348973607
2.638318670576735
2.742913000977517
2.832844574780059
2.909090909090909
2.972629521016618
3.0254154447702835
3.0664711632453567
3.096774193548387
3.1192570869990224
3.133919843597263
3.133919843597263
3.1251221896383186
3.112414467253177
3.0928641251221896
3.0625610948191597
3.0205278592375366
2.964809384164223
2.897360703812317
2.820136852394917
2.736070381231672
2.6480938416422286
2.5610948191593352
2.479960899315738
2.412512218963832
2.355816226783969
2.302052785923754
2.2531769305962857
2.2082111436950145
2.167155425219941
2.1270772238514173
2.088954056695992
2.0518084066471163
2.01564027370479
1.981427174975562
1.9472140762463344
1.916911045943304
1.8875855327468232
1.8563049853372435
1.823069403714565
1.7898338220918866
1.758553274682307
1.726295210166178
1.6950146627565983
1.6656891495601174
1.6383186705767352
1.611925708699902
1.587487781036168
1.5650048875855327
1.547409579667644
1.5317693059628543
1.5151515151515151
1.4975562072336266
1.479960899315738
1.4613880742913
1.4418377321603129
1.423264907135875
1.4066471163245358
1.391006842619746
1.3763440860215057
1.3626588465298142
1.3548387096774193
1.348973607038123
1.343108504398827
1.3372434017595307
1.3313782991202343
1.3255131964809383
1.3196480938416422
1.313782991202346
1.3069403714565004
1.2981427174975562
1.2883675464320623
1.2776148582600195
1.2658846529814272
1.2570869990224829
1.2482893450635386
1.2365591397849462
1.2287390029325511
1.2326490713587488
1.2570869990224829
1.3088954056695992
1.393939393939394
1.5151515151515151
1.6656891495601174
1.836754643206256
2.0146627565982405
2.167155425219941
2.2981427174975564
2.429130009775171
2.548387096774193
2.6510263929618767
2.736070381231672
2.806451612903226
2.863147605083089
2.9071358748778104
2.9423264907135875
2.9687194525904204
2.986314760508309
2.995112414467253
2.991202346041056
2.9775171065493646
2.956989247311828
2.9266862170087977
2.8856304985337244
2.832844574780059
2.768328445747801
2.695014662756598
2.6148582600195502
2.532746823069404
2.453567937438905
2.3812316715542523
2.321603128054741
2.271749755620724
2.2248289345063537
2.1818181818181817
2.1417399804496577
2.103616813294233
2.0664711632453567
2.0303030303030303
1.994134897360704
1.9579667644183771
1.920821114369501
1.8836754643206255
1.8523949169110456
1.8240469208211143
1.7771260997067448
1.7223851417399805
1.6803519061583578
1.6441837732160314
1.6109481915933528
1.5786901270772238
1.5483870967741935
1.520039100684262
1.4916911045943304
1.4643206256109482
1.436950146627566
1.414467253176931
1.3949169110459434
1.3734115347018572
1.3519061583577712
1.3313782991202343
1.3118279569892473
1.2932551319648091
1.2766373411534702
1.262952101661779
1.249266862170088
1.2375366568914956
1.2258064516129032
1.2179863147605083
1.2121212121212122
1.2043010752688172
1.1964809384164223
1.1896383186705768
1.1827956989247312
1.1759530791788857
1.1700879765395895
1.164222873900293
1.1583577712609971
1.1534701857282503
1.1466275659824048
1.13880742913001
1.1329423264907137
1.1270772238514175
1.118279569892473
1.1114369501466277
1.1133919843597262
1.133919843597263
1.1827956989247312
1.2649071358748778
1.3812316715542523
1.5268817204301075
1.6930596285434996
1.866080156402737
2.0146627565982405
2.142717497556207
2.272727272727273
2.3919843597262958
2.4946236559139785
2.581622678396872
2.653958944281525
2.7126099706744866
2.758553274682307
2.7947214076246336
2.822091886608016
2.841642228739003
2.854349951124145
2.855327468230694
2.8484848484848486
2.835777126099707
2.814271749755621
2.7839687194525906
2.742913000977517
2.6911045943304006
2.6295210166177907
2.560117302052786
2.484848484848485
2.406647116324536
2.3284457478005867
2.260997067448681
2.201368523949169
2.144672531769306
2.09188660801564
2.0439882697947214
2.0
1.9589442815249267
1.919843597262952
1.8826979472140764
1.8455522971652003
1.8084066471163245
1.7712609970674489
1.7341153470185728
1.7038123167155426
1.6764418377321604
1.64613880742913
1.6148582600195502
1.5826001955034212
1.5513196480938416
1.520039100684262
1.4897360703812317
1.4594330400782014
1.4281524926686218
1.3988269794721409
1.370478983382209
1.3479960899315735
1.3294232649071358
1.3088954056695992
1.2873900293255132
1.2658846529814272
1.2453567937438903
1.224828934506354
1.206256109481916
1.1886608015640274
1.1730205278592376
1.1583577712609971
1.1436950146627567
1.1300097751710656
1.121212121212121
1.1163245356793745
1.1114369501466277
1.1065493646138806
1.1016617790811338
1.0977517106549364
1.093841642228739
1.088954056695992
1.0840664711632453
1.078201368523949
1.0703812316715542
1.0586510263929618
1.0488758553274682
1.0420332355816226
1.035190615835777
1.0371456500488758
1.0596285434995112
1.1114369501466277
1.1994134897360704
1.324535679374389
1.478983382209189
1.6549364613880744
1.8406647116324533
2.022482893450636
2.190615835777126
2.32355816226784
2.429130009775171
2.530791788856305
2.621700879765396
2.7008797653958942
2.7673509286412514
2.823069403714565
2.868035190615836
2.903225806451613
2.929618768328446
2.948191593352884
2.9579667644183774
2.956989247311828
2.9472140762463344
2.932551319648094
2.911045943304008
2.8807429130009776
2.8406647116324537
2.788856304985337
2.7253176930596283
2.652003910068426
2.5718475073313782
2.489736070381232
2.406647116324536
2.326490713587488
2.259042033235582
2.201368523949169
2.146627565982405
2.0957966764418376
2.0498533724340176
2.006842619745845
1.9667644183773216
1.9266862170087975
1.8866080156402736
1.847507331378299
1.8093841642228736
1.772238514173998
1.739980449657869
1.7116324535679377
1.6813294232649072
1.6500488758553276
1.619745845552297
1.5894428152492668
1.5581622678396871
1.5278592375366569
1.4975562072336266
1.4682306940371457
1.439882697947214
1.412512218963832
1.3851417399804498
1.3636363636363635
1.3450635386119256
1.3225806451612905
1.300097751710655
1.2776148582600195
1.2561094819159335
1.2365591397849462
1.2179863147605083
1.2003910068426198
1.18475073313783
1.1681329423264908
1.152492668621701
1.141739980449658
1.133919843597263
1.1241446725317692
1.1133919843597262
1.104594330400782
1.0977517106549364
1.0909090909090908
1.0850439882697946
1.0791788856304985
1.0713587487781036
1.06158357771261
1.050830889540567
1.0391006842619743
1.0303030303030305
1.0224828934506354
1.0146627565982405
1.0146627565982405
1.032258064516129
1.075268817204301
1.152492668621701
1.2649071358748778
1.4105571847507332
1.5806451612903225
1.7624633431085044
1.943304007820137
2.0948191593352883
2.2218963831867056
2.347018572825025
2.4594330400782014
2.5562072336265884
2.636363636363636
2.701857282502444
2.755620723362659
2.798631476050831
2.831867057673509
2.855327468230694
2.870967741935484
2.874877810361681
2.8719452590420333
2.865102639296188
2.850439882697948
2.8260019550342133
2.790811339198436
2.742913000977517
2.684261974584555
2.613880742913001
2.5347018572825024
2.450635386119257
2.3655913978494625
2.2825024437927666
2.2111436950146626
2.1495601173020527
2.090909090909091
2.037145650048876
1.989247311827957
1.946236559139785
1.9071358748778104
1.8699902248289344
1.835777126099707
1.804496578690127
1.7702834799608993
1.7350928641251222
1.704789833822092
1.6764418377321604
1.643206256109482
1.608993157380254
1.5757575757575757
1.542521994134897
1.5102639296187683
1.478983382209189
1.4486803519061584
1.418377321603128
1.388074291300098
1.3587487781036167
1.3304007820136852
1.3069403714565004
1.2864125122189638
1.2649071358748778
1.2434017595307918
1.2218963831867058
1.2023460410557183
1.18475073313783
1.1691104594330402
1.1544477028347997
1.1407624633431086
1.1270772238514175
1.1133919843597262
1.1055718475073313
1.099706744868035
1.0918866080156402
1.0850439882697946
1.078201368523949
1.0733137829912025
1.0694037145650048
1.0654936461388074
1.0606060606060606
1.0557184750733135
1.0488758553274682
1.040078201368524
1.0303030303030305
1.0254154447702837
1.021505376344086
1.0146627565982405
1.0039100684261977
0.9941348973607038
0.9912023460410556
1.0039100684261977
1.040078201368524
1.1085043988269794
1.2130987292277615
1.3528836754643203
1.5190615835777126
1.6764418377321604
1.8269794721407624
1.9931573802541545
2.1544477028347995
2.3010752688172045
2.429130009775171
2.536656891495601
2.624633431085044
2.695014662756598
2.750733137829912
2.791788856304985
2.820136852394917
2.838709677419355
2.844574780058651
2.8396871945259043
2.8299120234604107
2.812316715542522
2.782991202346041
2.742913000977517
2.6930596285435
2.634408602150537
2.56891495601173
2.4975562072336266
2.421309872922776
2.345063538611926
2.278592375366569
2.219941348973607
2.1622678396871944
2.1094819159335287
2.06158357771261
2.0195503421309877
1.981427174975562
1.946236559139785
1.911045943304008
1.8758553274682308
1.8406647116324533
1.8064516129032255
1.772238514173998
1.7419354838709675
1.7145650048875856
1.683284457478006
1.651026392961877
1.6187683284457477
1.587487781036168
1.555229716520039
1.5239491691104594
1.4936461388074291
1.4633431085043989
1.4330400782013686
1.404692082111437
1.3822091886608017
1.3636363636363635
1.3411534701857282
1.3186705767350928
1.2971652003910068
1.2766373411534702
1.2580645161290325
1.2394916911045943
1.2209188660801564
1.2043010752688172
1.1886608015640274
1.173998044965787
1.1612903225806452
1.1544477028347997
1.1495601173020529
1.1436950146627567
1.1378299120234605
1.1329423264907137
1.1290322580645162
1.126099706744868
1.1231671554252198
1.1202346041055715
1.1173020527859236
1.1124144672531768
1.10752688172043
1.1055718475073313
1.104594330400782
1.1006842619745845
1.0948191593352885
1.086021505376344
1.0772238514173995
1.0703812316715542
1.072336265884653
1.0918866080156402
1.1358748778103618
1.2121212121212122
1.324535679374389
1.4682306940371457
1.6109481915933528
1.7556207233626588
1.9227761485826005
2.0928641251221896
2.2521994134897363
2.3929618768328447
2.5112414467253177
2.608993157380254
2.687194525904203
2.748778103616813
2.7966764418377323
2.832844574780059
2.8533724340175954
2.86217008797654
2.8670576735092865
2.866080156402737
2.857282502443793
2.8396871945259043
2.812316715542522
2.773216031280548
2.7233626588465296
2.664711632453568
2.5962854349951123
2.52297165200391
2.447702834799609
2.3812316715542523
2.321603128054741
2.2629521016617797
2.209188660801564
2.1622678396871944
2.121212121212121
2.0840664711632453
2.050830889540567
2.018572825024438
1.9872922776148585
1.9560117302052784
1.9237536656891496
1.895405669599218
1.869012707722385
1.8406647116324533
1.8103616813294232
1.780058651026393
1.7497556207233629
1.7194525904203324
1.689149560117302
1.6598240469208212
1.6314760508308896
1.6041055718475072
1.5777126099706744
1.552297165200391
1.530791788856305
1.512218963831867
1.490713587487781
1.4682306940371457
1.4467253176930597
1.426197458455523
1.4066471163245358
1.388074291300098
1.3714565004887584
1.3558162267839686
1.3401759530791788
1.3255131964809383
1.3147605083088951
1.305962854349951
1.295210166177908
1.284457478005865
1.2746823069403714
1.2658846529814272
1.2561094819159335
1.24633431085044
1.2365591397849462
1.2258064516129032
1.2150537634408602
1.2052785923753666
1.198435972629521
1.1935483870967742
1.187683284457478
1.1788856304985338
1.166177908113392
1.1505376344086022
1.1358748778103618
1.1280547409579669
1.1348973607038124
1.164222873900293
1.224828934506354
1.3186705767350928
1.444770283479961
1.573802541544477
1.7057673509286413
1.858260019550342
2.0127077223851417
2.157380254154448
2.2854349951124147
2.3929618768328447
2.4789833822091887
2.5464320625610948
2.5992179863147604
2.638318670576735
2.6666666666666665
2.6803519061583576
2.6852394916911044
2.6852394916911044
2.678396871945259
2.6637341153470184
2.638318670576735
2.603128054740958
2.558162267839687
2.5024437927663734
2.4389051808406648
2.36950146627566
2.297165200391007
2.225806451612903
2.164222873900293
2.110459433040078
2.075268817204301
2.0527859237536656
2.0205278592375366
1.9853372434017595
1.9501466275659824
1.9159335288367547
1.8826979472140764
1.8494623655913975
1.8172043010752688
1.7839687194525904
1.7565982404692082
1.7311827956989247
1.7028347996089932
1.6744868035190617
1.6451612903225807
1.6148582600195502
1.58455522971652
1.5532746823069403
1.52297165200391
1.4926686217008798
1.4633431085043989
1.434017595307918
1.4037145650048877
1.3792766373411536
1.3587487781036167
1.335288367546432
1.3118279569892473
1.2883675464320623
1.2649071358748778
1.2424242424242424
1.2209188660801564
1.1994134897360704
1.1798631476050832
1.163245356793744
1.1485826001955035
1.13880742913001
1.1319648093841643
1.1231671554252198
1.1124144672531768
1.1016617790811338
1.0918866080156402
1.083088954056696
1.0733137829912025
1.0635386119257086
1.053763440860215
1.0449657869012707
1.0361681329423265
1.0263929618768328
1.0195503421309873
1.013685239491691
1.0039100684261977
0.997067448680352
1.002932551319648
1.032258064516129
1.093841642228739
1.1945259042033236
1.3333333333333333
1.501466275659824
1.689149560117302
1.8826979472140764
2.047898338220919
2.188660801564027
2.3313782991202348
2.462365591397849
2.5747800586510263
2.6695992179863146
2.745845552297165
2.807429130009776
2.8563049853372435
2.895405669599218
2.9237536656891496
2.943304007820137
2.9550342130987293
2.9550342130987293
2.946236559139785
2.9335288367546437
2.913000977517106
2.881720430107527
2.8396871945259043
2.7859237536656893
2.720430107526881
2.64613880742913
2.5650048875855327
2.479960899315738
2.3958944281524928
2.32355816226784
2.260019550342131
2.198435972629521
2.142717497556207
2.0948191593352883
2.0527859237536656
2.0146627565982405
1.9775171065493649
1.9403714565004888
1.903225806451613
1.8670576735092863
1.83088954056696
1.7956989247311828
1.7663734115347018
1.7380254154447703
1.70772238514174
1.6774193548387095
1.64613880742913
1.6148582600195502
1.5826001955034212
1.5513196480938416
1.520039100684262
1.4897360703812317
1.4604105571847508
1.43108504398827
1.4086021505376345
1.3900293255131966
1.367546432062561
1.3440860215053765
1.3235581622678396
1.3040078201368523
1.2864125122189638
1.2717497556207231
1.2580645161290325
1.2453567937438903
1.2336265884652982
1.2238514173998043
1.2140762463343109
1.2072336265884651
1.2023460410557183
1.1945259042033236
1.1857282502443791
1.1759530791788857
1.1671554252199414
1.1573802541544478
1.1456500488758554
1.1329423264907137
1.1192570869990224
1.1036168132942326
1.0869990224828934
1.0772238514173995
1.078201368523949
1.0918866080156402
1.1300097751710656
1.2013685239491692
1.3088954056695992
1.4516129032258065
1.6207233626588464
1.8074291300097751
1.9980449657869013
2.179863147605083
2.3440860215053765
2.484848484848485
2.5884652981427174
2.6666666666666665
2.739980449657869
2.8044965786901277
2.859237536656892
2.9042033235581624
2.941348973607038
2.9696969696969697
2.9902248289345064
3.002932551319648
3.007820136852395
3.003910068426197
2.9902248289345064
2.9667644183773216
2.935483870967742
2.8914956011730206
2.8367546432062563
2.7702834799608995
2.6940371456500487
2.6099706744868034
2.5219941348973607
2.4330400782013686
2.347018572825025
2.2668621700879767
2.20039100684262
2.1436950146627565
2.088954056695992
2.038123167155425
1.992179863147605
1.9501466275659824
1.9090909090909087
1.869012707722385
1.827956989247312
1.7878787878787878
1.7497556207233629
1.7126099706744868
1.675464320625611
1.6441837732160314
1.6148582600195502
1.581622678396872
1.5464320625610948
1.5102639296187683
1.4750733137829912
1.439882697947214
1.4086021505376345
1.3782991202346042
1.3479960899315735
1.3196480938416422
1.2932551319648091
1.273704789833822
1.2580645161290325
1.238514173998045
1.2189638318670577
1.198435972629521
1.1779081133919844
1.1583577712609971
1.1407624633431086
1.126099706744868
1.1124144672531768
1.099706744868035
1.0879765395894427
1.0772238514173995
1.0713587487781036
1.0684261974584557
1.06158357771261
1.0527859237536656
1.0439882697947214
1.035190615835777
1.0273704789833822
1.018572825024438
1.0068426197458455
0.9931573802541545
0.978494623655914
0.967741935483871
0.9667644183773216
0.981427174975562
1.018572825024438
1.088954056695992
1.195503421309873
1.335288367546432
1.5024437927663734
1.6852394916911049
1.871945259042033
2.048875855327468
2.2082111436950145
2.345063538611926
2.4604105571847508
2.5434995112414467
2.6050830889540566
2.662756598240469
2.7126099706744866
2.752688172043011
2.7839687194525906
2.806451612903226
2.8211143695014664
2.825024437927664
2.8181818181818183
2.80058651026393
2.7702834799608995
2.732160312805474
2.684261974584555
2.6236559139784945
2.5513196480938416
2.4701857282502444
2.3841642228739004
2.297165200391007
2.21505376344086
2.139784946236559
2.0772238514174
2.027370478983382
1.9853372434017595
1.948191593352884
1.9178885630498532
1.8914956011730208
1.8631476050830889
1.8328445747800584
1.801564027370479
1.7702834799608993
1.7390029325513197
1.70772238514174
1.6764418377321604
1.64613880742913
1.6148582600195502
1.58455522971652
1.5581622678396871
1.5347018572825024
1.5083088954056696
1.479960899315738
1.4506353861192571
1.4222873900293256
1.393939393939394
1.3665689149560116
1.3421309872922775
1.3186705767350928
1.295210166177908
1.2727272727272727
1.252199413489736
1.2365591397849462
1.224828934506354
1.2111436950146628
1.1974584555229717
1.1837732160312806
1.1710654936461389
1.160312805474096
1.152492668621701
1.1466275659824048
1.141739980449658
1.1368523949169111
1.1319648093841643
1.130987292277615
1.130987292277615
1.1280547409579669
1.1221896383186705
1.1133919843597262
1.1026392961876832
1.0909090909090908
1.0772238514173995
1.0625610948191593
1.0488758553274682
1.0410557184750733
1.0488758553274682
1.0811339198435972
1.130987292277615
1.2052785923753666
1.3196480938416422
1.4672531769305963
1.6383186705767352
1.8211143695014664
2.0009775171065494
2.16911045943304
2.3167155425219943
2.4408602150537635
2.541544477028348
2.622678396871945
2.678396871945259
2.717497556207233
2.7536656891495603
2.7839687194525906
2.806451612903226
2.8211143695014664
2.8269794721407626
2.8240469208211145
2.8103616813294234
2.78494623655914
2.747800586510264
2.7008797653958942
2.643206256109482
2.5835777126099706
2.520039100684262
2.447702834799609
2.3734115347018574
2.302052785923754
