ppg
1.1925708699902249
1.18475073313783
1.1788856304985338
1.1710654936461389
1.1622678396871946
1.1544477028347997
1.1495601173020529
1.147605083088954
1.1515151515151516
1.164222873900293
1.1896383186705768
1.2287390029325511
1.2854349951124144
1.3479960899315735
1.4213098729227762
1.517106549364614
1.6285434995112416
1.7487781036168133
1.8748778103616808
2.0
2.1192570869990224
2.2297165200391005
2.329423264907136
2.41544477028348
2.4887585532746823
2.548387096774193
2.5884652981427174
2.6148582600195502
2.6392961876832843
2.6578690127077222
2.6715542521994133
2.679374389051808
2.681329423264907
2.67644183773216
2.664711632453568
2.64613880742913
2.618768328445748
2.582600195503421
2.5425219941348973
2.498533724340176
2.44672531769306
2.389051808406647
2.329423264907136
2.269794721407625
2.2130987292277613
2.1622678396871944
2.117302052785924
2.0791788856304985
2.047898338220919
2.021505376344086
2.0
1.9824046920821117
1.967741935483871
1.9530791788856303
1.9374389051808407
1.920821114369501
1.903225806451613
1.8826979472140764
1.8602150537634408
1.836754643206256
1.8113391984359728
1.7849462365591398
1.7575757575757576
1.7331378299120237
1.7086999022482894
1.6803519061583578
1.6500488758553276
1.6187683284457477
1.5884652981427174
1.5581622678396871
1.5288367546432062
1.501466275659824
1.4760508308895406
1.452590420332356
1.4301075268817205
1.4105571847507332
1.396871945259042
1.3851417399804498
1.3734115347018572
1.3607038123167154
1.3499511241446724
1.3411534701857282
1.332355816226784
1.324535679374389
1.3176930596285434
1.310850439882698
1.3049853372434017
1.2991202346041055
1.2971652003910068
1.2971652003910068
1.2961876832844574
1.2942326490713587
1.29227761485826
1.289345063538612
1.2864125122189638
1.2825024437927663
1.2795698924731185
1.2766373411534702
1.2727272727272727
1.2688172043010753
1.2649071358748778
1.2639296187683284
1.2639296187683284
1.2619745845552297
1.2580645161290325
1.2551319648093842
1.2531769305962854
1.252199413489736
1.2512218963831867
1.2512218963831867
1.252199413489736
1.2531769305962854
1.2551319648093842
1.2580645161290325
1.262952101661779
1.2668621700879763
1.270772238514174
1.2776148582600195
1.2913000977517106
1.3147605083088951
1.3519061583577712
1.404692082111437
1.4750733137829912
1.564027370478983
1.6686217008797657
1.7839687194525904
1.889540566959922
1.989247311827957
2.099706744868035
2.209188660801564
2.3118279569892475
2.404692082111437
2.4858260019550342
2.5542521994134897
2.611925708699902
2.659824046920821
2.699902248289345
2.7331378299120237
2.7546432062561097
2.768328445747801
2.782991202346041
2.795698924731183
2.803519061583578
2.806451612903226
2.8025415444770285
2.790811339198436
2.7722385141739982
2.744868035190616
2.7096774193548385
2.665689149560117
2.6148582600195502
2.563049853372434
2.5083088954056696
2.4457478005865103
2.3812316715542523
2.3167155425219943
2.254154447702835
2.1955034213098727
2.142717497556207
2.096774193548387
2.0576735092864125
2.0234604105571847
1.9931573802541545
1.967741935483871
1.946236559139785
1.924731182795699
1.903225806451613
1.8807429130009776
1.858260019550342
1.835777126099707
1.812316715542522
1.7878787878787878
1.7624633431085044
1.7360703812316716
1.70772238514174
1.678396871945259
1.6549364613880744
1.6334310850439884
1.6099706744868034
1.5865102639296187
1.563049853372434
1.5395894428152492
1.517106549364614
1.4965786901270772
1.47702834799609
1.436950146627566
1.3861192570869991
1.3528836754643203
1.332355816226784
1.3196480938416422
1.3069403714565004
1.295210166177908
1.2834799608993157
1.2727272727272727
1.2609970674486803
1.2502443792766371
1.2404692082111437
1.2316715542521994
1.2238514173998043
1.2160312805474096
1.2111436950146628
1.2082111436950147
1.2013685239491692
1.1915933528836755
1.1798631476050832
1.1671554252199414
1.1534701857282503
1.1378299120234605
1.121212121212121
1.1065493646138806
1.0928641251221896
1.0801564027370478
1.0684261974584557
1.0625610948191593
1.0596285434995112
1.0547409579667644
1.0498533724340176
1.0469208211143697
1.04594330400782
1.0469208211143697
1.0488758553274682
1.0527859237536656
1.056695992179863
1.06158357771261
1.0664711632453567
1.0733137829912025
1.0801564027370478
1.0879765395894427
1.0987292277614855
1.115347018572825
1.142717497556207
1.18475073313783
1.24633431085044
1.3284457478005864
1.4320625610948192
1.5542521994134897
1.6920821114369502
1.8406647116324533
1.9726295210166176
2.0948191593352883
2.2277614858260018
2.358748778103617
2.479960899315738
2.587487781036168
2.681329423264907
2.7595307917888565
2.825024437927664
2.877810361681329
2.920821114369501
2.95405669599218
2.973607038123167
2.983382209188661
2.995112414467253
3.003910068426197
3.0087976539589443
3.005865102639296
2.995112414467253
2.975562072336266
2.945259042033236
2.903225806451613
2.850439882697948
2.7869012707722387
2.716520039100684
2.6471163245356792
2.5777126099706744
2.501466275659824
2.4242424242424243
2.3489736070381237
2.278592375366569
2.2160312805474094
2.160312805474096
2.112414467253177
2.070381231671554
2.034213098729228
2.002932551319648
1.9765395894428155
1.9521016617790807
1.9257086999022484
1.8983382209188664
1.8699902248289344
1.8416422287390029
1.8113391984359728
1.780058651026393
1.7468230694037146
1.7135874877810362
1.678396871945259
1.643206256109482
1.6080156402737047
1.5786901270772238
1.552297165200391
1.52297165200391
1.4936461388074291
1.4643206256109482
1.4349951124144673
1.4056695992179864
1.3792766373411536
1.3548387096774193
1.332355816226784
1.3118279569892473
1.29227761485826
1.2795698924731185
1.2688172043010753
1.2561094819159335
1.2434017595307918
1.23069403714565
1.2179863147605083
1.206256109481916
1.1945259042033236
1.181818181818182
1.1700879765395895
1.1573802541544478
1.1436950146627567
1.1290322580645162
1.1192570869990224
1.110459433040078
1.099706744868035
1.0879765395894427
1.0772238514173995
1.067448680351906
1.0596285434995112
1.053763440860215
1.0498533724340176
1.0488758553274682
1.050830889540567
1.0557184750733135
1.0654936461388074
1.0772238514173995
1.0879765395894427
1.099706744868035
1.1124144672531768
1.1251221896383188
1.1368523949169111
1.147605083088954
1.1573802541544478
1.1671554252199414
1.176930596285435
1.1857282502443791
1.195503421309873
1.2072336265884651
1.219941348973607
1.2336265884652982
1.2531769305962854
1.2805474095796676
1.3196480938416422
1.3743890518084063
1.4467253176930597
1.5395894428152492
1.6500488758553276
1.7761485826001957
1.9130009775171064
2.034213098729228
2.144672531769306
2.2639296187683287
2.3792766373411536
2.4838709677419355
2.573802541544477
2.649071358748778
2.7096774193548385
2.758553274682307
2.795698924731183
2.8240469208211145
2.8455522971652005
2.859237536656892
2.863147605083089
2.860215053763441
2.8563049853372435
2.84652981427175
2.8299120234604107
2.806451612903226
2.773216031280548
2.7311827956989245
2.6803519061583576
2.6207233626588464
2.5532746823069403
2.4809384164222874
2.412512218963832
2.347996089931574
2.281524926686217
2.217986314760508
2.157380254154448
2.103616813294233
2.0576735092864125
2.0175953079178885
1.981427174975562
1.949169110459433
1.919843597262952
1.8914956011730208
1.8631476050830889
1.8387096774193548
1.8162267839687196
1.790811339198436
1.7634408602150538
1.7350928641251222
1.704789833822092
1.6744868035190617
1.6422287390029326
1.608993157380254
1.5757575757575757
1.543499511241447
1.5112414467253177
1.4848484848484849
1.4623655913978495
1.436950146627566
1.4115347018572826
1.388074291300098
1.3655913978494625
1.3440860215053765
1.3235581622678396
1.3040078201368523
1.2864125122189638
1.2697947214076246
1.2551319648093842
1.2424242424242424
1.2346041055718475
1.2297165200391007
1.1564027370478984
1.1456500488758554
1.1300097751710656
1.1221896383186705
1.118279569892473
1.115347018572825
1.1124144672531768
1.110459433040078
1.1094819159335287
1.110459433040078
1.115347018572825
1.126099706744868
1.1456500488758554
1.1779081133919844
1.2267839687194526
1.2961876832844574
1.3870967741935485
1.4975562072336266
1.6256109481915937
1.7663734115347018
1.913978494623656
2.0625610948191597
2.188660801564027
2.297165200391007
2.409579667644184
2.5141739980449658
2.6050830889540566
2.6823069403714563
2.745845552297165
2.7966764418377323
2.8367546432062563
2.868035190615836
2.89247311827957
2.911045943304008
2.9237536656891496
2.9266862170087977
2.920821114369501
2.9120234604105573
2.897360703812317
2.874877810361681
2.843597262952102
2.8025415444770285
2.7517106549364616
2.6911045943304006
2.622678396871945
2.548387096774193
2.4701857282502444
2.39980449657869
2.334310850439883
2.267839687194526
2.204301075268817
2.146627565982405
2.0957966764418376
2.0518084066471163
2.013685239491691
1.9804496578690127
1.9501466275659824
1.921798631476051
1.895405669599218
1.869012707722385
1.844574780058651
1.8211143695014664
1.793743890518084
1.7634408602150538
1.732160312805474
1.699902248289345
1.6666666666666667
1.6334310850439884
1.5992179863147604
1.565982404692082
1.533724340175953
1.501466275659824
1.474095796676442
1.4506353861192571
1.4252199413489737
1.3988269794721409
1.3724340175953078
1.3479960899315735
1.324535679374389
1.3020527859237536
1.281524926686217
1.2609970674486803
1.2424242424242424
1.224828934506354
1.209188660801564
1.1994134897360704
1.1925708699902249
1.18475073313783
1.093841642228739
1.0928641251221896
1.0909090909090908
1.088954056695992
1.086021505376344
1.083088954056696
1.0801564027370478
1.078201368523949
1.078201368523949
1.0821114369501466
1.0928641251221896
1.1114369501466277
1.141739980449658
1.1896383186705768
1.2580645161290325
1.348973607038123
1.4613880742913
1.5913978494623655
1.7331378299120237
1.8807429130009776
2.0283479960899315
2.1700879765395893
2.2854349951124147
2.380254154447703
2.4760508308895406
2.5620723362658846
2.6373411534701856
2.7008797653958942
2.752688172043011
2.7947214076246336
2.8289345063538613
2.855327468230694
2.874877810361681
2.8885630498533725
2.8914956011730206
2.886608015640274
2.8797653958944283
2.866080156402737
2.843597262952102
2.811339198435973
2.7702834799608995
2.719452590420332
2.658846529814272
2.591397849462365
2.5190615835777126
2.442815249266862
2.366568914956012
2.300097751710655
2.239491691104594
2.1788856304985336
2.12316715542522
2.072336265884653
2.0283479960899315
1.9902248289345064
1.956989247311828
1.927663734115347
1.900293255131965
1.8748778103616808
1.8494623655913975
1.826001955034213
1.801564027370479
1.7741935483870968
1.7438905180840665
1.710654936461388
1.6764418377321604
1.6412512218963833
1.606060606060606
1.5708699902248289
1.5366568914956011
1.5034213098729228
1.4721407624633431
1.4428152492668622
1.418377321603128
1.396871945259042
1.3734115347018572
1.3499511241446724
1.3264907135874875
1.3049853372434017
1.2854349951124144
1.267839687194526
1.2512218963831867
1.2355816226783969
1.2209188660801564
1.206256109481916
1.1964809384164223
1.1896383186705768
1.1798631476050832
1.1681329423264908
1.1564027370478984
1.1456500488758554
1.1368523949169111
1.1290322580645162
1.1231671554252198
1.118279569892473
1.1143695014662756
1.110459433040078
1.1094819159335287
1.1094819159335287
1.1065493646138806
1.1026392961876832
1.0987292277614855
1.093841642228739
1.088954056695992
1.086021505376344
1.083088954056696
1.0801564027370478
1.0772238514173995
1.0733137829912025
1.0703812316715542
1.0713587487781036
1.0742913000977516
1.075268817204301
1.0762463343108504
1.0762463343108504
1.0762463343108504
1.0762463343108504
1.075268817204301
1.0733137829912025
1.0703812316715542
1.0684261974584557
1.0694037145650048
1.0762463343108504
1.0899315738025417
1.1143695014662756
1.1544477028347997
1.2121212121212122
1.2913000977517106
1.3919843597262953
1.512218963831867
1.6480938416422288
1.793743890518084
1.943304007820137
2.090909090909091
2.2297165200391005
2.340175953079179
2.43108504398827
2.5219941348973607
2.6041055718475072
2.674486803519061
2.732160312805474
2.779081133919844
2.8152492668621703
2.844574780058651
2.868035190615836
2.8993157380254155
2.9315738025415445
2.9423264907135875
2.9393939393939394
2.930596285434995
2.913000977517106
2.884652981427175
2.8455522971652005
2.7947214076246336
2.732160312805474
2.659824046920821
2.5806451612903225
2.498533724340176
2.4164222873900294
2.3274682306940373
2.2551319648093844
2.203323558162268
2.1495601173020527
2.0987292277614857
2.0527859237536656
2.010752688172043
1.9745845552297163
1.9413489736070384
1.9120234604105573
1.884652981427175
1.857282502443793
1.8299120234604105
1.8054740957966764
1.7810361681329423
1.7526881720430108
1.7223851417399805
1.6803519061583578
1.6422287390029326
1.6138807429130009
1.5806451612903225
1.5464320625610948
1.5112414467253177
1.4760508308895406
1.4408602150537635
1.4066471163245358
1.3792766373411536
1.3548387096774193
1.3294232649071358
1.3040078201368523
1.2795698924731185
1.2512218963831867
1.227761485826002
1.2121212121212122
1.1964809384164223
1.1808406647116323
1.164222873900293
1.1485826001955035
1.13880742913001
1.1329423264907137
1.1251221896383188
1.1173020527859236
1.1094819159335287
1.099706744868035
1.0909090909090908
1.0850439882697946
1.0791788856304985
1.0703812316715542
1.06158357771261
1.0557184750733135
1.0527859237536656
1.0518084066471165
1.0527859237536656
1.0527859237536656
1.0527859237536656
1.0527859237536656
1.0527859237536656
1.0518084066471165
1.0498533724340176
1.0488758553274682
1.0488758553274682
1.0488758553274682
1.050830889540567
1.0518084066471165
1.050830889540567
1.0488758553274682
1.0469208211143697
1.04594330400782
1.0449657869012707
1.043010752688172
1.0410557184750733
1.040078201368524
1.040078201368524
1.0449657869012707
1.056695992179863
1.0742913000977516
1.1036168132942326
1.1495601173020529
1.217008797653959
1.3088954056695992
1.4252199413489737
1.5610948191593352
1.7116324535679377
1.870967741935484
2.032258064516129
2.188660801564027
2.333333333333333
2.447702834799609
2.539589442815249
2.631476050830889
2.7145650048875853
2.7859237536656893
2.8455522971652005
2.8944281524926687
2.935483870967742
2.9687194525904204
2.994134897360704
3.0127077223851417
3.024437927663734
3.027370478983382
3.018572825024438
3.0009775171065494
2.9775171065493646
2.9442815249266863
2.9012707722385143
2.850439882697948
2.789833822091887
2.720430107526881
2.6451612903225805
2.565982404692082
2.484848484848485
2.404692082111437
2.334310850439883
2.270772238514174
2.2082111436950145
2.1495601173020527
2.0957966764418376
2.047898338220919
2.005865102639296
1.9696969696969695
1.9364613880742916
1.906158357771261
1.87683284457478
1.847507331378299
1.8162267839687196
1.7878787878787878
1.7605083088954057
1.729227761485826
1.6950146627565983
1.6588465298142718
1.6217008797653958
1.5835777126099706
1.544477028347996
1.5063538611925709
1.469208211143695
1.4349951124144673
1.401759530791789
1.3743890518084063
1.3499511241446724
1.3235581622678396
1.2971652003910068
1.2727272727272727
1.249266862170088
1.2267839687194526
1.206256109481916
1.187683284457478
1.1710654936461389
1.155425219941349
1.1407624633431086
1.1270772238514175
1.118279569892473
1.1124144672531768
1.1036168132942326
1.0948191593352885
1.0869990224828934
1.078201368523949
1.0694037145650048
1.0606060606060606
1.0527859237536656
1.04594330400782
1.040078201368524
1.0342130987292275
1.032258064516129
1.032258064516129
1.029325513196481
1.0254154447702837
1.0205278592375366
1.0156402737047898
1.010752688172043
1.0048875855327468
1.0
0.9960899315738024
0.9931573802541545
0.9912023460410556
0.9931573802541545
0.997067448680352
0.9990224828934506
1.0
0.9990224828934506
0.9960899315738024
0.9931573802541545
0.9882697947214076
0.981427174975562
0.9726295210166178
0.9618768328445748
0.9511241446725318
0.9442815249266864
0.9442815249266864
0.95405669599218
0.975562072336266
1.0146627565982405
1.075268817204301
1.160312805474096
1.2697947214076246
1.4007820136852396
1.547409579667644
1.7018572825024438
1.8592375366568916
2.010752688172043
2.134897360703812
2.2385141739980448
2.3411534701857284
2.434017595307918
2.5131964809384164
2.576735092864125
2.627565982404692
2.6666666666666665
2.696969696969697
2.720430107526881
2.739980449657869
2.755620723362659
2.768328445747801
2.7722385141739982
2.76930596285435
2.763440860215054
2.747800586510264
2.718475073313783
2.6725317693059627
2.6080156402737047
2.52297165200391
2.421309872922776
2.304985337243402
2.179863147605083
2.050830889540567
1.9374389051808407
1.835777126099707
1.7302052785923754
1.6275659824046922
1.5347018572825024
1.4535679374389052
1.3861192570869991
1.3333333333333333
1.2942326490713587
1.2658846529814272
1.24633431085044
1.2365591397849462
1.2336265884652982
1.2355816226783969
1.241446725317693
1.2482893450635386
1.2561094819159335
1.2746823069403714
1.2971652003910068
1.3098729227761483
1.316715542521994
1.321603128054741
1.3255131964809383
1.3284457478005864
1.332355816226784
1.33822091886608
1.343108504398827
1.346041055718475
1.3470185728250244
1.3479960899315735
1.3479960899315735
1.3479960899315735
1.3479960899315735
1.3479960899315735
1.3479960899315735
1.3479960899315735
1.3479960899315735
1.3479960899315735
1.348973607038123
1.3509286412512218
1.3519061583577712
1.3509286412512218
1.348973607038123
1.3470185728250244
1.3450635386119256
1.3421309872922775
1.3372434017595307
1.3313782991202343
1.3235581622678396
1.313782991202346
1.305962854349951
1.2991202346041055
1.2883675464320623
1.2756598240469208
1.2619745845552297
1.2473118279569892
1.2326490713587488
1.2189638318670577
1.2072336265884651
1.1964809384164223
1.187683284457478
1.1788856304985338
1.1710654936461389
1.1681329423264908
1.1681329423264908
1.1652003910068427
1.1612903225806452
1.155425219941349
1.1495601173020529
1.142717497556207
1.1348973607038124
1.1280547409579669
1.1231671554252198
1.1241446725317692
1.1348973607038124
1.155425219941349
1.1896383186705768
1.2443792766373412
1.321603128054741
1.4222873900293256
1.544477028347996
1.683284457478006
1.833822091886608
1.989247311827957
2.142717497556207
2.290322580645161
2.4281524926686218
2.5513196480938416
2.64613880742913
2.720430107526881
2.793743890518084
2.860215053763441
2.917888563049853
2.967741935483871
3.010752688172043
3.04594330400782
3.0733137829912023
3.093841642228739
3.10752688172043
3.113391984359726
3.1055718475073317
3.0869990224828934
3.0625610948191597
3.029325513196481
2.986314760508309
2.9335288367546437
2.8699902248289346
2.7976539589442817
2.719452590420332
2.638318670576735
2.5562072336265884
2.4760508308895406
2.398826979472141
2.332355816226784
2.274682306940372
2.218963831867057
2.1681329423264906
2.124144672531769
2.085043988269794
2.0518084066471163
2.0205278592375366
1.9902248289345064
1.9608993157380252
1.9335288367546437
1.906158357771261
1.881720430107527
1.857282502443793
1.828934506353861
1.796676441837732
1.7624633431085044
1.7282502443792769
1.6930596285434996
1.6578690127077225
1.6226783968719452
1.5894428152492668
1.5562072336265884
1.5249266862170088
1.495601173020528
1.4711632453567938
1.4506353861192571
1.4271749755620724
1.4037145650048877
1.380254154447703
1.3587487781036167
1.3391984359726294
1.3206256109481915
1.3020527859237536
1.2854349951124144
1.270772238514174
1.2570869990224829
1.2473118279569892
1.2394916911045943
1.2297165200391007
1.219941348973607
1.2101661779081134
1.2003910068426198
1.1915933528836755
1.1837732160312806
1.176930596285435
1.1700879765395895
1.163245356793744
1.155425219941349
1.147605083088954
1.1436950146627567
1.141739980449658
1.13880742913001
1.1358748778103618
1.1329423264907137
1.1300097751710656
1.1270772238514175
1.1251221896383188
1.1221896383186705
1.1202346041055715
1.1173020527859236
1.1143695014662756
1.1133919843597262
1.1143695014662756
1.1143695014662756
1.1143695014662756
1.1124144672531768
1.110459433040078
1.1094819159335287
1.1094819159335287
1.1094819159335287
1.110459433040078
1.1163245356793745
1.1300097751710656
1.152492668621701
1.187683284457478
1.241446725317693
1.316715542521994
1.41544477028348
1.5356793743890518
1.6735092864125125
1.823069403714565
1.978494623655914
2.132942326490713
2.280547409579668
2.4164222873900294
2.5376344086021505
2.6295210166177907
2.7008797653958942
2.7702834799608995
2.831867057673509
2.8856304985337244
2.9315738025415445
2.9696969696969697
3.0009775171065494
3.027370478983382
3.046920821114369
3.059628543499511
3.065493646138808
3.060606060606061
3.04594330400782
3.0254154447702835
2.997067448680352
2.9589442815249267
2.9100684261974585
2.8514173998044967
2.7839687194525906
2.708699902248289
2.627565982404692
2.544477028347996
2.4613880742913
2.380254154447703
2.3098729227761488
2.24633431085044
2.1847507331378297
2.1280547409579667
2.0772238514174
2.0332355816226784
1.9960899315738023
1.962854349951124
1.932551319648094
1.9042033235581624
1.8748778103616808
1.844574780058651
1.8172043010752688
1.790811339198436
1.761485826001955
1.7302052785923754
1.696969696969697
1.66177908113392
1.6265884652981428
1.5913978494623655
1.5562072336265884
1.521994134897361
1.4887585532746823
1.456500488758553
1.4252199413489737
1.3998044965786902
1.3773216031280548
1.3519061583577712
1.3264907135874875
1.303030303030303
1.2825024437927663
1.262952101661779
1.2443792766373412
1.2267839687194526
1.209188660801564
1.1935483870967742
1.1798631476050832
1.1700879765395895
1.1622678396871946
1.152492668621701
1.1407624633431086
1.1300097751710656
1.1202346041055715
1.1114369501466277
1.104594330400782
1.0987292277614855
1.093841642228739
1.088954056695992
1.0635386119257086
1.0283479960899315
1.0117302052785924
1.0039100684261977
0.997067448680352
0.9912023460410556
0.9853372434017597
0.9794721407624634
0.9736070381231672
0.9687194525904204
0.9638318670576737
0.959921798631476
0.9579667644183774
0.956989247311828
0.9589442815249268
0.9618768328445748
0.9618768328445748
0.959921798631476
0.9579667644183774
0.9560117302052786
0.95405669599218
0.9530791788856304
0.9521016617790812
0.9521016617790812
0.95405669599218
0.959921798631476
0.9736070381231672
0.9960899315738024
1.0283479960899315
1.0791788856304985
1.1515151515151516
1.2453567937438903
1.3607038123167154
1.4926686217008798
1.635386119257087
1.782991202346041
1.9296187683284456
2.0684261974584555
2.1955034213098727
2.294232649071359
2.3714565004887587
2.44672531769306
2.512218963831867
2.567937438905181
2.6129032258064515
2.650048875855328
2.679374389051808
2.702834799608993
2.719452590420332
2.730205278592375
2.7341153470185726
2.7311827956989245
2.720430107526881
2.701857282502444
2.677419354838709
2.644183773216031
2.60019550342131
2.5454545454545454
2.482893450635386
2.4144672531769307
2.3411534701857284
2.2668621700879767
2.1945259042033234
2.126099706744868
2.0684261974584555
2.018572825024438
1.970674486803519
1.927663734115347
1.889540566959922
1.855327468230694
1.825024437927664
1.796676441837732
1.7702834799608993
1.7448680351906158
1.718475073313783
1.6911045943304008
1.6637341153470186
1.6383186705767352
1.6148582600195502
1.587487781036168
1.5581622678396871
1.5268817204301075
1.4946236559139785
1.4623655913978495
1.4291300097751711
1.3958944281524928
1.3616813294232648
1.3294232649071358
1.2991202346041055
1.2756598240469208
1.2561094819159335
1.2355816226783969
