ppg
2.576735092864125
2.619745845552297
2.6392961876832843
2.6402737047898337
2.6236559139784945
2.595307917888563
2.558162267839687
2.5112414467253177
2.458455522971652
2.404692082111437
2.3499511241446727
2.2961876832844577
2.243401759530792
2.1915933528836757
2.1388074291300097
2.090909090909091
2.04594330400782
1.994134897360704
1.9374389051808407
1.8778103616813293
1.8172043010752688
1.7595307917888563
1.7028347996089932
1.6490713587487782
1.6021505376344083
1.563049853372434
1.533724340175953
1.5151515151515151
1.5053763440860215
1.504398826979472
1.5131964809384164
1.5298142717497556
1.5562072336265884
1.5884652981427174
1.619745845552297
1.6480938416422288
1.672531769305963
1.6911045943304008
1.7028347996089932
1.70772238514174
1.70772238514174
1.7018572825024438
1.6920821114369502
1.6793743890518085
1.6656891495601174
1.651026392961877
1.6334310850439884
1.6129032258064515
1.5913978494623655
1.5669599217986314
1.5395894428152492
1.5102639296187683
1.4858260019550342
1.4633431085043989
1.4349951124144673
1.4037145650048877
1.370478983382209
1.3372434017595307
1.310850439882698
1.3010752688172045
1.313782991202346
1.356793743890518
1.434017595307918
1.547409579667644
1.6901270772238517
1.827956989247312
1.9608993157380252
2.1094819159335287
2.2502443792766376
2.3714565004887587
2.466275659824047
2.5317693059628543
2.5698924731182795
2.58455522971652
2.5806451612903225
2.5620723362658846
2.533724340175953
2.5004887585532747
2.4613880742913
2.4134897360703813
2.361681329423265
2.3098729227761488
2.257086999022483
2.2023460410557183
2.146627565982405
2.090909090909091
2.035190615835777
1.978494623655914
1.919843597262952
1.8602150537634408
1.8084066471163245
1.761485826001955
1.7086999022482894
1.6559139784946235
1.6050830889540566
1.5581622678396871
1.517106549364614
1.4848484848484849
1.4652981427174976
1.456500488758553
1.458455522971652
1.4721407624633431
1.4916911045943304
1.5151515151515151
1.543499511241447
1.5718475073313782
1.5992179863147604
1.6256109481915937
1.6480938416422288
1.6656891495601174
1.678396871945259
1.6852394916911049
1.6842619745845553
1.6774193548387095
1.664711632453568
1.6490713587487782
1.632453567937439
1.6129032258064515
1.5923753665689149
1.5718475073313782
1.5513196480938416
1.5288367546432062
1.5024437927663734
1.4750733137829912
1.4486803519061584
1.423264907135875
1.3958944281524928
1.3734115347018572
1.3558162267839686
1.3421309872922775
1.3440860215053765
1.3734115347018572
1.4349951124144673
1.5298142717497556
1.6559139784946235
1.8054740957966764
1.967741935483871
2.1300097751710654
2.281524926686217
2.4115347018572826
2.504398826979472
2.5669599217986314
2.6148582600195502
2.644183773216031
2.653958944281525
2.6451612903225805
2.619745845552297
2.58455522971652
2.5425219941348973
2.493646138807429
2.439882697947214
2.3851417399804498
2.335288367546432
2.2883675464320627
2.2385141739980448
2.1847507331378297
2.1280547409579667
2.071358748778104
2.01564027370479
1.9589442815249267
1.8993157380254155
1.8406647116324533
1.7849462365591398
1.732160312805474
1.6813294232649072
1.6412512218963833
1.6080156402737047
1.576735092864125
1.5513196480938416
1.5376344086021505
1.5356793743890518
1.5454545454545454
1.564027370478983
1.587487781036168
1.6138807429130009
1.643206256109482
1.6705767350928642
1.694037145650049
1.7135874877810362
1.7282502443792769
1.7380254154447703
1.7429130009775171
1.7419354838709675
1.7350928641251222
1.7233626588465298
1.7086999022482894
1.6901270772238517
1.6686217008797657
1.6451612903225807
1.6217008797653958
1.603128054740958
1.585532746823069
1.564027370478983
1.5405669599217986
1.5131964809384164
1.4858260019550342
1.457478005865103
1.4281524926686218
1.3998044965786902
1.3782991202346042
1.3724340175953078
1.3919843597262953
1.43108504398827
1.495601173020528
1.5972629521016617
1.729227761485826
1.8836754643206255
2.0498533724340176
2.210166177908113
2.3519061583577714
2.472140762463343
2.5669599217986314
2.6295210166177907
2.66177908113392
2.670576735092864
2.66177908113392
2.6402737047898337
2.6080156402737047
2.567937438905181
2.520039100684262
2.4672531769305963
2.4134897360703813
2.357771260997068
2.300097751710655
2.242424242424242
2.185728250244379
2.1300097751710654
2.080156402737048
2.034213098729228
1.9833822091886608
1.9296187683284456
1.871945259042033
1.81524926686217
1.758553274682307
1.7038123167155426
1.653958944281525
1.608993157380254
1.5708699902248289
1.541544477028348
1.52297165200391
1.5161290322580645
1.5190615835777126
1.5317693059628543
1.5532746823069403
1.5806451612903225
1.608993157380254
1.635386119257087
1.6598240469208212
1.6813294232649072
1.696969696969697
1.70772238514174
1.7126099706744868
1.7145650048875856
1.7116324535679377
1.7018572825024438
1.6901270772238517
1.675464320625611
1.6578690127077225
1.6392961876832846
1.6187683284457477
1.595307917888563
1.5698924731182795
1.542521994134897
1.5151515151515151
1.4936461388074291
1.4750733137829912
1.4535679374389052
1.4271749755620724
1.396871945259042
1.3665689149560116
1.3440860215053765
1.3372434017595307
1.3558162267839686
1.404692082111437
1.4887585532746823
1.603128054740958
1.7419354838709675
1.8748778103616808
2.003910068426197
2.145650048875855
2.280547409579668
2.3978494623655915
2.490713587487781
2.5562072336265884
2.595307917888563
2.608993157380254
2.6041055718475072
2.5835777126099706
2.550342130987292
2.5131964809384164
2.472140762463343
2.423264907135875
2.3714565004887587
2.318670576735093
2.264907135874878
2.2082111436950145
2.150537634408602
2.0948191593352883
2.0391006842619745
1.9824046920821117
1.9237536656891496
1.866080156402737
1.8172043010752688
1.772238514173998
1.7223851417399805
1.6715542521994136
1.6217008797653958
1.5757575757575757
1.5347018572825024
1.504398826979472
1.487781036168133
1.4838709677419355
1.4887585532746823
1.504398826979472
1.5249266862170088
1.5493646138807429
1.5796676441837731
1.608993157380254
1.635386119257087
1.6588465298142718
1.6774193548387095
1.6901270772238517
1.6959921798631477
1.6959921798631477
1.689149560117302
1.678396871945259
1.6637341153470186
1.6490713587487782
1.6344086021505375
1.616813294232649
1.5972629521016617
1.573802541544477
1.5464320625610948
1.5180840664711632
1.4897360703812317
1.4633431085043989
1.4349951124144673
1.4037145650048877
1.370478983382209
1.3450635386119256
1.3264907135874875
1.313782991202346
1.3147605083088951
1.33822091886608
1.391006842619746
1.478005865102639
1.5972629521016617
1.7429130009775171
1.902248289345064
2.06158357771261
2.2111436950146626
2.3391984359726297
2.432062561094819
2.4946236559139785
2.5405669599217986
2.5669599217986314
2.5747800586510263
2.5650048875855327
2.541544477028348
2.50733137829912
2.4652981427174976
2.4173998044965788
2.3655913978494625
2.312805474095797
2.2639296187683287
2.21505376344086
2.1622678396871944
2.10752688172043
2.0498533724340176
1.9902248289345064
1.932551319648094
1.8758553274682308
1.8191593352883677
1.7634408602150538
1.7096774193548387
1.6588465298142718
1.611925708699902
1.5747800586510263
1.543499511241447
1.5141739980449658
1.4926686217008798
1.4819159335288368
1.4819159335288368
1.4916911045943304
1.512218963831867
1.5405669599217986
1.5747800586510263
1.6099706744868034
1.6412512218963833
1.6666666666666667
1.6881720430107527
1.7067448680351909
1.7194525904203324
1.7272727272727273
1.7302052785923754
1.7282502443792769
1.7204301075268815
1.70772238514174
1.6901270772238517
1.6686217008797657
1.6471163245356797
1.6236559139784943
1.6021505376344083
1.5835777126099706
1.5610948191593352
1.5347018572825024
1.5083088954056696
1.482893450635386
1.457478005865103
1.43108504398827
1.404692082111437
1.3870967741935485
1.3870967741935485
1.4134897360703813
1.457478005865103
1.5249266862170088
1.629521016617791
1.7663734115347018
1.9237536656891496
2.088954056695992
2.247311827956989
2.386119257086999
2.4995112414467253
2.5835777126099706
2.6402737047898337
2.6725317693059627
2.6832844574780057
2.675464320625611
2.653958944281525
2.6207233626588464
2.579667644183773
2.533724340175953
2.484848484848485
2.432062561094819
2.378299120234604
2.3255131964809386
2.272727272727273
2.2170087976539588
2.160312805474096
2.110459433040078
2.064516129032258
2.013685239491691
1.959921798631476
1.902248289345064
1.844574780058651
1.7888563049853372
1.7360703812316716
1.6881720430107527
1.6451612903225807
1.608993157380254
1.581622678396872
1.5669599217986314
1.563049853372434
1.5698924731182795
1.587487781036168
1.6129032258064515
1.643206256109482
1.6735092864125125
1.7008797653958945
1.7253176930596286
1.7468230694037146
1.7624633431085044
1.772238514173998
1.7790811339198436
1.7820136852394917
1.780058651026393
1.772238514173998
1.761485826001955
1.7448680351906158
1.7243401759530792
1.7018572825024438
1.6774193548387095
1.6500488758553276
1.6217008797653958
1.5923753665689149
1.563049853372434
1.5386119257087
1.5180840664711632
1.4946236559139785
1.466275659824047
1.436950146627566
1.414467253176931
1.4027370478983383
1.4105571847507332
1.4467253176930597
1.5161290322580645
1.619745845552297
1.75366568914956
1.9090909090909087
2.050830889540567
2.179863147605083
2.314760508308896
2.4359726295210167
2.5347018572825024
2.6070381231671558
2.6529814271749754
2.675464320625611
2.677419354838709
2.6608015640273703
2.631476050830889
2.593352883675464
2.552297165200391
2.50733137829912
2.4565004887585533
2.4027370478983383
2.346041055718475
2.2883675464320627
2.23069403714565
2.1730205278592374
2.089931573802541
2.035190615835777
1.9794721407624636
1.8934506353861196
1.842619745845552
1.796676441837732
1.7438905180840665
1.6656891495601174
1.6207233626588464
1.585532746823069
1.5513196480938416
1.542521994134897
1.5464320625610948
1.5620723362658846
1.5865102639296187
1.611925708699902
1.6373411534701858
1.6627565982404693
1.6881720430107527
1.7116324535679377
1.7311827956989247
1.7438905180840665
1.750733137829912
1.7517106549364614
1.7468230694037146
1.737047898338221
1.718475073313783
1.704789833822092
1.6911045943304008
1.6549364613880744
1.6314760508308896
1.6050830889540566
1.563049853372434
1.533724340175953
1.5053763440860215
1.47702834799609
1.4467253176930597
1.4173998044965788
1.3958944281524928
1.3812316715542523
1.3743890518084063
1.3841642228739004
1.4213098729227762
1.4926686217008798
1.598240469208211
1.7302052785923754
1.881720430107527
2.0410557184750733
2.193548387096774
2.3304007820136854
2.443792766373412
2.52297165200391
2.573802541544477
2.608993157380254
2.6265884652981426
2.625610948191593
2.6080156402737047
2.5777126099706744
2.539589442815249
2.493646138807429
2.441837732160313
2.388074291300098
2.3313782991202348
2.2795698924731185
2.23069403714565
2.176930596285435
2.121212121212121
2.065493646138808
2.007820136852395
1.9501466275659824
1.8914956011730208
1.833822091886608
1.7781036168132942
1.7233626588465298
1.6705767350928642
1.6207233626588464
1.5806451612903225
1.5503421309872922
1.52297165200391
1.504398826979472
1.495601173020528
1.4975562072336266
1.5112414467253177
1.533724340175953
1.563049853372434
1.5943304007820136
1.6217008797653958
1.6471163245356797
1.6666666666666667
1.6803519061583578
1.689149560117302
1.6950146627565983
1.696969696969697
1.6950146627565983
1.689149560117302
1.678396871945259
1.6627565982404693
1.6451612903225807
1.6236559139784943
1.598240469208211
1.5708699902248289
1.547409579667644
1.5268817204301075
1.5063538611925709
1.4848484848484849
1.4613880742913
1.435972629521017
1.4076246334310851
1.3782991202346042
1.35386119257087
1.3411534701857282
1.3450635386119256
1.3773216031280548
1.4291300097751711
1.5024437927663734
1.6129032258064515
1.7526881720430108
1.9100684261974583
2.070381231671554
2.220918866080156
2.350928641251222
2.4565004887585533
2.532746823069404
2.5806451612903225
2.6050830889540566
2.6070381231671558
2.593352883675464
2.567937438905181
2.5317693059628543
2.487781036168133
2.4389051808406648
2.388074291300098
2.335288367546432
2.283479960899316
2.23069403714565
2.175953079178885
2.121212121212121
2.0664711632453567
2.018572825024438
1.9745845552297163
1.9286412512218964
1.878787878787879
1.825024437927664
1.7712609970674489
1.7174975562072337
1.6666666666666667
1.6207233626588464
1.5835777126099706
1.555229716520039
1.5376344086021505
1.530791788856305
1.533724340175953
1.544477028347996
1.564027370478983
1.5894428152492668
1.6187683284457477
1.64613880742913
1.672531769305963
1.6979472140762464
1.721407624633431
1.7419354838709675
1.7565982404692082
1.7644183773216031
1.7673509286412512
1.7644183773216031
1.7556207233626588
1.7419354838709675
1.7223851417399805
1.7008797653958945
1.6774193548387095
1.6549364613880744
1.6334310850439884
1.6129032258064515
1.5913978494623655
1.5679374389051808
1.541544477028348
1.517106549364614
1.4926686217008798
1.4652981427174976
1.4408602150537635
1.423264907135875
1.423264907135875
1.4506353861192571
1.512218963831867
1.6099706744868034
1.7390029325513197
1.8885630498533723
2.050830889540567
2.193548387096774
2.317693059628544
2.439882697947214
2.5454545454545454
2.6265884652981426
2.6803519061583576
2.708699902248289
2.7145650048875853
2.701857282502444
2.6725317693059627
2.632453567937439
2.5855327468230693
2.5386119257087
2.490713587487781
2.4379276637341154
2.383186705767351
2.326490713587488
2.269794721407625
2.21505376344086
2.160312805474096
2.1055718475073317
2.0439882697947214
1.9775171065493649
1.9159335288367547
1.8563049853372435
1.8064516129032255
1.7634408602150538
1.715542521994135
1.6686217008797657
1.6275659824046922
1.5943304007820136
1.56891495601173
1.5542521994134897
1.5513196480938416
1.5591397849462365
1.5777126099706744
1.6041055718475072
1.629521016617791
1.653958944281525
1.6793743890518085
1.704789833822092
1.7282502443792769
1.7458455522971652
1.7556207233626588
1.7595307917888563
1.7565982404692082
1.7468230694037146
1.7311827956989247
1.7116324535679377
1.689149560117302
1.6695992179863148
1.651026392961877
1.6285434995112416
2.0821114369501466
2.2453567937438903
2.3929618768328447
2.517106549364614
2.611925708699902
2.673509286412512
2.705767350928641
2.7145650048875853
2.7067448680351904
2.684261974584555
2.6471163245356792
2.6021505376344085
2.552297165200391
2.4975562072336266
2.441837732160313
2.3851417399804498
2.3274682306940373
2.269794721407625
2.2130987292277613
2.156402737047898
2.1065493646138806
2.060606060606061
2.0117302052785924
1.9608993157380252
1.9071358748778104
1.8514173998044965
1.796676441837732
1.7438905180840665
1.6959921798631477
1.6549364613880744
1.6226783968719452
1.6011730205278591
1.5923753665689149
1.5943304007820136
1.606060606060606
1.6275659824046922
1.653958944281525
1.6852394916911049
1.715542521994135
1.7429130009775171
1.7683284457478006
1.7878787878787878
1.801564027370479
1.8084066471163245
1.8084066471163245
1.8035190615835777
1.7947214076246334
1.782991202346041
1.7683284457478006
1.7497556207233629
1.7282502443792769
1.704789833822092
1.6803519061583578
1.653958944281525
1.6256109481915937
1.5972629521016617
1.5679374389051808
1.543499511241447
1.521016617790811
1.4946236559139785
1.4652981427174976
1.435972629521017
1.412512218963832
1.4037145650048877
1.4222873900293256
1.474095796676442
1.5620723362658846
1.686217008797654
1.839687194525904
2.0087976539589443
2.158357771260997
2.289345063538612
2.420332355816227
2.5347018572825024
2.622678396871945
2.681329423264907
2.7126099706744866
2.719452590420332
2.7067448680351904
2.67644183773216
2.633431085043988
2.5835777126099706
2.533724340175953
2.4838709677419355
2.4281524926686218
2.3704789833822093
2.312805474095797
2.2551319648093844
2.1974584555229715
2.1417399804496577
2.086021505376344
2.0303030303030303
1.975562072336266
1.9188660801564028
1.868035190615836
1.822091886608016
1.7712609970674489
1.721407624633431
1.6744868035190617
1.6334310850439884
1.6021505376344083
1.581622678396872
1.5728250244379276
1.5757575757575757
1.5894428152492668
1.6099706744868034
1.635386119257087
1.6608015640273706
1.686217008797654
1.7135874877810362
1.7390029325513197
1.7595307917888563
1.775171065493646
1.7839687194525904
1.7869012707722385
1.7849462365591398
1.7781036168132942
1.7653958944281525
1.747800586510264
1.7302052785923754
1.7116324535679377
1.689149560117302
1.664711632453568
1.6412512218963833
1.619745845552297
1.598240469208211
1.5728250244379276
1.5454545454545454
1.517106549364614
1.4868035190615836
1.4535679374389052
1.4203323558162269
1.3949169110459434
1.3812316715542523
1.383186705767351
1.4134897360703813
1.478005865102639
1.5796676441837731
1.715542521994135
1.873900293255132
2.0410557184750733
2.203323558162268
2.350928641251222
2.4750733137829912
2.560117302052786
2.6158357771261
2.654936461388074
2.6725317693059627
2.670576735092864
2.6510263929618767
2.618768328445748
2.5777126099706744
2.527859237536657
2.474095796676442
2.420332355816227
2.364613880742913
2.3059628543499517
2.2531769305962857
2.203323558162268
2.1495601173020527
2.0948191593352883
2.040078201368524
1.986314760508309
1.9315738025415443
1.8758553274682308
1.8211143695014664
1.7663734115347018
1.7126099706744868
1.66177908113392
1.6217008797653958
1.5913978494623655
1.565982404692082
1.5493646138807429
1.5454545454545454
1.5532746823069403
1.5718475073313782
1.5992179863147604
1.6304985337243405
1.66177908113392
1.6911045943304008
1.7174975562072337
1.7390029325513197
1.7546432062561097
1.7653958944281525
1.772238514173998
1.7732160312805474
1.7673509286412512
1.7565982404692082
1.7409579667644184
1.721407624633431
1.6989247311827955
1.6744868035190617
1.6490713587487782
1.6207233626588464
1.5972629521016617
1.5747800586510263
1.5493646138807429
1.52297165200391
1.495601173020528
1.4652981427174976
1.4330400782013686
1.401759530791789
1.3773216031280548
1.3655913978494625
1.3734115347018572
1.4105571847507332
1.4838709677419355
1.573802541544477
1.6823069403714566
1.826001955034213
1.988269794721408
2.1515151515151514
2.304007820136853
2.432062561094819
2.5317693059628543
2.601173020527859
2.6422287390029324
2.6578690127077222
2.652003910068426
2.631476050830889
2.601173020527859
2.5620723362658846
2.515151515151515
2.463343108504399
2.409579667644184
2.3548387096774195
2.300097751710655
2.244379276637341
2.187683284457478
2.131964809384164
2.0762463343108504
2.021505376344086
1.975562072336266
1.9335288367546437
1.8866080156402736
1.835777126099707
1.782991202346041
1.729227761485826
1.678396871945259
1.6344086021505375
1.5972629521016617
1.5718475073313782
1.5591397849462365
1.5591397849462365
1.56891495601173
1.5884652981427174
1.616813294232649
1.6490713587487782
1.6715542521994136
1.689149560117302
1.7096774193548387
1.7272727272727273
1.739980449657869
1.747800586510264
1.7497556207233629
1.7487781036168133
1.7448680351906158
1.7390029325513197
1.7302052785923754
1.7145650048875856
1.694037145650049
1.6705767350928642
1.643206256109482
1.6158357771260996
1.5894428152492668
1.564027370478983
1.5395894428152492
1.512218963831867
1.4848484848484849
1.4643206256109482
1.4457478005865103
1.4222873900293256
1.3998044965786902
1.3861192570869991
1.393939393939394
1.4320625610948192
1.5063538611925709
1.6187683284457477
1.761485826001955
1.924731182795699
2.0948191593352883
2.2580645161290325
2.386119257086999
2.484848484848485
2.570869990224829
2.633431085043988
2.670576735092864
2.6832844574780057
2.67644183773216
2.653958944281525
2.6177908113391983
2.5718475073313782
2.5190615835777126
2.463343108504399
2.412512218963832
2.364613880742913
2.313782991202346
2.2629521016617797
2.2130987292277613
2.160312805474096
2.1055718475073317
2.0518084066471163
1.9980449657869013
1.943304007820137
1.8885630498533723
1.8328445747800584
1.7781036168132942
1.732160312805474
1.6930596285434996
1.653958944281525
1.619745845552297
1.5923753665689149
1.576735092864125
1.573802541544477
1.5826001955034212
1.6011730205278591
1.6275659824046922
1.6578690127077225
1.6901270772238517
1.7174975562072337
1.7390029325513197
1.7565982404692082
1.7683284457478006
1.772238514173998
1.7712609970674489
1.7644183773216031
1.75366568914956
1.7409579667644184
1.7243401759530792
1.7038123167155426
1.6803519061583578
1.6578690127077225
1.635386119257087
1.6109481915933528
1.58455522971652
1.5591397849462365
1.5347018572825024
1.5073313782991202
1.478983382209189
1.4486803519061584
1.4164222873900294
1.3841642228739004
1.356793743890518
1.3450635386119256
1.3509286412512218
1.3812316715542523
1.447702834799609
1.5532746823069403
1.6920821114369502
1.8533724340175952
2.0254154447702835
2.193548387096774
2.3440860215053765
2.4672531769305963
2.558162267839687
2.6158357771261
2.643206256109482
2.649071358748778
2.6392961876832843
2.6158357771261
2.579667644183773
2.5347018572825024
2.4838709677419355
2.4301075268817205
2.376344086021505
2.320625610948192
2.2639296187683287
2.206256109481916
2.1485826001955037
2.0987292277614857
2.0527859237536656
2.002932551319648
1.9521016617790807
1.9012707722385145
1.847507331378299
1.7927663734115349
1.7380254154447703
1.6842619745845553
1.632453567937439
1.5865102639296187
1.5513196480938416
1.530791788856305
1.520039100684262
1.517106549364614
1.5239491691104594
1.541544477028348
1.564027370478983
1.5884652981427174
1.616813294232649
1.6451612903225807
1.6705767350928642
1.6920821114369502
1.70772238514174
1.7174975562072337
1.7243401759530792
1.7253176930596286
1.7194525904203324
1.70772238514174
1.6911045943304008
1.6705767350928642
1.6480938416422288
1.6256109481915937
1.6041055718475072
1.5826001955034212
1.5581622678396871
1.5317693059628543
1.5083088954056696
1.4858260019550342
1.458455522971652
1.4301075268817205
1.3998044965786902
1.3695014662756595
1.3440860215053765
1.3264907135874875
1.3255131964809383
1.3528836754643203
1.414467253176931
1.5112414467253177
1.6392961876832846
1.7673509286412512
1.8934506353861196
2.038123167155425
2.182795698924731
2.313782991202346
2.4222873900293256
2.5034213098729228
2.5562072336265884
2.582600195503421
2.5865102639296187
2.5698924731182795
2.5386119257087
2.5004887585532747
2.4565004887585533
2.406647116324536
2.3519061583577714
2.294232649071359
2.236559139784946
2.179863147605083
2.12316715542522
2.067448680351906
2.0127077223851417
1.959921798631476
1.9071358748778104
1.8533724340175952
1.8054740957966764
1.761485826001955
1.7126099706744868
1.6627565982404693
1.6129032258064515
1.565982404692082
1.525904203323558
1.4936461388074291
1.4711632453567938
1.4613880742913
1.4643206256109482
1.479960899315738
1.500488758553275
1.5268817204301075
1.5571847507331378
1.5865102639296187
1.611925708699902
1.6334310850439884
1.6490713587487782
1.6578690127077225
1.6608015640273706
1.6578690127077225
1.6490713587487782
1.6373411534701858
1.6226783968719452
1.608993157380254
1.5962854349951123
1.5786901270772238
1.5562072336265884
1.530791788856305
1.5053763440860215
1.4819159335288368
1.457478005865103
1.4330400782013686
1.4086021505376345
1.3812316715542523
1.3509286412512218
1.324535679374389
1.303030303030303
1.284457478005865
1.281524926686217
1.303030303030303
1.356793743890518
1.4467253176930597
1.56891495601173
1.715542521994135
1.87683284457478
2.037145650048876
2.1837732160312804
2.3098729227761488
2.401759530791789
2.4652981427174976
2.5131964809384164
2.539589442815249
2.5454545454545454
2.535679374389052
