ppg
1.7653958944281525
1.7517106549364614
1.7380254154447703
1.7223851417399805
1.70772238514174
1.6911045943304008
1.6705767350928642
1.6480938416422288
1.6265884652981428
1.606060606060606
1.58455522971652
1.560117302052786
1.5356793743890518
1.5141739980449658
1.4936461388074291
1.4731182795698925
1.4545454545454546
1.4418377321603129
1.4320625610948192
1.4173998044965788
1.3978494623655917
1.375366568914956
1.3519061583577712
1.3304007820136852
1.316715542521994
1.316715542521994
1.3391984359726294
1.3861192570869991
1.4623655913978495
1.5493646138807429
1.651026392961877
1.7859237536656891
1.9403714565004888
2.102639296187683
2.2629521016617797
2.412512218963832
2.544477028347996
2.654936461388074
2.73802541544477
2.792766373411535
2.822091886608016
2.8269794721407626
2.814271749755621
2.789833822091887
2.7517106549364616
2.7038123167155423
2.6480938416422286
2.5865102639296187
2.520039100684262
2.449657869012708
2.378299120234604
2.304985337243402
2.2297165200391005
2.1524926686217007
2.0840664711632453
2.0195503421309877
1.9501466275659824
1.8826979472140764
1.8201368523949168
1.7634408602150538
1.7116324535679377
1.6666666666666667
1.629521016617791
1.6011730205278591
1.581622678396872
1.5708699902248289
1.5669599217986314
1.56891495601173
1.5757575757575757
1.5865102639296187
1.598240469208211
1.608993157380254
1.6177908113391983
1.624633431085044
1.6304985337243405
1.6344086021505375
1.635386119257087
1.6334310850439884
1.6275659824046922
1.619745845552297
1.6109481915933528
1.598240469208211
1.581622678396872
1.564027370478983
1.5454545454545454
1.525904203323558
1.5063538611925709
1.4868035190615836
1.469208211143695
1.4516129032258065
1.4320625610948192
1.409579667644184
1.391006842619746
1.3743890518084063
1.35386119257087
1.3313782991202343
1.3118279569892473
1.2971652003910068
1.2854349951124144
1.2727272727272727
1.2590420332355816
1.2453567937438903
1.2326490713587488
1.2238514173998043
1.2238514173998043
1.2375366568914956
1.267839687194526
1.3206256109481915
1.3988269794721409
1.5024437927663734
1.629521016617791
1.7761485826001957
1.935483870967742
2.099706744868035
2.257086999022483
2.39980449657869
2.5210166177908118
2.606060606060606
2.6608015640273703
2.699902248289345
2.717497556207233
2.7145650048875853
2.6930596285435
2.658846529814272
2.613880742913001
2.5591397849462365
2.495601173020528
2.423264907135875
2.343108504398827
2.2668621700879767
2.190615835777126
2.103616813294233
2.0146627565982405
1.9257086999022484
1.8406647116324533
1.761485826001955
1.6901270772238517
1.6275659824046922
1.5718475073313782
1.520039100684262
1.4711632453567938
1.423264907135875
1.383186705767351
1.348973607038123
1.310850439882698
1.2727272727272727
1.2346041055718475
1.2013685239491692
1.1749755620723363
1.1573802541544478
1.1485826001955035
1.147605083088954
1.1534701857282503
1.164222873900293
1.1808406647116323
1.2023460410557183
1.2287390029325511
1.2590420332355816
1.2913000977517106
1.327468230694037
1.367546432062561
1.4076246334310851
1.4457478005865103
1.4809384164222874
1.5131964809384164
1.544477028347996
1.5718475073313782
1.5933528836754642
1.6099706744868034
1.6226783968719452
1.629521016617791
1.6304985337243405
1.6256109481915937
1.6158357771260996
1.6050830889540566
1.595307917888563
1.585532746823069
1.5757575757575757
1.564027370478983
1.555229716520039
1.5454545454545454
1.530791788856305
1.5141739980449658
1.495601173020528
1.478005865102639
1.4643206256109482
1.4604105571847508
1.4721407624633431
1.5053763440860215
1.560117302052786
1.6363636363636365
1.7341153470185728
1.83088954056696
1.9286412512218964
2.042033235581622
2.158357771260997
2.2688172043010755
2.3655913978494625
2.442815249266862
2.495601173020528
2.5268817204301075
2.5376344086021505
2.5288367546432062
2.5034213098729228
2.4701857282502444
2.4271749755620724
2.3734115347018574
2.3098729227761488
2.239491691104594
2.163245356793744
2.0840664711632453
2.004887585532747
1.924731182795699
1.8455522971652003
1.7712609970674489
1.7008797653958945
1.6441837732160314
1.5972629521016617
1.5278592375366569
1.4506353861192571
1.3998044965786902
1.370478983382209
1.3577712609970674
1.3548387096774193
1.3616813294232648
1.3773216031280548
1.3988269794721409
1.4222873900293256
1.444770283479961
1.4652981427174976
1.4838709677419355
1.500488758553275
1.5151515151515151
1.5249266862170088
1.530791788856305
1.5327468230694037
1.530791788856305
1.5239491691104594
1.5141739980449658
1.5034213098729228
1.490713587487781
1.47702834799609
1.4633431085043989
1.4428152492668622
1.4193548387096775
1.393939393939394
1.367546432062561
1.3440860215053765
1.321603128054741
1.2991202346041055
1.278592375366569
1.260019550342131
1.2424242424242424
1.2258064516129032
1.2130987292277615
1.2023460410557183
1.1906158357771262
1.1788856304985338
1.1681329423264908
1.1573802541544478
1.1466275659824048
1.13880742913001
1.13880742913001
1.1505376344086022
1.1827956989247312
1.2404692082111437
1.3118279569892473
1.4037145650048877
1.5366568914956011
1.7018572825024438
1.8885630498533723
2.0869990224828934
2.286412512218964
2.474095796676442
2.638318670576735
2.7751710654936463
2.8807429130009776
2.95405669599218
2.995112414467253
3.007820136852395
3.0
2.978494623655914
2.9423264907135875
2.89247311827957
2.835777126099707
2.773216031280548
2.705767350928641
2.632453567937439
2.5562072336265884
2.47702834799609
2.3958944281524928
2.3225806451612905
2.2531769305962857
2.177908113391984
2.101661779081134
2.026392961876833
1.95405669599218
1.884652981427175
1.823069403714565
1.76930596285435
1.7243401759530792
1.6920821114369502
1.6686217008797657
1.6529814271749756
1.6451612903225807
1.6441837732160314
1.6490713587487782
1.6598240469208212
1.6715542521994136
1.6813294232649072
1.6871945259042034
1.6901270772238517
1.6920821114369502
1.6930596285434996
1.6901270772238517
1.6852394916911049
1.6813294232649072
1.678396871945259
1.6715542521994136
1.6598240469208212
1.64613880742913
1.6285434995112416
1.606060606060606
1.5806451612903225
1.555229716520039
1.5288367546432062
1.501466275659824
1.474095796676442
1.4486803519061584
1.4281524926686218
1.409579667644184
1.3890518084066472
1.3695014662756595
1.3519061583577712
1.3343108504398826
1.3176930596285434
1.2981427174975562
1.2756598240469208
1.2502443792766371
1.2267839687194526
1.2072336265884651
1.1945259042033236
1.1925708699902249
1.203323558162268
1.2355816226783969
1.2971652003910068
1.3890518084066472
1.509286412512219
1.653958944281525
1.8162267839687196
1.9853372434017595
2.1524926686217007
2.30791788856305
2.443792766373412
2.544477028347996
2.613880742913001
2.6666666666666665
2.697947214076246
2.7096774193548385
2.7038123167155423
2.681329423264907
2.64613880742913
2.5992179863147604
2.5454545454545454
2.4858260019550342
2.423264907135875
2.364613880742913
2.304007820136853
2.2346041055718477
2.1593352883675463
2.0791788856304985
1.9990224828934504
1.919843597262952
1.844574780058651
1.7761485826001957
1.7116324535679377
1.6529814271749756
1.6001955034213098
1.555229716520039
1.521994134897361
1.498533724340176
1.479960899315738
1.466275659824047
1.4594330400782014
1.4604105571847508
1.466275659824047
1.474095796676442
1.4838709677419355
1.4936461388074291
1.5034213098729228
1.5112414467253177
1.517106549364614
1.520039100684262
1.5190615835777126
1.5161290322580645
1.5112414467253177
1.5053763440860215
1.4946236559139785
1.478005865102639
1.458455522971652
1.4379276637341154
1.4173998044965788
1.3949169110459434
1.3695014662756595
1.3499511241446724
1.335288367546432
1.3157380254154447
1.295210166177908
1.2746823069403714
1.2551319648093842
1.2375366568914956
1.2209188660801564
1.2023460410557183
1.18475073313783
1.1681329423264908
1.1495601173020529
1.1348973607038124
1.1221896383186705
1.10752688172043
1.0957966764418376
1.0928641251221896
1.1065493646138806
1.141739980449658
1.2023460410557183
1.29227761485826
1.4105571847507332
1.552297165200391
1.710654936461388
1.878787878787879
2.0234604105571847
2.150537634408602
2.280547409579668
2.396871945259042
2.4916911045943304
2.5620723362658846
2.6050830889540566
2.6236559139784945
2.622678396871945
2.603128054740958
2.56891495601173
2.52297165200391
2.474095796676442
2.423264907135875
2.363636363636364
2.297165200391007
2.225806451612903
2.1524926686217007
2.0791788856304985
2.006842619745845
1.9364613880742916
1.866080156402737
1.7947214076246334
1.7272727272727273
1.6715542521994136
1.6217008797653958
1.5708699902248289
1.5278592375366569
1.4946236559139785
1.4711632453567938
1.458455522971652
1.4545454545454546
1.457478005865103
1.4672531769305963
1.482893450635386
1.500488758553275
1.517106549364614
1.530791788856305
1.541544477028348
1.552297165200391
1.5620723362658846
1.56891495601173
1.5708699902248289
1.56891495601173
1.5620723362658846
1.5327468230694037
1.4926686217008798
1.4652981427174976
1.4437927663734116
1.426197458455523
1.4115347018572826
1.3949169110459434
1.375366568914956
1.35386119257087
1.332355816226784
1.310850439882698
1.2903225806451613
1.2717497556207231
1.2541544477028348
1.2365591397849462
1.219941348973607
1.203323558162268
1.1906158357771262
1.1798631476050832
1.166177908113392
1.1515151515151516
1.1368523949169111
1.126099706744868
1.121212121212121
1.1290322580645162
1.1534701857282503
1.2013685239491692
1.278592375366569
1.3851417399804498
1.4965786901270772
1.616813294232649
1.7673509286412512
1.932551319648094
2.099706744868035
2.257086999022483
2.396871945259042
2.5131964809384164
2.603128054740958
2.664711632453568
2.6989247311827955
2.708699902248289
2.6989247311827955
2.674486803519061
2.6392961876832843
2.5943304007820136
2.5425219941348973
2.486803519061584
2.4252199413489737
2.361681329423265
2.2952101661779083
2.2238514173998043
2.1495601173020527
2.0733137829912023
1.9980449657869013
1.932551319648094
1.873900293255132
1.812316715542522
1.7526881720430108
1.6979472140762464
1.651026392961877
1.6138807429130009
1.585532746823069
1.565982404692082
1.5562072336265884
1.555229716520039
1.5620723362658846
1.573802541544477
1.5865102639296187
1.598240469208211
1.6099706744868034
1.6187683284457477
1.6226783968719452
1.624633431085044
1.6256109481915937
1.624633431085044
1.619745845552297
1.6138807429130009
1.6080156402737047
1.6021505376344083
1.598240469208211
1.5913978494623655
1.5796676441837731
1.563049853372434
1.541544477028348
1.5161290322580645
1.4887585532746823
1.4594330400782014
1.4320625610948192
1.4076246334310851
1.3841642228739004
1.3616813294232648
1.3391984359726294
1.3206256109481915
1.3049853372434017
1.2873900293255132
1.2697947214076246
1.2512218963831867
1.2316715542521994
1.2101661779081134
1.1896383186705768
1.1730205278592376
1.1622678396871946
1.1622678396871946
1.1808406647116323
1.2140762463343109
1.2658846529814272
1.3479960899315735
1.458455522971652
1.5923753665689149
1.7438905180840665
1.903225806451613
2.06158357771261
2.2111436950146626
2.343108504398827
2.450635386119257
2.530791788856305
2.5835777126099706
2.6080156402737047
2.610948191593353
2.598240469208211
2.570869990224829
2.532746823069404
2.4858260019550342
2.4301075268817205
2.367546432062561
2.3010752688172045
2.2297165200391005
2.15347018572825
2.074291300097752
2.002932551319648
1.935483870967742
1.86119257086999
1.7869012707722385
1.715542521994135
1.6480938416422288
1.58455522971652
1.5278592375366569
1.4809384164222874
1.4428152492668622
1.4134897360703813
1.3900293255131966
1.3743890518084063
1.3665689149560116
1.3665689149560116
1.3724340175953078
1.3822091886608017
1.3949169110459434
1.409579667644184
1.423264907135875
1.4320625610948192
1.4379276637341154
1.439882697947214
1.439882697947214
1.4379276637341154
1.435972629521017
1.4320625610948192
1.4242424242424243
1.412512218963832
1.3949169110459434
1.375366568914956
1.35386119257087
1.3313782991202343
1.305962854349951
1.2795698924731185
1.252199413489736
1.224828934506354
1.2003910068426198
1.1827956989247312
1.1652003910068427
1.1436950146627567
1.1231671554252198
1.1065493646138806
1.0928641251221896
1.0772238514173995
1.0586510263929618
1.0381231671554252
1.0175953079178883
1.0009775171065494
0.9872922776148584
0.9804496578690128
0.9833822091886608
1.0
1.0381231671554252
1.099706744868035
1.1886608015640274
1.3049853372434017
1.4437927663734116
1.5972629521016617
1.7575757575757576
1.913978494623656
2.058651026392962
2.1847507331378297
2.278592375366569
2.346041055718475
2.40078201368524
2.4349951124144678
2.447702834799609
2.441837732160313
2.418377321603128
2.380254154447703
2.332355816226784
2.27761485826002
2.217986314760508
2.155425219941349
2.0957966764418376
2.037145650048876
1.970674486803519
1.8963831867057677
1.818181818181818
1.737047898338221
1.6578690127077225
1.5826001955034212
1.5131964809384164
1.452590420332356
1.3988269794721409
1.3519061583577712
1.3176930596285434
1.2932551319648091
1.2756598240469208
1.2668621700879763
1.2658846529814272
1.2688172043010753
1.278592375366569
1.2932551319648091
1.3088954056695992
1.3235581622678396
1.3372434017595307
1.348973607038123
1.359726295210166
1.367546432062561
1.3724340175953078
1.3734115347018572
1.370478983382209
1.3626588465298142
1.35386119257087
1.3440860215053765
1.3304007820136852
1.3128054740957966
1.2942326490713587
1.2766373411534702
1.2580645161290325
1.241446725317693
1.224828934506354
1.2052785923753666
1.18475073313783
1.1622678396871946
1.1397849462365592
1.1202346041055715
1.104594330400782
1.0918866080156402
1.0791788856304985
1.0664711632453567
1.0518084066471165
1.0342130987292275
1.0205278592375366
1.007820136852395
1.0166177908113392
1.0410557184750733
1.0576735092864125
1.0850439882697946
1.1329423264907137
1.2072336265884651
1.3098729227761483
1.4428152492668622
1.6001955034213098
1.7741935483870968
1.9296187683284456
2.071358748778104
2.222873900293255
2.367546432062561
2.4916911045943304
2.587487781036168
2.654936461388074
2.6959921798631474
2.7145650048875853
2.7116324535679373
2.6901270772238512
2.6529814271749754
2.603128054740958
2.550342130987292
2.4946236559139785
2.4301075268817205
2.360703812316716
2.289345063538612
2.2160312805474094
2.1407624633431084
2.06158357771261
1.981427174975562
1.9042033235581624
1.8318670576735088
1.7634408602150538
1.70772238514174
1.66177908113392
1.619745845552297
1.587487781036168
1.5650048875855327
1.552297165200391
1.547409579667644
1.5493646138807429
1.5562072336265884
1.5669599217986314
1.581622678396872
1.5972629521016617
1.6138807429130009
1.629521016617791
1.6451612903225807
1.6598240469208212
1.6715542521994136
1.6803519061583578
1.686217008797654
1.6881720430107527
1.686217008797654
1.6793743890518085
1.6666666666666667
1.6520039100684265
1.635386119257087
1.6217008797653958
1.606060606060606
1.58455522971652
1.5620723362658846
1.5395894428152492
1.5161290322580645
1.4946236559139785
1.4750733137829912
1.455522971652004
1.435972629521017
1.41544477028348
1.396871945259042
1.3782991202346042
1.364613880742913
1.35386119257087
1.3391984359726294
1.3235581622678396
1.3069403714565004
1.29227761485826
1.2834799608993157
1.2854349951124144
1.3040078201368523
1.3421309872922775
1.4086021505376345
1.5083088954056696
1.6148582600195502
1.7331378299120237
1.884652981427175
2.060606060606061
2.24633431085044
2.4281524926686218
2.595307917888563
2.7419354838709675
2.86217008797654
2.95405669599218
3.0146627565982405
3.0449657869012707
3.0498533724340176
3.035190615835777
3.007820136852395
2.967741935483871
2.916911045943304
2.857282502443793
2.790811339198436
2.719452590420332
2.644183773216031
2.5640273704789838
2.4789833822091887
2.393939393939394
2.3088954056695994
2.232649071358749
2.163245356793744
2.090909090909091
2.0205278592375366
1.9579667644183771
1.9012707722385145
1.8523949169110456
1.812316715542522
1.780058651026393
1.7556207233626588
1.737047898338221
1.7282502443792769
1.7282502443792769
1.7341153470185728
1.7429130009775171
1.7526881720430108
1.7653958944281525
1.7790811339198436
1.7917888563049853
1.8025415444770283
1.8093841642228736
1.8113391984359728
1.8074291300097751
1.7996089931573802
1.7869012707722385
1.772238514173998
1.7575757575757576
1.7409579667644184
1.7223851417399805
1.699902248289345
1.6744868035190617
1.6471163245356797
1.6187683284457477
1.5913978494623655
1.565982404692082
1.541544477028348
1.5161290322580645
1.4887585532746823
1.466275659824047
1.4467253176930597
1.4252199413489737
1.404692082111437
1.3841642228739004
1.3636363636363635
1.3411534701857282
1.3186705767350928
1.295210166177908
1.2717497556207231
1.2531769305962854
1.2404692082111437
1.2404692082111437
1.2580645161290325
1.2991202346041055
1.3695014662756595
1.4711632453567938
1.6021505376344083
1.758553274682307
1.9335288367546437
2.118279569892473
2.3010752688172045
2.4701857282502444
2.619745845552297
2.7311827956989245
2.811339198435973
2.8797653958944283
2.9257086999022484
2.948191593352884
2.951124144672532
2.9335288367546437
2.8993157380254155
2.8514173998044967
2.790811339198436
2.720430107526881
2.643206256109482
2.560117302052786
2.4838709677419355
2.409579667644184
2.3304007820136854
2.24633431085044
2.158357771260997
2.070381231671554
1.9843597262952104
1.9012707722385145
1.825024437927664
1.758553274682307
1.7038123167155426
1.6588465298142718
1.6275659824046922
1.606060606060606
1.5894428152492668
1.5796676441837731
1.5757575757575757
1.576735092864125
1.581622678396872
1.5913978494623655
1.6041055718475072
1.6148582600195502
1.6226783968719452
1.629521016617791
1.6363636363636365
1.6422287390029326
1.6451612903225807
1.6441837732160314
1.6392961876832846
1.629521016617791
1.6138807429130009
1.5943304007820136
1.5728250244379276
1.5503421309872922
1.5278592375366569
1.501466275659824
1.474095796676442
1.4506353861192571
1.4301075268817205
1.4086021505376345
1.3870967741935485
1.367546432062561
1.348973607038123
1.3313782991202343
1.313782991202346
1.2961876832844574
1.278592375366569
1.2609970674486803
1.241446725317693
1.219941348973607
1.203323558162268
1.1925708699902249
1.1808406647116323
1.1710654936461389
1.1691104594330402
1.1837732160312806
1.2238514173998043
1.29227761485826
1.391006842619746
1.521016617790811
1.6774193548387095
1.8523949169110456
2.013685239491691
2.166177908113392
2.3362658846529816
2.5034213098729228
2.652003910068426
2.773216031280548
2.865102639296188
2.9266862170087977
2.960899315738025
2.90811339198436
2.8025415444770285
2.7253176930596283
2.656891495601173
2.595307917888563
2.5347018572825024
2.466275659824047
2.3919843597262958
2.313782991202346
2.231671554252199
2.150537634408602
2.0733137829912023
2.0009775171065494
1.935483870967742
1.8748778103616808
1.8201368523949168
1.7761485826001957
1.7390029325513197
1.6989247311827955
1.656891495601173
1.611925708699902
1.5669599217986314
1.52297165200391
1.4809384164222874
1.4418377321603129
1.4076246334310851
1.3782991202346042
1.356793743890518
1.346041055718475
1.346041055718475
1.3558162267839686
1.3734115347018572
1.3988269794721409
1.4320625610948192
1.4711632453567938
1.517106549364614
1.5669599217986314
1.6207233626588464
1.6764418377321604
1.7311827956989247
1.7839687194525904
1.8269794721407624
1.8602150537634408
1.8875855327468232
1.905180840664712
1.911045943304008
1.906158357771261
1.8905180840664717
1.8670576735092863
1.8377321603128052
1.801564027370479
1.761485826001955
1.721407624633431
1.6823069403714566
1.6500488758553276
1.6226783968719452
1.5943304007820136
1.56891495601173
1.5464320625610948
1.525904203323558
1.5063538611925709
1.4868035190615836
1.469208211143695
1.456500488758553
1.4535679374389052
1.4652981427174976
1.4887585532746823
1.5278592375366569
1.5923753665689149
1.6823069403714566
1.7927663734115349
1.9178885630498532
2.053763440860215
2.1925708699902247
2.3274682306940373
2.450635386119257
2.560117302052786
2.6510263929618767
2.720430107526881
2.764418377321604
2.790811339198436
2.809384164222874
2.81622678396872
2.812316715542522
2.798631476050831
2.776148582600196
2.7468230694037143
2.7126099706744866
2.6725317693059627
2.627565982404692
2.576735092864125
2.5268817204301075
2.4789833822091887
2.4301075268817205
2.383186705767351
2.340175953079179
2.3010752688172045
2.264907135874878
2.231671554252199
2.204301075268817
2.1818181818181817
2.1622678396871944
2.146627565982405
2.1358748778103616
2.129032258064516
2.1251221896383186
2.12316715542522
2.1221896383186705
2.121212121212121
2.118279569892473
2.112414467253177
2.104594330400782
2.0957966764418376
2.0879765395894427
2.0821114369501466
2.078201368523949
2.074291300097752
2.072336265884653
2.075268817204301
2.081133919843597
2.0879765395894427
2.0928641251221896
2.093841642228739
2.089931573802541
2.078201368523949
2.060606060606061
2.038123167155425
2.0117302052785924
1.9853372434017595
1.959921798631476
1.9305962854349952
1.900293255131965
1.870967741935484
1.839687194525904
1.804496578690127
1.76930596285435
1.7360703812316716
1.7028347996089932
1.6695992179863148
1.6373411534701858
1.6109481915933528
1.595307917888563
1.590420332355816
1.6011730205278591
1.635386119257087
1.6959921798631477
1.7859237536656891
1.906158357771261
2.0518084066471163
2.2170087976539588
2.3929618768328447
2.570869990224829
2.7438905180840663
2.8836754643206257
2.9980449657869013
3.10850439882698
3.2023460410557183
3.274682306940372
3.321603128054741
3.345063538611926
3.347996089931574
3.334310850439883
3.3059628543499517
3.2668621700879767
3.219941348973607
3.166177908113392
3.1094819159335287
3.0518084066471163
2.988269794721408
2.920821114369501
2.8533724340175954
2.7859237536656893
2.719452590420332
2.654936461388074
2.595307917888563
2.541544477028348
2.4946236559139785
2.453567937438905
2.419354838709677
2.3919843597262958
2.372434017595308
2.360703812316716
2.356793743890518
2.361681329423265
2.3743890518084068
2.3900293255131966
2.409579667644184
2.4330400782013686
2.458455522971652
2.4838709677419355
2.5102639296187683
2.5288367546432062
2.5425219941348973
2.558162267839687
2.5698924731182795
2.573802541544477
2.5718475073313782
2.5620723362658846
2.5464320625610948
2.5249266862170088
2.495601173020528
2.462365591397849
2.4242424242424243
2.3851417399804498
2.345063538611926
2.300097751710655
2.2531769305962857
2.2082111436950145
2.167155425219941
2.1300097751710654
2.099706744868035
2.074291300097752
2.0547409579667644
2.040078201368524
2.027370478983382
2.0127077223851417
1.9960899315738023
1.9726295210166176
1.93841642228739
1.8934506353861196
1.835777126099707
1.7663734115347018
1.6950146627565983
1.629521016617791
1.576735092864125
1.543499511241447
1.5366568914956011
1.560117302052786
1.6011730205278591
1.6578690127077225
1.7350928641251222
1.8240469208211143
1.911045943304008
1.986314760508309
2.0449657869012707
2.086021505376344
2.1094819159335287
2.115347018572825
2.1065493646138806
2.085043988269794
2.0557184750733137
2.0254154447702835
1.992179863147605
1.951124144672532
1.9042033235581624
1.8533724340175952
1.801564027370479
1.7468230694037146
1.689149560117302
1.6304985337243405
1.5708699902248289
1.5083088954056696
1.4467253176930597
1.393939393939394
1.3499511241446724
1.3040078201368523
1.2502443792766371
1.1974584555229717
1.1593352883675463
1.1329423264907137
1.1163245356793745
1.10752688172043
1.104594330400782
1.1085043988269794
