ppg
1.2434017595307918
1.2482893450635386
1.2531769305962854
1.2570869990224829
1.2609970674486803
1.2649071358748778
1.2668621700879763
1.267839687194526
1.267839687194526
1.267839687194526
1.267839687194526
1.267839687194526
1.267839687194526
1.2697947214076246
1.2727272727272727
1.2766373411534702
1.2805474095796676
1.2854349951124144
1.2913000977517106
1.2971652003910068
1.3020527859237536
1.3069403714565004
1.3118279569892473
1.3157380254154447
1.3196480938416422
1.321603128054741
1.3225806451612905
1.3225806451612905
1.321603128054741
1.321603128054741
1.321603128054741
1.321603128054741
1.3196480938416422
1.3157380254154447
1.310850439882698
1.3040078201368523
1.2942326490713587
1.2805474095796676
1.2668621700879763
1.2570869990224829
1.2580645161290325
1.278592375366569
1.3147605083088951
1.3724340175953078
1.4672531769305963
1.5962854349951123
1.7526881720430108
1.9257086999022484
2.103616813294233
2.275659824046921
2.4301075268817205
2.5591397849462365
2.658846529814272
2.730205278592375
2.76930596285435
2.7839687194525906
2.78494623655914
2.771260997067449
2.745845552297165
2.7096774193548385
2.6637341153470184
2.611925708699902
2.5562072336265884
2.498533724340176
2.4389051808406648
2.3792766373411536
2.3196480938416424
2.2629521016617797
2.2082111436950145
2.147605083088954
2.083088954056696
2.013685239491691
1.93841642228739
1.857282502443793
1.7702834799608993
1.678396871945259
1.5826001955034212
1.487781036168133
1.3978494623655917
1.3255131964809383
1.267839687194526
1.2111436950146628
1.1612903225806452
1.1221896383186705
1.0928641251221896
1.072336265884653
1.06158357771261
1.056695992179863
1.0576735092864125
1.0635386119257086
1.072336265884653
1.083088954056696
1.0948191593352885
1.1036168132942326
1.110459433040078
1.115347018572825
1.1192570869990224
1.121212121212121
1.1221896383186705
1.1221896383186705
1.1221896383186705
1.1231671554252198
1.1270772238514175
1.130987292277615
1.1378299120234605
1.1466275659824048
1.1564027370478984
1.1671554252199414
1.1788856304985338
1.1925708699902249
1.2072336265884651
1.2238514173998043
1.241446725317693
1.2580645161290325
1.2727272727272727
1.2854349951124144
1.2981427174975562
1.3088954056695992
1.3196480938416422
1.327468230694037
1.3333333333333333
1.335288367546432
1.3343108504398826
1.3284457478005864
1.3176930596285434
1.3020527859237536
1.2854349951124144
1.2727272727272727
1.2697947214076246
1.278592375366569
1.3049853372434017
1.3626588465298142
1.455522971652004
1.5835777126099706
1.7419354838709675
1.920821114369501
2.10752688172043
2.290322580645161
2.4574780058651027
2.60019550342131
2.713587487781036
2.787878787878788
2.83088954056696
2.857282502443793
2.866080156402737
2.8563049853372435
2.831867057673509
2.7947214076246336
2.747800586510264
2.695014662756598
2.636363636363636
2.573802541544477
2.509286412512219
2.441837732160313
2.3792766373411536
2.321603128054741
2.259042033235582
2.1925708699902247
2.1221896383186705
2.047898338220919
1.9687194525904204
1.8836754643206255
1.7927663734115349
1.6979472140762464
1.6001955034213098
1.5034213098729228
1.4222873900293256
1.3548387096774193
1.2873900293255132
1.2258064516129032
1.1749755620723363
1.1358748778103618
1.10752688172043
1.0879765395894427
1.0772238514173995
1.072336265884653
1.0713587487781036
1.0733137829912025
1.0772238514173995
1.083088954056696
1.088954056695992
1.093841642228739
1.096774193548387
1.099706744868035
1.1026392961876832
1.1026392961876832
1.1016617790811338
1.099706744868035
1.0977517106549364
1.0957966764418376
1.0957966764418376
1.0987292277614855
1.1026392961876832
1.1055718475073313
1.110459433040078
1.115347018572825
1.1202346041055715
1.1251221896383188
1.1300097751710656
1.1348973607038124
1.1407624633431086
1.1456500488758554
1.1505376344086022
1.1573802541544478
1.166177908113392
1.1759530791788857
1.18475073313783
1.1945259042033236
1.206256109481916
1.2179863147605083
1.23069403714565
1.2424242424242424
1.252199413489736
1.260019550342131
1.2639296187683284
1.267839687194526
1.273704789833822
1.2864125122189638
1.3128054740957966
1.3607038123167154
1.4389051808406648
1.5493646138807429
1.6881720430107527
1.8533724340175952
2.0410557184750733
2.236559139784946
2.426197458455523
2.598240469208211
2.742913000977517
2.844574780058651
2.913000977517106
2.9667644183773216
3.0009775171065494
3.0146627565982405
3.0097751710654936
2.989247311827957
2.9550342130987293
2.9100684261974585
2.8563049853372435
2.795698924731183
2.7311827956989245
2.667644183773216
2.6050830889540566
2.5376344086021505
2.4672531769305963
2.3949169110459434
2.3196480938416424
2.241446725317693
2.158357771260997
2.069403714565005
1.9745845552297163
1.8748778103616808
1.7732160312805474
1.6735092864125125
1.5884652981427174
1.5141739980449658
1.4379276637341154
1.3685239491691104
1.3079178885630498
1.2580645161290325
1.2179863147605083
1.1867057673509287
1.164222873900293
1.1485826001955035
1.1397849462365592
1.1358748778103618
1.1358748778103618
1.1378299120234605
1.13880742913001
1.13880742913001
1.1378299120234605
1.1358748778103618
1.1319648093841643
1.1270772238514175
1.1221896383186705
1.1173020527859236
1.1114369501466277
1.1065493646138806
1.1006842619745845
1.0977517106549364
1.0957966764418376
1.0918866080156402
1.0869990224828934
1.0821114369501466
1.0762463343108504
1.0713587487781036
1.0684261974584557
1.067448680351906
1.0664711632453567
1.0664711632453567
1.067448680351906
1.0703812316715542
1.0733137829912025
1.075268817204301
1.0762463343108504
1.0762463343108504
1.0762463343108504
1.0762463343108504
1.0772238514173995
1.078201368523949
1.0791788856304985
1.078201368523949
1.0762463343108504
1.075268817204301
1.0762463343108504
1.0791788856304985
1.0918866080156402
1.1221896383186705
1.1788856304985338
1.2697947214076246
1.3978494623655917
1.5620723362658846
1.75366568914956
1.959921798631476
2.16911045943304
2.3655913978494625
2.520039100684262
2.638318670576735
2.744868035190616
2.8289345063538613
2.886608015640274
2.917888563049853
2.9266862170087977
2.916911045943304
2.8914956011730206
2.8514173998044967
2.8025415444770285
2.747800586510264
2.69208211143695
2.634408602150537
2.572825024437928
2.509286412512219
2.443792766373412
2.378299120234604
2.310850439882698
2.241446725317693
2.16911045943304
2.0928641251221896
2.010752688172043
1.921798631476051
1.8269794721407624
1.7409579667644184
1.6588465298142718
1.5669599217986314
1.4731182795698925
1.383186705767351
1.3020527859237536
1.2326490713587488
1.176930596285435
1.133919843597263
1.1016617790811338
1.0791788856304985
1.067448680351906
1.064516129032258
1.0664711632453567
1.0703812316715542
1.0762463343108504
1.083088954056696
1.088954056695992
1.0948191593352885
1.1006842619745845
1.1065493646138806
1.1124144672531768
1.1163245356793745
1.118279569892473
1.1192570869990224
1.1221896383186705
1.1251221896383188
1.1280547409579669
1.1319648093841643
1.1368523949169111
1.141739980449658
1.144672531769306
1.147605083088954
1.1505376344086022
1.1544477028347997
1.1593352883675463
1.166177908113392
1.1749755620723363
1.1867057673509287
1.198435972629521
1.209188660801564
1.2179863147605083
1.224828934506354
1.23069403714565
1.2365591397849462
1.241446725317693
1.24633431085044
1.2502443792766371
1.252199413489736
1.2512218963831867
1.2502443792766371
1.2473118279569892
1.2404692082111437
1.2336265884652982
1.2297165200391007
1.2355816226783969
1.2590420332355816
1.310850439882698
1.3958944281524928
1.517106549364614
1.6705767350928642
1.8484848484848484
2.0117302052785924
2.164222873900293
2.3274682306940373
2.4809384164222874
2.613880742913001
2.718475073313783
2.793743890518084
2.8396871945259043
2.860215053763441
2.8582600195503423
2.8377321603128056
2.8025415444770285
2.755620723362659
2.7038123167155423
2.649071358748778
2.5884652981427174
2.5239491691104594
2.4565004887585533
2.388074291300098
2.318670576735093
2.2482893450635384
2.177908113391984
2.1065493646138806
2.0303030303030303
1.948191593352884
1.871945259042033
1.796676441837732
1.7086999022482894
1.6138807429130009
1.517106549364614
1.423264907135875
1.3372434017595307
1.2609970674486803
1.1964809384164223
1.1436950146627567
1.1036168132942326
1.0733137829912025
1.0527859237536656
1.0420332355816226
1.0391006842619743
1.040078201368524
1.0439882697947214
1.0498533724340176
1.056695992179863
1.0625610948191593
1.0684261974584557
1.0742913000977516
1.0791788856304985
1.0821114369501466
1.0850439882697946
1.0899315738025417
1.096774193548387
1.1026392961876832
1.1085043988269794
1.1143695014662756
1.1202346041055715
1.126099706744868
1.1329423264907137
1.142717497556207
1.1534701857282503
1.166177908113392
1.181818181818182
1.1994134897360704
1.2160312805474096
1.2316715542521994
1.24633431085044
1.2619745845552297
1.2776148582600195
1.29227761485826
1.3049853372434017
1.3157380254154447
1.324535679374389
1.3333333333333333
1.3411534701857282
1.3470185728250244
1.3440860215053765
1.335288367546432
1.3264907135874875
1.3147605083088951
1.300097751710655
1.2854349951124144
1.273704789833822
1.2727272727272727
1.2903225806451613
1.335288367546432
1.4134897360703813
1.525904203323558
1.6715542521994136
1.8172043010752688
2.01564027370479
2.2160312805474094
2.3597262952101663
2.512218963831867
2.653958944281525
2.7751710654936463
2.870967741935484
2.93841642228739
2.979472140762464
2.9960899315738025
2.991202346041056
2.9687194525904204
2.9345063538611926
2.8905180840664717
2.8377321603128056
2.7781036168132944
2.713587487781036
2.6471163245356792
2.5777126099706744
2.50733137829912
2.4359726295210167
2.363636363636364
2.2873900293255134
2.2082111436950145
2.134897360703812
2.06158357771261
1.9765395894428155
1.8836754643206255
1.782991202346041
1.6803519061583578
1.5786901270772238
1.4819159335288368
1.391006842619746
1.3098729227761483
1.2404692082111437
1.1837732160312806
1.142717497556207
1.1143695014662756
1.088954056695992
1.0684261974584557
1.0527859237536656
1.043010752688172
1.0381231671554252
1.035190615835777
1.0342130987292275
1.0332355816226784
1.0332355816226784
1.032258064516129
1.032258064516129
1.0303030303030305
1.0254154447702837
1.0205278592375366
1.0156402737047898
1.0097751710654936
1.0058651026392962
1.0009775171065494
0.9960899315738024
0.9921798631476052
0.9882697947214076
0.9853372434017597
0.9843597262952102
0.9872922776148584
0.9941348973607038
1.0019550342130987
1.0117302052785924
1.0224828934506354
1.0332355816226784
1.0439882697947214
1.053763440860215
1.0625610948191593
1.0713587487781036
1.0801564027370478
1.0899315738025417
1.1006842619745845
1.1124144672531768
1.1251221896383188
1.1368523949169111
1.1466275659824048
1.1544477028347997
1.160312805474096
1.1652003910068427
1.1720430107526882
1.1857282502443791
1.2140762463343109
1.2668621700879763
1.3499511241446724
1.444770283479961
1.5591397849462365
1.715542521994135
1.8993157380254155
2.0957966764418376
2.290322580645161
2.4711632453567938
2.6285434995112413
2.7565982404692084
2.8533724340175954
2.918866080156403
2.9550342130987293
2.964809384164223
2.9550342130987293
2.932551319648094
2.898338220918866
2.854349951124145
2.801564027370479
2.7419354838709675
2.677419354838709
2.610948191593353
2.5434995112414467
2.4750733137829912
2.406647116324536
2.3382209188660803
2.2766373411534704
2.2160312805474094
2.1485826001955037
2.074291300097752
1.992179863147605
1.903225806451613
1.8074291300097751
1.7067448680351909
1.6050830889540566
1.5063538611925709
1.4134897360703813
1.3294232649071358
1.2639296187683284
1.2140762463343109
1.1681329423264908
1.1300097751710656
1.099706744868035
1.075268817204301
1.0596285434995112
1.0518084066471165
1.0488758553274682
1.050830889540567
1.053763440860215
1.0586510263929618
1.0635386119257086
1.0694037145650048
1.0742913000977516
1.0772238514173995
1.0772238514173995
1.075268817204301
1.0713587487781036
1.0654936461388074
1.0586510263929618
1.0527859237536656
1.0469208211143697
1.0410557184750733
1.0371456500488758
1.0361681329423265
1.0371456500488758
1.0381231671554252
1.0381231671554252
1.0381231671554252
1.0381231671554252
1.0391006842619743
1.0410557184750733
1.0439882697947214
1.0469208211143697
1.0498533724340176
1.053763440860215
1.0576735092864125
1.0625610948191593
1.0684261974584557
1.0733137829912025
1.0791788856304985
1.0840664711632453
1.0899315738025417
1.0948191593352885
1.0977517106549364
1.099706744868035
1.1006842619745845
1.1016617790811338
1.1065493646138806
1.1192570869990224
1.1456500488758554
1.1974584555229717
1.2805474095796676
1.3988269794721409
1.5513196480938416
1.7311827956989247
1.9257086999022484
2.12316715542522
2.3098729227761488
2.4760508308895406
2.6148582600195502
2.719452590420332
2.78494623655914
2.820136852394917
2.8396871945259043
2.8396871945259043
2.8211143695014664
2.7859237536656893
2.7390029325513194
2.6832844574780057
2.621700879765396
2.555229716520039
2.486803519061584
2.4164222873900294
2.350928641251222
2.290322580645161
2.225806451612903
2.158357771260997
2.0879765395894427
2.013685239491691
1.935483870967742
1.8514173998044965
1.761485826001955
1.667644183773216
1.5728250244379276
1.479960899315738
1.391006842619746
1.3196480938416422
1.2619745845552297
1.206256109481916
1.1593352883675463
1.1241446725317692
1.099706744868035
1.0850439882697946
1.0791788856304985
1.0801564027370478
1.086021505376344
1.0957966764418376
1.10752688172043
1.1202346041055715
1.1319648093841643
1.142717497556207
1.152492668621701
1.1612903225806452
1.1700879765395895
1.1779081133919844
1.18475073313783
1.1906158357771262
1.195503421309873
1.198435972629521
1.2013685239491692
1.2043010752688172
1.209188660801564
1.2150537634408602
1.219941348973607
1.2258064516129032
1.23069403714565
1.2365591397849462
1.2443792766373412
1.2512218963831867
1.2551319648093842
1.2561094819159335
1.2541544477028348
1.2502443792766371
1.24633431085044
1.2434017595307918
1.238514173998045
1.2336265884652982
1.2287390029325511
1.2238514173998043
1.2209188660801564
1.2189638318670577
1.2150537634408602
1.2111436950146628
1.2072336265884651
1.2003910068426198
1.1935483870967742
1.1896383186705768
1.1886608015640274
1.1974584555229717
1.224828934506354
1.2805474095796676
1.3714565004887584
1.4965786901270772
1.6529814271749756
1.8328445747800584
2.024437927663734
2.2140762463343107
2.391006842619746
2.527859237536657
2.631476050830889
2.7233626588465296
2.792766373411535
2.8367546432062563
2.8563049853372435
2.854349951124145
2.834799608993157
2.801564027370479
2.758553274682307
2.7067448680351904
2.649071358748778
2.591397849462365
2.5347018572825024
2.4731182795698925
2.4086021505376345
2.343108504398827
2.2766373411534704
2.209188660801564
2.1407624633431084
2.071358748778104
1.997067448680352
1.916911045943304
1.8299120234604105
1.7380254154447703
1.6549364613880744
1.5757575757575757
1.487781036168133
1.3988269794721409
1.313782991202346
1.238514173998045
1.1749755620723363
1.1231671554252198
1.0840664711632453
1.056695992179863
1.040078201368524
1.0312805474095796
1.0312805474095796
1.0361681329423265
1.0420332355816226
1.0488758553274682
1.0576735092864125
1.064516129032258
1.0713587487781036
1.0772238514173995
1.0821114369501466
1.0869990224828934
1.0918866080156402
1.0957966764418376
1.0987292277614855
1.1036168132942326
1.110459433040078
1.1163245356793745
1.1221896383186705
1.1280547409579669
1.133919843597263
1.1407624633431086
1.1495601173020529
1.160312805474096
1.1730205278592376
1.1857282502443791
1.1974584555229717
1.2101661779081134
1.2218963831867058
1.2336265884652982
1.24633431085044
1.2590420332355816
1.270772238514174
1.281524926686217
1.29227761485826
1.300097751710655
1.3040078201368523
1.3049853372434017
1.3020527859237536
1.295210166177908
1.2883675464320623
1.278592375366569
1.2639296187683284
1.2502443792766371
1.2453567937438903
1.2580645161290325
1.2981427174975562
1.370478983382209
1.478005865102639
1.619745845552297
1.7878787878787878
1.970674486803519
2.131964809384164
2.275659824046921
2.4252199413489737
2.5620723362658846
2.67644183773216
2.763440860215054
2.822091886608016
2.854349951124145
2.8641251221896384
2.854349951124145
2.8289345063538613
2.790811339198436
2.742913000977517
2.69208211143695
2.6392961876832843
2.5806451612903225
2.5190615835777126
2.455522971652004
2.389051808406647
2.321603128054741
2.236559139784946
2.160312805474096
2.103616813294233
2.0361681329423265
1.948191593352884
1.8699902248289344
1.8054740957966764
1.7223851417399805
1.6285434995112416
1.530791788856305
1.434017595307918
1.3421309872922775
1.2590420332355816
1.187683284457478
1.1290322580645162
1.083088954056696
1.0439882697947214
1.0156402737047898
1.002932551319648
0.9960899315738024
0.9912023460410556
0.9882697947214076
0.9882697947214076
0.989247311827957
0.9912023460410556
0.9931573802541545
0.9941348973607038
0.9941348973607038
0.9921798631476052
0.9902248289345064
0.9902248289345064
0.9921798631476052
0.9912023460410556
0.989247311827957
0.9872922776148584
0.9853372434017597
0.9833822091886608
0.9833822091886608
0.9843597262952102
0.9872922776148584
0.9912023460410556
0.9951124144672532
1.0009775171065494
1.0117302052785924
1.0224828934506354
1.029325513196481
1.0371456500488758
1.0449657869012707
1.050830889540567
1.0547409579667644
1.0596285434995112
1.067448680351906
1.0762463343108504
1.083088954056696
1.0918866080156402
1.1026392961876832
1.1143695014662756
1.1241446725317692
1.1290322580645162
1.130987292277615
1.1319648093841643
1.144672531769306
1.163245356793744
1.2150537634408602
1.3186705767350928
1.4486803519061584
1.606060606060606
1.7595307917888563
1.9130009775171064
2.042033235581622
2.19941348973607
2.4086021505376345
2.5777126099706744
2.708699902248289
2.8054740957966766
2.8699902248289346
2.90811339198436
2.921798631476051
2.913978494623656
2.889540566959922
2.854349951124145
2.8103616813294234
2.7595307917888565
2.7038123167155423
2.643206256109482
2.579667644183773
2.5141739980449658
2.447702834799609
2.3812316715542523
2.314760508308896
2.24633431085044
2.1730205278592374
2.103616813294233
2.034213098729228
1.95405669599218
1.865102639296188
1.7702834799608993
1.675464320625611
1.5835777126099706
1.4965786901270772
1.418377321603128
1.3509286412512218
1.2942326490713587
1.249266862170088
1.219941348973607
1.2013685239491692
1.1867057673509287
1.1788856304985338
1.1749755620723363
1.1749755620723363
1.1788856304985338
1.18475073313783
1.1915933528836755
1.1994134897360704
1.206256109481916
1.2121212121212122
1.2179863147605083
1.227761485826002
1.2394916911045943
1.2473118279569892
1.252199413489736
1.2580645161290325
1.262952101661779
1.2688172043010753
1.273704789833822
1.2795698924731185
1.2864125122189638
1.29227761485826
1.2981427174975562
1.3040078201368523
1.3088954056695992
1.3118279569892473
1.3147605083088951
1.3176930596285434
1.3186705767350928
1.3196480938416422
1.3196480938416422
1.3186705767350928
1.316715542521994
1.313782991202346
1.310850439882698
1.3098729227761483
1.310850439882698
1.310850439882698
1.3088954056695992
1.3040078201368523
1.2961876832844574
1.284457478005865
1.2688172043010753
1.2531769305962854
1.2443792766373412
1.249266862170088
1.2766373411534702
1.3343108504398826
1.4086021505376345
1.504398826979472
1.6412512218963833
1.8074291300097751
1.9902248289345064
2.1739980449657867
2.346041055718475
2.4975562072336266
2.621700879765396
2.7155425219941347
2.779081133919844
2.8152492668621703
2.8260019550342133
2.817204301075269
2.795698924731183
2.763440860215054
2.720430107526881
2.6695992179863146
2.611925708699902
2.550342130987292
2.486803519061584
2.423264907135875
2.360703812316716
2.2981427174975564
2.2355816226783967
2.1788856304985336
2.12316715542522
2.058651026392962
1.988269794721408
1.9100684261974583
1.8240469208211143
1.732160312805474
1.635386119257087
1.5376344086021505
1.4408602150537635
1.348973607038123
1.2658846529814272
1.2023460410557183
1.152492668621701
1.104594330400782
1.0664711632453567
1.0371456500488758
1.0175953079178883
1.0058651026392962
1.0019550342130987
1.002932551319648
1.007820136852395
1.0146627565982405
1.021505376344086
1.029325513196481
1.0381231671554252
1.0478983382209188
1.0547409579667644
1.0596285434995112
1.0635386119257086
1.0654936461388074
1.0664711632453567
1.0664711632453567
1.0664711632453567
1.067448680351906
1.0694037145650048
1.072336265884653
1.0791788856304985
1.0879765395894427
1.0977517106549364
1.1094819159335287
1.1241446725317692
1.13880742913001
1.152492668621701
1.166177908113392
1.1798631476050832
1.1945259042033236
1.2111436950146628
1.227761485826002
1.2424242424242424
1.2551319648093842
1.2668621700879763
1.2776148582600195
1.284457478005865
1.2883675464320623
1.2883675464320623
1.2834799608993157
1.273704789833822
1.260019550342131
1.24633431085044
1.2355816226783969
1.2346041055718475
1.24633431085044
1.278592375366569
1.3421309872922775
1.4408602150537635
1.5757575757575757
1.7409579667644184
1.9257086999022484
2.1192570869990224
2.30791788856305
2.479960899315738
2.6285434995112413
2.7497556207233624
2.8396871945259043
2.8914956011730206
2.916911045943304
2.9266862170087977
2.918866080156403
2.895405669599218
2.857282502443793
2.8103616813294234
2.755620723362659
2.695014662756598
2.63049853372434
2.5640273704789838
2.495601173020528
2.4330400782013686
2.3734115347018574
2.3098729227761488
2.241446725317693
2.1700879765395893
2.093841642228739
2.010752688172043
1.9227761485826005
1.828934506353861
1.7302052785923754
1.629521016617791
1.5288367546432062
1.4320625610948192
1.3519061583577712
1.2854349951124144
1.2218963831867058
1.1671554252199414
1.1231671554252198
1.0899315738025417
1.0664711632453567
1.0518084066471165
1.0439882697947214
1.0420332355816226
1.0449657869012707
1.050830889540567
1.0586510263929618
1.067448680351906
1.0742913000977516
1.0801564027370478
1.086021505376344
1.0909090909090908
1.0928641251221896
1.093841642228739
1.0948191593352885
1.0948191593352885
1.093841642228739
1.0928641251221896
1.0928641251221896
1.0948191593352885
1.0977517106549364
1.1006842619745845
1.104594330400782
1.110459433040078
1.1173020527859236
1.126099706744868
1.1358748778103618
1.1456500488758554
1.155425219941349
1.164222873900293
1.1730205278592376
1.1837732160312806
1.195503421309873
1.2082111436950147
1.2209188660801564
1.2326490713587488
1.2434017595307918
1.2541544477028348
1.2649071358748778
1.273704789833822
1.2795698924731185
1.2834799608993157
1.2854349951124144
1.2883675464320623
1.295210166177908
1.3098729227761483
1.3411534701857282
1.3958944281524928
1.4819159335288368
1.603128054740958
1.7565982404692082
1.935483870967742
2.1280547409579667
2.3225806451612905
2.506353861192571
2.670576735092864
2.790811339198436
2.87683284457478
2.9501466275659824
3.0019550342130987
3.032258064516129
3.040078201368524
3.0283479960899315
3.0009775171065494
2.961876832844575
2.913000977517106
2.8563049853372435
2.793743890518084
2.7331378299120237
2.6725317693059627
2.6080156402737047
2.5405669599217986
2.4711632453567938
2.39980449657869
2.326490713587488
2.2502443792766376
2.1681329423264906
2.080156402737048
1.986314760508309
1.8885630498533723
1.7898338220918866
1.7038123167155426
1.624633431085044
1.5405669599217986
1.4604105571847508
1.388074291300098
1.3255131964809383
1.2727272727272727
1.2297165200391007
1.1974584555229717
1.1759530791788857
1.164222873900293
1.1583577712609971
