ppg
1.1329423264907137
1.126099706744868
1.1173020527859236
1.10752688172043
1.0977517106549364
1.088954056695992
1.083088954056696
1.078201368523949
1.075268817204301
1.072336265884653
1.0694037145650048
1.0664711632453567
1.0664711632453567
1.067448680351906
1.0664711632453567
1.0625610948191593
1.0576735092864125
1.0518084066471165
1.0469208211143697
1.0420332355816226
1.0381231671554252
1.035190615835777
1.032258064516129
1.029325513196481
1.0273704789833822
1.0273704789833822
1.0283479960899315
1.0224828934506354
1.0127077223851415
1.0058651026392962
1.0009775171065494
0.997067448680352
0.9941348973607038
0.9912023460410556
0.9863147605083088
0.9824046920821116
0.9794721407624634
0.9804496578690128
0.9824046920821116
0.9843597262952102
0.9863147605083088
0.9872922776148584
0.9863147605083088
0.9853372434017597
0.9843597262952102
0.9843597262952102
0.9863147605083088
0.9951124144672532
1.0127077223851415
1.0391006842619743
1.078201368523949
1.13880742913001
1.2228739002932552
1.3313782991202343
1.4633431085043989
1.6129032258064515
1.7761485826001957
1.946236559139785
2.1163245356793743
2.27761485826002
2.423264907135875
2.550342130987292
2.6422287390029324
2.708699902248289
2.768328445747801
2.814271749755621
2.84652981427175
2.8670576735092865
2.875855327468231
2.8729227761485827
2.86217008797654
2.843597262952102
2.817204301075269
2.78494623655914
2.747800586510264
2.705767350928641
2.6559139784946235
2.5992179863147604
2.5347018572825024
2.462365591397849
2.3851417399804498
2.3059628543499517
2.225806451612903
2.147605083088954
2.0733137829912023
2.004887585532747
1.9442815249266865
1.895405669599218
1.855327468230694
1.8191593352883677
1.7878787878787878
1.7605083088954057
1.737047898338221
1.7165200391006843
1.6959921798631477
1.6744868035190617
1.6520039100684265
1.6285434995112416
1.6021505376344083
1.5777126099706744
1.555229716520039
1.5278592375366569
1.498533724340176
1.4672531769305963
1.434017595307918
1.3998044965786902
1.3655913978494625
1.332355816226784
1.3010752688172045
1.2727272727272727
1.2453567937438903
1.219941348973607
1.2003910068426198
1.1857282502443791
1.1691104594330402
1.152492668621701
1.1378299120234605
1.1251221896383188
1.1133919843597262
1.1016617790811338
1.0909090909090908
1.0811339198435972
1.072336265884653
1.064516129032258
1.06158357771261
1.0606060606060606
1.0586510263929618
1.056695992179863
1.0547409579667644
1.0518084066471165
1.0498533724340176
1.0058651026392962
1.0068426197458455
1.0087976539589445
1.010752688172043
1.0127077223851415
1.0146627565982405
1.018572825024438
1.0234604105571847
1.029325513196481
1.0391006842619743
1.056695992179863
1.0869990224828934
1.1358748778103618
1.2072336265884651
1.303030303030303
1.423264907135875
1.565982404692082
1.7243401759530792
1.869012707722385
2.004887585532747
2.156402737047898
2.3088954056695994
2.4516129032258065
2.578690127077224
2.686217008797654
2.773216031280548
2.8396871945259043
2.886608015640274
2.9159335288367547
2.930596285434995
2.9345063538611926
2.9266862170087977
2.9100684261974585
2.889540566959922
2.865102639296188
2.833822091886608
2.795698924731183
2.7497556207233624
2.696969696969697
2.636363636363636
2.567937438905181
2.493646138807429
2.4144672531769307
2.3411534701857284
2.270772238514174
2.1974584555229715
2.126099706744868
2.059628543499511
1.9990224828934504
1.946236559139785
1.9012707722385145
1.8631476050830889
1.83088954056696
1.8035190615835777
1.7790811339198436
1.7556207233626588
1.7350928641251222
1.715542521994135
1.694037145650049
1.6695992179863148
1.643206256109482
1.6158357771260996
1.587487781036168
1.5571847507331378
1.5249266862170088
1.4926686217008798
1.4604105571847508
1.4291300097751711
1.4037145650048877
1.3812316715542523
1.3558162267839686
1.3284457478005864
1.3020527859237536
1.2756598240469208
1.2502443792766371
1.227761485826002
1.2072336265884651
1.187683284457478
1.1691104594330402
1.1534701857282503
1.141739980449658
1.1348973607038124
1.130987292277615
1.1270772238514175
1.1221896383186705
1.1173020527859236
1.1124144672531768
1.1085043988269794
1.104594330400782
1.1006842619745845
1.0977517106549364
1.0948191593352885
1.0918866080156402
1.0909090909090908
1.0918866080156402
1.0909090909090908
1.0879765395894427
1.0850439882697946
1.0821114369501466
1.0801564027370478
1.0772238514173995
1.0733137829912025
1.0703812316715542
1.067448680351906
1.0635386119257086
1.06158357771261
1.06158357771261
1.0625610948191593
1.06158357771261
1.0606060606060606
1.0586510263929618
1.056695992179863
1.0557184750733135
1.0557184750733135
1.0557184750733135
1.0557184750733135
1.0557184750733135
1.0557184750733135
1.0576735092864125
1.0606060606060606
1.06158357771261
1.06158357771261
1.06158357771261
1.06158357771261
1.06158357771261
1.0625610948191593
1.0664711632453567
1.0840664711632453
1.115347018572825
1.1564027370478984
1.2043010752688172
1.2649071358748778
1.3528836754643203
1.4672531769305963
1.606060606060606
1.7634408602150538
1.9335288367546437
2.10752688172043
2.278592375366569
2.4389051808406648
2.5835777126099706
2.708699902248289
2.8132942326490715
2.8856304985337244
2.9335288367546437
2.973607038123167
3.0019550342130987
3.0195503421309877
3.0283479960899315
3.0283479960899315
3.021505376344086
3.0087976539589443
2.9902248289345064
2.962854349951124
2.927663734115347
2.886608015640274
2.838709677419355
2.782013685239492
2.716520039100684
2.643206256109482
2.563049853372434
2.4780058651026398
2.3900293255131966
2.302052785923754
2.2160312805474094
2.1358748778103616
2.0635386119257086
2.0009775171065494
1.951124144672532
1.911045943304008
1.8748778103616808
1.8435972629521016
1.8172043010752688
1.7927663734115349
1.7683284457478006
1.7438905180840665
1.718475073313783
1.6930596285434996
1.6666666666666667
1.6383186705767352
1.6129032258064515
1.590420332355816
1.563049853372434
1.5327468230694037
1.501466275659824
1.469208211143695
1.4379276637341154
1.4076246334310851
1.3782991202346042
1.348973607038123
1.3206256109481915
1.2932551319648091
1.267839687194526
1.249266862170088
1.2346041055718475
1.217008797653959
1.2003910068426198
1.18475073313783
1.1700879765395895
1.1573802541544478
1.1456500488758554
1.1348973607038124
1.1241446725317692
1.1143695014662756
1.1055718475073313
1.1016617790811338
1.099706744868035
1.0957966764418376
1.0918866080156402
1.088954056695992
1.0869990224828934
1.0850439882697946
1.0821114369501466
1.0791788856304985
1.0762463343108504
1.0713587487781036
1.0654936461388074
1.0596285434995112
1.0576735092864125
1.0576735092864125
1.0576735092864125
1.0576735092864125
1.0596285434995112
1.06158357771261
1.0625610948191593
1.06158357771261
1.0596285434995112
1.0576735092864125
1.0557184750733135
1.0547409579667644
1.056695992179863
1.0596285434995112
1.06158357771261
1.0625610948191593
1.0635386119257086
1.064516129032258
1.064516129032258
1.064516129032258
1.064516129032258
1.064516129032258
1.064516129032258
1.064516129032258
1.0654936461388074
1.0694037145650048
1.075268817204301
1.083088954056696
1.0977517106549364
1.1231671554252198
1.166177908113392
1.2297165200391007
1.316715542521994
1.4281524926686218
1.5620723362658846
1.715542521994135
1.8826979472140764
2.032258064516129
2.16911045943304
2.315738025415445
2.4594330400782014
2.591397849462365
2.704789833822092
2.798631476050831
2.8719452590420333
2.9257086999022484
2.961876832844575
2.983382209188661
2.992179863147605
2.992179863147605
2.981427174975562
2.962854349951124
2.940371456500489
2.9120234604105573
2.87683284457478
2.834799608993157
2.78494623655914
2.727272727272727
2.66177908113392
2.5884652981427174
2.509286412512219
2.4271749755620724
2.350928641251222
2.27761485826002
2.20039100684262
2.12316715542522
2.050830889540567
1.9872922776148585
1.9315738025415443
1.884652981427175
1.8455522971652003
1.8132942326490715
1.7859237536656891
1.761485826001955
1.7380254154447703
1.7165200391006843
1.6959921798631477
1.6735092864125125
1.6471163245356797
1.6187683284457477
1.590420332355816
1.560117302052786
1.5278592375366569
1.495601173020528
1.4643206256109482
1.4320625610948192
1.3998044965786902
1.3714565004887584
1.3450635386119256
1.316715542521994
1.289345063538612
1.2639296187683284
1.238514173998045
1.2140762463343109
1.1915933528836755
1.1710654936461389
1.152492668621701
1.1358748778103618
1.1202346041055715
1.1055718475073313
1.0957966764418376
1.088954056695992
1.0821114369501466
1.0742913000977516
1.0664711632453567
1.0596285434995112
1.0547409579667644
1.050830889540567
1.0478983382209188
1.0449657869012707
1.0420332355816226
1.0391006842619743
1.0391006842619743
1.0391006842619743
1.0371456500488758
1.0332355816226784
1.0273704789833822
1.0224828934506354
1.0166177908113392
1.010752688172043
1.0068426197458455
1.0039100684261977
1.002932551319648
1.0019550342130987
1.0019550342130987
1.0039100684261977
1.0058651026392962
1.0048875855327468
1.0019550342130987
0.9990224828934506
0.997067448680352
0.9960899315738024
0.9960899315738024
0.9960899315738024
0.9960899315738024
0.9960899315738024
0.997067448680352
1.0
1.0019550342130987
1.0019550342130987
1.0019550342130987
1.0019550342130987
1.0019550342130987
1.0019550342130987
1.0019550342130987
1.0048875855327468
1.0146627565982405
1.035190615835777
1.0703812316715542
1.1143695014662756
1.1710654936461389
1.2551319648093842
1.3655913978494625
1.499511241446725
1.653958944281525
1.8211143695014664
1.994134897360704
2.163245356793744
2.32355816226784
2.4682306940371457
2.592375366568915
2.695014662756598
2.766373411534702
2.8132942326490715
2.854349951124145
2.874877810361681
2.8797653958944283
2.8807429130009776
2.874877810361681
2.863147605083089
2.8455522971652005
2.8211143695014664
2.789833822091887
2.752688172043011
2.710654936461388
2.66177908113392
2.6041055718475072
2.5386119257087
2.466275659824047
2.389051808406647
2.3088954056695994
2.2297165200391005
2.1544477028347995
2.0840664711632453
2.0205278592375366
1.964809384164223
1.9178885630498532
1.8797653958944285
1.8504398826979471
1.825024437927664
1.801564027370479
1.7790811339198436
1.758553274682307
1.7390029325513197
1.718475073313783
1.6950146627565983
1.6686217008797657
1.6412512218963833
1.611925708699902
1.5865102639296187
1.5610948191593352
1.5327468230694037
1.501466275659824
1.469208211143695
1.436950146627566
1.404692082111437
1.3743890518084063
1.346041055718475
1.3186705767350928
1.2932551319648091
1.270772238514174
1.2502443792766371
1.2355816226783969
1.2238514173998043
1.2111436950146628
1.198435972629521
1.1857282502443791
1.1749755620723363
1.1671554252199414
1.1612903225806452
1.155425219941349
1.1505376344086022
1.1466275659824048
1.1436950146627567
1.1436950146627567
1.144672531769306
1.144672531769306
1.1436950146627567
1.141739980449658
1.1407624633431086
1.13880742913001
1.1368523949169111
1.133919843597263
1.1300097751710656
1.1251221896383188
1.121212121212121
1.1173020527859236
1.1163245356793745
1.1173020527859236
1.1173020527859236
1.115347018572825
1.1143695014662756
1.1124144672531768
1.110459433040078
1.10752688172043
1.104594330400782
1.1026392961876832
1.1006842619745845
1.0987292277614855
1.099706744868035
1.1016617790811338
1.1016617790811338
1.1006842619745845
1.0977517106549364
1.093841642228739
1.0899315738025417
1.0879765395894427
1.0869990224828934
1.0869990224828934
1.0869990224828934
1.0869990224828934
1.088954056695992
1.093841642228739
1.1026392961876832
1.1163245356793745
1.1378299120234605
1.1720430107526882
1.2258064516129032
1.3020527859237536
1.4027370478983383
1.5268817204301075
1.672531769305963
1.8328445747800584
2.0
2.144672531769306
2.274682306940372
2.4144672531769307
2.547409579667644
2.665689149560117
2.766373411534702
2.8484848484848486
2.9100684261974585
2.95405669599218
2.9824046920821115
2.9980449657869013
3.002932551319648
2.99902248289345
2.9853372434017595
2.9657869012707723
2.943304007820137
2.9159335288367547
2.881720430107527
2.8406647116324537
2.790811339198436
2.732160312805474
2.664711632453568
2.590420332355816
2.5102639296187683
2.4281524926686218
2.3528836754643208
2.281524926686217
2.206256109481916
2.132942326490713
2.0664711632453567
2.007820136852395
1.956989247311828
1.913978494623656
1.8778103616813293
1.847507331378299
1.8211143695014664
1.7956989247311828
1.7702834799608993
1.7487781036168133
1.7282502443792769
1.7038123167155426
1.6764418377321604
1.6471163245356797
1.6177908113391983
1.5884652981427174
1.5571847507331378
1.5249266862170088
1.4936461388074291
1.4623655913978495
1.43108504398827
1.4056695992179864
1.383186705767351
1.3577712609970674
1.332355816226784
1.305962854349951
1.281524926686217
1.2590420332355816
1.238514173998045
1.219941348973607
1.2023460410557183
1.1867057673509287
1.1730205278592376
1.1612903225806452
1.1544477028347997
1.1505376344086022
1.1456500488758554
1.1407624633431086
1.1348973607038124
1.1280547409579669
1.121212121212121
1.115347018572825
1.110459433040078
1.104594330400782
1.099706744868035
1.0957966764418376
1.093841642228739
1.0928641251221896
1.0899315738025417
1.0879765395894427
1.0850439882697946
1.083088954056696
1.0821114369501466
1.0821114369501466
1.0840664711632453
1.0850439882697946
1.0850439882697946
1.0850439882697946
1.086021505376344
1.0869990224828934
1.0869990224828934
1.086021505376344
1.0840664711632453
1.0821114369501466
1.0801564027370478
1.0791788856304985
1.078201368523949
1.0762463343108504
1.0742913000977516
1.0733137829912025
1.0733137829912025
1.0762463343108504
1.0811339198435972
1.0840664711632453
1.0850439882697946
1.086021505376344
1.086021505376344
1.086021505376344
1.0879765395894427
1.0957966764418376
1.1124144672531768
1.141739980449658
1.1886608015640274
1.2443792766373412
1.3147605083088951
1.4134897360703813
1.5366568914956011
1.6803519061583578
1.8387096774193548
2.004887585532747
2.172043010752688
2.3313782991202348
2.4789833822091887
2.610948191593353
2.7223851417399803
2.8132942326490715
2.873900293255132
2.913000977517106
2.9442815249266863
2.964809384164223
2.9745845552297165
2.975562072336266
2.9696969696969697
2.9579667644183774
2.940371456500489
2.9159335288367547
2.884652981427175
2.84652981427175
2.803519061583578
2.7536656891495603
2.6959921798631474
2.6295210166177907
2.5562072336265884
2.47702834799609
2.3949169110459434
2.3118279569892475
2.23069403714565
2.1544477028347995
2.0733137829912023
1.9931573802541545
1.9296187683284456
1.881720430107527
1.8435972629521016
1.8093841642228736
1.7781036168132942
1.7497556207233629
1.7223851417399805
1.6959921798631477
1.6705767350928642
1.6451612903225807
1.619745845552297
1.5933528836754642
1.5650048875855327
1.5395894428152492
1.5151515151515151
1.4868035190615836
1.455522971652004
1.423264907135875
1.3919843597262953
1.3616813294232648
1.332355816226784
1.3040078201368523
1.2766373411534702
1.249266862170088
1.2228739002932552
1.1974584555229717
1.176930596285435
1.160312805474096
1.142717497556207
1.1251221896383188
1.1094819159335287
1.096774193548387
1.086021505376344
1.078201368523949
1.0713587487781036
1.0654936461388074
1.0596285434995112
1.053763440860215
1.050830889540567
1.0498533724340176
1.0469208211143697
1.0420332355816226
1.0371456500488758
1.032258064516129
1.0273704789833822
1.0224828934506354
1.018572825024438
1.0156402737047898
1.0127077223851415
1.0097751710654936
1.0068426197458455
1.0068426197458455
1.007820136852395
1.0068426197458455
1.0058651026392962
1.0048875855327468
1.0039100684261977
1.0039100684261977
1.002932551319648
1.0009775171065494
0.9980449657869012
0.9960899315738024
0.9951124144672532
0.997067448680352
0.9990224828934506
1.0
1.0019550342130987
1.002932551319648
1.0039100684261977
1.0048875855327468
1.0068426197458455
1.0097751710654936
1.0127077223851415
1.0146627565982405
1.0156402737047898
1.0156402737047898
1.0175953079178883
1.021505376344086
1.0273704789833822
1.0410557184750733
1.0654936461388074
1.10752688172043
1.1700879765395895
1.2561094819159335
1.3665689149560116
1.499511241446725
1.6520039100684265
1.818181818181818
1.9667644183773216
2.104594330400782
2.2561094819159337
2.403714565004888
2.5386119257087
2.6559139784946235
2.752688172043011
2.827956989247312
2.8826979472140764
2.919843597262952
2.943304007820137
2.9550342130987293
2.956011730205278
2.945259042033236
2.927663734115347
2.905180840664712
2.877810361681329
2.844574780058651
2.803519061583578
2.7546432062561097
2.697947214076246
2.632453567937439
2.5591397849462365
2.4789833822091887
2.3958944281524928
2.318670576735093
2.24633431085044
2.1700879765395893
2.0948191593352883
2.0254154447702835
1.962854349951124
1.90811339198436
1.8631476050830889
1.826001955034213
1.7947214076246334
1.7673509286412512
1.7409579667644184
1.715542521994135
1.6930596285434996
1.672531769305963
1.6490713587487782
1.6236559139784943
1.5972629521016617
1.5679374389051808
1.5366568914956011
1.504398826979472
1.4711632453567938
1.4379276637341154
1.4037145650048877
1.3714565004887584
1.3450635386119256
1.321603128054741
1.2961876832844574
1.2697947214076246
1.2434017595307918
1.217008797653959
1.1915933528836755
1.1681329423264908
1.1466275659824048
1.1280547409579669
1.1124144672531768
1.099706744868035
1.0879765395894427
1.0821114369501466
1.078201368523949
1.072336265884653
1.0654936461388074
1.0586510263929618
1.050830889540567
1.0439882697947214
1.0361681329423265
1.029325513196481
1.0234604105571847
1.0195503421309873
1.0156402737047898
1.0146627565982405
1.0146627565982405
1.013685239491691
1.0117302052785924
1.0087976539589445
1.0048875855327468
1.0
0.9951124144672532
0.9902248289345064
0.9863147605083088
0.9833822091886608
0.9804496578690128
0.9804496578690128
0.981427174975562
0.9804496578690128
0.978494623655914
0.975562072336266
0.9716520039100685
0.967741935483871
0.9638318670576737
0.959921798631476
0.9560117302052786
0.9530791788856304
0.9501466275659824
0.9481915933528836
0.9501466275659824
0.95405669599218
0.9560117302052786
0.9560117302052786
0.95405669599218
0.9521016617790812
0.9501466275659824
0.9472140762463344
0.946236559139785
0.9491691104594332
0.9589442815249268
0.9794721407624634
1.0087976539589445
1.0518084066471165
1.1173020527859236
1.2082111436950147
1.3235581622678396
1.4623655913978495
1.6177908113391983
1.7839687194525904
1.9550342130987293
2.12316715542522
2.2825024437927666
2.426197458455523
2.550342130987292
2.6402737047898337
2.7038123167155423
2.7595307917888565
2.803519061583578
2.832844574780059
2.8484848484848486
2.854349951124145
2.852394916911046
2.8406647116324537
2.8211143695014664
2.795698924731183
2.7624633431085046
2.7233626588465296
2.679374389051808
2.627565982404692
2.5669599217986314
2.4995112414467253
2.4242424242424243
2.3440860215053765
2.260997067448681
2.177908113391984
2.0987292277614857
2.0254154447702835
1.9589442815249267
1.900293255131965
1.8543499511241448
1.818181818181818
1.7859237536656891
1.758553274682307
1.7341153470185728
1.7116324535679377
1.6901270772238517
1.667644183773216
1.643206256109482
1.616813294232649
1.590420332355816
1.5620723362658846
1.5366568914956011
1.5131964809384164
1.4868035190615836
1.458455522971652
1.4418377321603129
1.4301075268817205
1.4076246334310851
1.3792766373411536
1.348973607038123
1.3196480938416422
1.29227761485826
1.2658846529814272
1.241446725317693
1.2228739002932552
1.2082111436950147
1.1915933528836755
1.1749755620723363
1.1583577712609971
1.142717497556207
1.1290322580645162
1.1163245356793745
1.104594330400782
1.0948191593352885
1.0879765395894427
1.0811339198435972
1.078201368523949
1.0772238514173995
1.075268817204301
1.0733137829912025
1.0703812316715542
1.067448680351906
1.0635386119257086
1.0606060606060606
1.0576735092864125
1.0547409579667644
1.0518084066471165
1.0488758553274682
1.0469208211143697
1.0469208211143697
1.0478983382209188
1.0469208211143697
1.04594330400782
1.0439882697947214
1.0410557184750733
1.0381231671554252
1.0361681329423265
1.0332355816226784
1.0303030303030305
1.0254154447702837
1.0205278592375366
1.018572825024438
1.0175953079178883
1.0166177908113392
1.0146627565982405
1.0117302052785924
1.0087976539589445
1.0068426197458455
1.0068426197458455
1.007820136852395
1.007820136852395
1.0068426197458455
1.0058651026392962
1.0039100684261977
1.0039100684261977
1.0058651026392962
1.007820136852395
1.0117302052785924
1.0234604105571847
1.0469208211143697
1.0850439882697946
1.1436950146627567
1.2258064516129032
1.3333333333333333
1.4643206256109482
1.616813294232649
1.7595307917888563
1.8983382209188664
2.056695992179863
2.217986314760508
2.3704789833822093
2.50733137829912
2.624633431085044
2.720430107526881
2.793743890518084
2.8475073313782997
2.8836754643206257
2.905180840664712
2.9149560117302054
2.911045943304008
2.898338220918866
2.8826979472140764
2.86217008797654
2.835777126099707
2.8025415444770285
2.7614858260019552
2.713587487781036
2.656891495601173
2.592375366568915
2.520039100684262
2.441837732160313
2.367546432062561
2.2981427174975564
2.2248289345063537
2.15347018572825
2.0879765395894427
2.0283479960899315
1.9765395894428155
1.932551319648094
1.895405669599218
1.8641251221896384
1.8387096774193548
1.818181818181818
1.7986314760508308
1.780058651026393
1.7624633431085044
1.7429130009775171
1.7223851417399805
1.699902248289345
1.675464320625611
1.6480938416422288
1.6187683284457477
1.5884652981427174
1.5581622678396871
1.525904203323558
1.4936461388074291
1.466275659824047
1.4418377321603129
1.41544477028348
1.3890518084066472
1.3636363636363635
1.3391984359726294
1.316715542521994
1.2961876832844574
1.2776148582600195
1.2609970674486803
1.24633431085044
1.2316715542521994
1.2218963831867058
1.2140762463343109
1.206256109481916
1.1994134897360704
1.1935483870967742
1.187683284457478
1.1827956989247312
1.1779081133919844
1.1730205278592376
1.1681329423264908
1.163245356793744
1.1573802541544478
1.1534701857282503
1.152492668621701
1.152492668621701
1.1505376344086022
1.147605083088954
1.1456500488758554
1.144672531769306
1.1436950146627567
1.141739980449658
1.1407624633431086
1.1397849462365592
1.1378299120234605
1.1358748778103618
1.1358748778103618
1.1358748778103618
1.1329423264907137
1.1290322580645162
1.1251221896383188
1.121212121212121
1.118279569892473
1.1143695014662756
1.1124144672531768
1.1114369501466277
1.110459433040078
1.110459433040078
1.1094819159335287
1.1094819159335287
1.1114369501466277
1.110459433040078
1.10752688172043
1.1036168132942326
1.1006842619745845
1.0987292277614855
1.0977517106549364
1.0977517106549364
1.1006842619745845
1.1114369501466277
1.1319648093841643
1.1612903225806452
1.2043010752688172
1.2717497556207231
1.3636363636363635
1.4809384164222874
1.6207233626588464
1.780058651026393
1.9501466275659824
2.124144672531769
2.294232649071359
2.4545454545454546
2.601173020527859
2.729227761485826
2.822091886608016
2.8885630498533725
2.948191593352884
2.997067448680352
3.032258064516129
3.0547409579667644
3.065493646138808
3.067448680351906
3.0635386119257086
3.053763440860215
3.0391006842619745
3.0175953079178885
2.988269794721408
2.952101661779081
2.9071358748778104
2.8533724340175954
2.790811339198436
2.720430107526881
2.643206256109482
2.560117302052786
2.4731182795698925
2.3851417399804498
2.2991202346041058
2.21505376344086
2.1358748778103616
2.069403714565005
2.0127077223851417
1.9589442815249267
