ppg
1.4496578690127078
1.607038123167155
1.8074291300097751
2.0283479960899315
2.249266862170088
2.455522971652004
2.633431085043988
2.776148582600196
2.8797653958944283
2.9442815249266863
2.9716520039100685
2.9657869012707723
2.932551319648094
2.8826979472140764
2.819159335288368
2.7370478983382207
2.641251221896383
2.533724340175953
2.4164222873900294
2.291300097751711
2.160312805474096
2.0254154447702835
1.889540566959922
1.7546432062561097
1.6236559139784943
1.5151515151515151
1.4222873900293256
1.3304007820136852
1.24633431085044
1.176930596285435
1.1241446725317692
1.0879765395894427
1.0694037145650048
1.072336265884653
1.086021505376344
1.1016617790811338
1.1280547409579669
1.1681329423264908
1.2052785923753666
1.2336265884652982
1.2658846529814272
1.3010752688172045
1.3304007820136852
1.3479960899315735
1.3616813294232648
1.3695014662756595
1.370478983382209
1.364613880742913
1.35386119257087
1.335288367546432
1.3186705767350928
1.303030303030303
1.281524926686217
1.2551319648093842
1.2267839687194526
1.1964809384164223
1.1652003910068427
1.133919843597263
1.1016617790811338
1.072336265884653
1.0488758553274682
1.053763440860215
1.0742913000977516
1.0977517106549364
1.1534701857282503
1.3098729227761483
1.4858260019550342
1.6334310850439884
1.827956989247312
2.04594330400782
2.2658846529814274
2.469208211143695
2.6451612903225805
2.793743890518084
2.898338220918866
2.9472140762463344
2.964809384164223
2.960899315738025
2.9335288367546437
2.884652981427175
2.790811339198436
2.664711632453568
2.572825024437928
2.495601173020528
2.3597262952101663
2.225806451612903
2.124144672531769
2.005865102639296
1.8621700879765395
1.7409579667644184
1.6217008797653958
1.5034213098729228
1.3998044965786902
1.303030303030303
1.2394916911045943
1.173998044965787
1.1202346041055715
1.0918866080156402
1.0840664711632453
1.0840664711632453
1.0977517106549364
1.1270772238514175
1.1612903225806452
1.187683284457478
1.2189638318670577
1.2609970674486803
1.2961876832844574
1.324535679374389
1.3450635386119256
1.359726295210166
1.3685239491691104
1.3724340175953078
1.370478983382209
1.3616813294232648
1.3470185728250244
1.3264907135874875
1.303030303030303
1.2766373411534702
1.2482893450635386
1.2179863147605083
1.1867057673509287
1.1544477028347997
1.1221896383186705
1.0899315738025417
1.064516129032258
1.0469208211143697
1.0342130987292275
1.0361681329423265
1.0654936461388074
1.130987292277615
1.238514173998045
1.3900293255131966
1.5796676441837731
1.796676441837732
2.026392961876833
2.2521994134897363
2.436950146627566
2.5855327468230693
2.7233626588465296
2.833822091886608
2.9100684261974585
2.9501466275659824
2.9579667644183774
2.935483870967742
2.887585532746823
2.820136852394917
2.735092864125122
2.636363636363636
2.525904203323558
2.420332355816227
2.315738025415445
2.196480938416422
2.0684261974584555
1.935483870967742
1.8035190615835777
1.6744868035190617
1.552297165200391
1.4389051808406648
1.33822091886608
1.2531769305962854
1.1837732160312806
1.1378299120234605
1.1085043988269794
1.088954056695992
1.0821114369501466
1.0879765395894427
1.104594330400782
1.1300097751710656
1.1612903225806452
1.1964809384164223
1.2316715542521994
1.2658846529814272
1.2971652003910068
1.3225806451612905
1.343108504398827
1.3577712609970674
1.367546432062561
1.3714565004887584
1.3685239491691104
1.3587487781036167
1.3440860215053765
1.324535679374389
1.3010752688172045
1.2746823069403714
1.24633431085044
1.217008797653959
1.1915933528836755
1.1691104594330402
1.141739980449658
1.1114369501466277
1.0801564027370478
1.0527859237536656
1.0342130987292275
1.0332355816226784
1.0586510263929618
1.1192570869990224
1.2218963831867058
1.367546432062561
1.5513196480938416
1.7311827956989247
1.911045943304008
2.118279569892473
2.3255131964809386
2.515151515151515
2.675464320625611
2.798631476050831
2.8826979472140764
2.9286412512218964
2.940371456500489
2.921798631476051
2.877810361681329
2.820136852394917
2.7517106549364616
2.665689149560117
2.565982404692082
2.455522971652004
2.3362658846529816
2.2082111436950145
2.074291300097752
1.93841642228739
1.8025415444770283
1.6695992179863148
1.542521994134897
1.4252199413489737
1.3313782991202343
1.2570869990224829
1.187683284457478
1.1300097751710656
1.088954056695992
1.064516129032258
1.056695992179863
1.0635386119257086
1.083088954056696
1.1124144672531768
1.1485826001955035
1.1886608015640274
1.2258064516129032
1.260019550342131
1.2932551319648091
1.3235581622678396
1.3479960899315735
1.3665689149560116
1.3743890518084063
1.3724340175953078
1.3665689149560116
1.3548387096774193
1.33822091886608
1.3176930596285434
1.2932551319648091
1.270772238514174
1.249266862170088
1.2218963831867058
1.1925708699902249
1.1612903225806452
1.1290322580645162
1.096774193548387
1.064516129032258
1.0361681329423265
1.0156402737047898
1.0117302052785924
1.0332355816226784
1.0762463343108504
1.147605083088954
1.2658846529814272
1.4281524926686218
1.6265884652981428
1.8484848484848484
2.078201368523949
2.300097751710655
2.5004887585532747
2.668621700879765
2.798631476050831
2.887585532746823
2.93841642228739
2.95405669599218
2.941348973607038
2.9071358748778104
2.852394916911046
2.780058651026393
2.69208211143695
2.590420332355816
2.4789833822091887
2.358748778103617
2.231671554252199
2.099706744868035
1.963831867057673
1.8435972629521016
1.7341153470185728
1.616813294232649
1.500488758553275
1.3919843597262953
1.295210166177908
1.2130987292277615
1.147605083088954
1.099706744868035
1.0703812316715542
1.056695992179863
1.056695992179863
1.0684261974584557
1.0879765395894427
1.1124144672531768
1.141739980449658
1.173998044965787
1.2052785923753666
1.2346041055718475
1.260019550342131
1.2805474095796676
1.295210166177908
1.303030303030303
1.3040078201368523
1.2981427174975562
1.2903225806451613
1.278592375366569
1.260019550342131
1.2365591397849462
1.209188660801564
1.1798631476050832
1.1485826001955035
1.1173020527859236
1.0840664711632453
1.050830889540567
1.0166177908113392
0.9824046920821116
0.9550342130987292
0.9364613880742912
0.9217986314760508
0.9227761485826002
0.9511241446725318
1.0146627565982405
1.121212121212121
1.2727272727272727
1.4633431085043989
1.683284457478006
1.916911045943304
2.147605083088954
2.361681329423265
2.5268817204301075
2.652003910068426
2.758553274682307
2.834799608993157
2.87683284457478
2.886608015640274
2.8670576735092865
2.822091886608016
2.755620723362659
2.6715542521994133
2.572825024437928
2.462365591397849
2.356793743890518
2.2502443792766376
2.1280547409579667
1.9951124144672527
1.857282502443793
1.718475073313783
1.5835777126099706
1.455522971652004
1.33822091886608
1.2346041055718475
1.1466275659824048
1.0762463343108504
1.0234604105571847
0.9931573802541545
0.9794721407624634
0.9765395894428152
0.9853372434017597
1.0048875855327468
1.0332355816226784
1.067448680351906
1.1055718475073313
1.144672531769306
1.181818181818182
1.2150537634408602
1.2424242424242424
1.2639296187683284
1.2795698924731185
1.289345063538612
1.2932551319648091
1.2903225806451613
1.281524926686217
1.267839687194526
1.249266862170088
1.2267839687194526
1.2013685239491692
1.1730205278592376
1.1436950146627567
1.1143695014662756
1.0909090909090908
1.0694037145650048
1.0439882697947214
1.0175953079178883
0.9941348973607038
0.9794721407624634
0.9833822091886608
1.0146627565982405
1.0821114369501466
1.1925708699902249
1.346041055718475
1.5366568914956011
1.7233626588465298
1.90811339198436
2.1192570869990224
2.329423264907136
2.5210166177908118
2.6823069403714563
2.8054740957966766
2.889540566959922
2.9345063538611926
2.945259042033236
2.924731182795699
2.878787878787879
2.811339198435973
2.736070381231672
2.6529814271749754
2.552297165200391
2.4389051808406648
2.315738025415445
2.1837732160312804
2.046920821114369
1.9071358748778104
1.7683284457478006
1.6334310850439884
1.5073313782991202
1.3919843597262953
1.3020527859237536
1.2316715542521994
1.1671554252199414
1.1173020527859236
1.083088954056696
1.0664711632453567
1.0664711632453567
1.0811339198435972
1.10752688172043
1.142717497556207
1.1827956989247312
1.2258064516129032
1.2688172043010753
1.3069403714565004
1.3391984359726294
1.3685239491691104
1.392961876832845
1.4105571847507332
1.4213098729227762
1.4252199413489737
1.4213098729227762
1.4105571847507332
1.3949169110459434
1.3743890518084063
1.3499511241446724
1.3284457478005864
1.3079178885630498
1.2825024437927663
1.2541544477028348
1.2238514173998043
1.1925708699902249
1.1612903225806452
1.130987292277615
1.10752688172043
1.0977517106549364
1.1114369501466277
1.1564027370478984
1.241446725317693
1.3450635386119256
1.474095796676442
1.6500488758553276
1.8592375366568916
2.083088954056696
2.304007820136853
2.5083088954056696
2.6852394916911044
2.8260019550342133
2.9286412512218964
2.992179863147605
3.0205278592375366
3.018572825024438
2.992179863147605
2.946236559139785
2.8807429130009776
2.7996089931573804
2.704789833822092
2.598240469208211
2.482893450635386
2.3597262952101663
2.23069403714565
2.096774193548387
1.9608993157380252
1.826001955034213
1.7116324535679377
1.6099706744868034
1.5053763440860215
1.4066471163245358
1.3186705767350928
1.2453567937438903
1.1886608015640274
1.1495601173020529
1.126099706744868
1.118279569892473
1.1241446725317692
1.1407624633431086
1.1808406647116323
1.2336265884652982
1.2766373411534702
1.313782991202346
1.346041055718475
1.3743890518084063
1.3978494623655917
1.41544477028348
1.4271749755620724
1.4320625610948192
1.43108504398827
1.4252199413489737
1.4134897360703813
1.4007820136852396
1.3870967741935485
1.3685239491691104
1.3450635386119256
1.3186705767350928
1.2913000977517106
1.262952101661779
1.2336265884652982
1.2043010752688172
1.1749755620723363
1.1495601173020529
1.1319648093841643
1.126099706744868
1.13880742913001
1.176930596285435
1.249266862170088
1.3607038123167154
1.5112414467253177
1.694037145650049
1.8983382209188664
2.110459433040078
2.315738025415445
2.5004887585532747
2.6578690127077222
2.780058651026393
2.8582600195503423
2.9012707722385143
2.9227761485826003
2.920821114369501
2.895405669599218
2.849462365591398
2.7859237536656893
2.70772238514174
2.6177908113391983
2.517106549364614
2.4086021505376345
2.2932551319648096
2.1867057673509285
2.085043988269794
1.970674486803519
1.8514173998044965
1.7331378299120237
1.6207233626588464
1.5161290322580645
1.4222873900293256
1.343108504398827
1.278592375366569
1.2297165200391007
1.1964809384164223
1.1788856304985338
1.1749755620723363
1.1798631476050832
1.1925708699902249
1.2130987292277615
1.238514173998045
1.2668621700879763
1.2961876832844574
1.3235581622678396
1.348973607038123
1.3695014662756595
1.3851417399804498
1.3958944281524928
1.4027370478983383
1.4056695992179864
1.4027370478983383
1.393939393939394
1.3792766373411536
1.3616813294232648
1.3401759530791788
1.3157380254154447
1.289345063538612
1.2619745845552297
1.2346041055718475
1.206256109481916
1.1827956989247312
1.1622678396871946
1.1397849462365592
1.1202346041055715
1.110459433040078
1.1202346041055715
1.1573802541544478
1.2287390029325511
1.3401759530791788
1.490713587487781
1.6735092864125125
1.87683284457478
2.0879765395894427
2.2668621700879767
2.418377321603128
2.567937438905181
2.6959921798631474
2.792766373411535
2.855327468230694
2.884652981427175
2.884652981427175
2.859237536656892
2.811339198435973
2.7438905180840663
2.66177908113392
2.578690127077224
2.4916911045943304
2.3900293255131966
2.27761485826002
2.157380254154448
2.032258064516129
1.905180840664712
1.780058651026393
1.6598240469208212
1.5464320625610948
1.4428152492668622
1.3519061583577712
1.2756598240469208
1.2218963831867058
1.18475073313783
1.1564027370478984
1.1397849462365592
1.1358748778103618
1.1436950146627567
1.1622678396871946
1.187683284457478
1.2179863147605083
1.2512218963831867
1.284457478005865
1.3157380254154447
1.3421309872922775
1.364613880742913
1.383186705767351
1.3978494623655917
1.4066471163245358
1.4086021505376345
1.4056695992179864
1.396871945259042
1.3822091886608017
1.3636363636363635
1.3421309872922775
1.316715542521994
1.2903225806451613
1.267839687194526
1.24633431085044
1.2209188660801564
1.1935483870967742
1.1652003910068427
1.1378299120234605
1.1163245356793745
1.10752688172043
1.118279569892473
1.1583577712609971
1.2336265884652982
1.3479960899315735
1.474095796676442
1.6158357771260996
1.796676441837732
1.9951124144672527
2.1955034213098727
2.3822091886608017
2.5434995112414467
2.6725317693059627
2.766373411534702
2.8240469208211145
2.8475073313782997
2.8406647116324537
2.8084066471163247
2.7614858260019552
2.701857282502444
2.624633431085044
2.5347018572825024
2.4330400782013686
2.321603128054741
2.203323558162268
2.0791788856304985
1.9530791788856303
1.826001955034213
1.7018572825024438
1.58455522971652
1.487781036168133
1.4066471163245358
1.327468230694037
1.2580645161290325
1.2023460410557183
1.1612903225806452
1.1358748778103618
1.126099706744868
1.1300097751710656
1.1456500488758554
1.1700879765395895
1.2013685239491692
1.2365591397849462
1.2697947214076246
1.3010752688172045
1.332355816226784
1.3616813294232648
1.3861192570869991
1.404692082111437
1.4164222873900294
1.4213098729227762
1.4203323558162269
1.4134897360703813
1.4007820136852396
1.383186705767351
1.367546432062561
1.3509286412512218
1.3284457478005864
1.303030303030303
1.2756598240469208
1.2473118279569892
1.2179863147605083
1.187683284457478
1.1583577712609971
1.1319648093841643
1.1124144672531768
1.1065493646138806
1.1221896383186705
1.1564027370478984
1.2160312805474096
1.3157380254154447
1.455522971652004
1.6285434995112416
1.8240469208211143
2.029325513196481
2.23069403714565
2.4144672531769307
2.570869990224829
2.6940371456500487
2.7810361681329425
2.8289345063538613
2.8455522971652005
2.8406647116324537
2.812316715542522
2.763440860215054
2.6959921798631474
2.613880742913001
2.5180840664711632
2.412512218963832
2.2981427174975564
2.175953079178885
2.048875855327468
1.919843597262952
1.8064516129032255
1.7038123167155426
1.5933528836754642
1.4848484848484849
1.3851417399804498
1.2981427174975562
1.2052785923753666
1.1173020527859236
1.0625610948191593
1.0332355816226784
1.024437927663734
1.032258064516129
1.050830889540567
1.0762463343108504
1.110459433040078
1.1495601173020529
1.1906158357771262
1.2316715542521994
1.2688172043010753
1.3020527859237536
1.3284457478005864
1.348973607038123
1.3626588465298142
1.3685239491691104
1.3665689149560116
1.3626588465298142
1.3548387096774193
1.3401759530791788
1.3196480938416422
1.2942326490713587
1.2668621700879763
1.2375366568914956
1.2072336265884651
1.1759530791788857
1.1436950146627567
1.1114369501466277
1.0811339198435972
1.0596285434995112
1.04594330400782
1.0420332355816226
1.0586510263929618
1.1055718475073313
1.1915933528836755
1.3196480938416422
1.487781036168133
1.6881720430107527
1.90811339198436
2.131964809384164
2.345063538611926
2.5131964809384164
2.643206256109482
2.758553274682307
2.8455522971652005
2.8993157380254155
2.918866080156403
2.90811339198436
2.870967741935484
2.811339198435973
2.7331378299120237
2.6402737047898337
2.5347018572825024
2.4173998044965788
2.3069403714565007
2.198435972629521
2.074291300097752
1.9423264907135875
1.8084066471163245
1.6764418377321604
1.5503421309872922
1.434017595307918
1.3313782991202343
1.2434017595307918
1.1730205278592376
1.1202346041055715
1.0879765395894427
1.0733137829912025
1.0694037145650048
1.0772238514173995
1.096774193548387
1.1241446725317692
1.1583577712609971
1.1964809384164223
1.2346041055718475
1.2717497556207231
1.3049853372434017
1.3333333333333333
1.3558162267839686
1.3724340175953078
1.383186705767351
1.3870967741935485
1.3851417399804498
1.3773216031280548
1.3626588465298142
1.343108504398827
1.3196480938416422
1.2932551319648091
1.2649071358748778
1.2346041055718475
1.2023460410557183
1.176930596285435
1.1534701857282503
1.1251221896383188
1.0948191593352885
1.067448680351906
1.0488758553274682
1.0469208211143697
1.0713587487781036
1.1319648093841643
1.2336265884652982
1.3773216031280548
1.560117302052786
1.7702834799608993
1.963831867057673
2.1436950146627565
2.337243401759531
2.5190615835777126
2.674486803519061
2.793743890518084
2.874877810361681
2.918866080156403
2.927663734115347
2.906158357771261
2.859237536656892
2.791788856304985
2.716520039100684
2.633431085043988
2.533724340175953
2.421309872922776
2.2991202346041058
2.16911045943304
2.035190615835777
1.8993157380254155
1.7653958944281525
1.635386119257087
1.512218963831867
1.3988269794721409
1.300097751710655
1.224828934506354
1.1691104594330402
1.1221896383186705
1.0879765395894427
1.0694037145650048
1.0654936461388074
1.075268817204301
1.096774193548387
1.126099706744868
1.160312805474096
1.1974584555229717
1.2355816226783969
1.2688172043010753
1.2991202346041055
1.3264907135874875
1.348973607038123
1.3665689149560116
1.3773216031280548
1.380254154447703
1.3773216031280548
1.367546432062561
1.3519061583577712
1.332355816226784
1.3088954056695992
1.281524926686217
1.2580645161290325
1.2365591397849462
1.209188660801564
1.1798631476050832
1.1485826001955035
1.1173020527859236
1.0879765395894427
1.0635386119257086
1.0518084066471165
1.06158357771261
1.1016617790811338
1.1808406647116323
1.278592375366569
1.4007820136852396
1.5708699902248289
1.7741935483870968
1.994134897360704
2.2140762463343107
2.418377321603128
2.5962854349951123
2.7390029325513194
2.8426197458455524
2.9071358748778104
2.935483870967742
2.9315738025415445
2.9042033235581624
2.857282502443793
2.791788856304985
2.7096774193548385
2.6129032258064515
2.505376344086021
2.389051808406647
2.264907135874878
2.134897360703812
2.0009775171065494
1.866080156402737
1.7331378299120237
1.619745845552297
1.520039100684262
1.4173998044965788
1.321603128054741
1.2375366568914956
1.1681329423264908
1.1163245356793745
1.083088954056696
1.0664711632453567
1.0664711632453567
1.0791788856304985
1.1026392961876832
1.133919843597263
1.1671554252199414
1.2003910068426198
1.2365591397849462
1.2717497556207231
1.3040078201368523
1.3304007820136852
1.3509286412512218
1.3655913978494625
1.3724340175953078
1.3724340175953078
1.364613880742913
1.3509286412512218
1.3372434017595307
1.321603128054741
1.2991202346041055
1.2727272727272727
1.2443792766373412
1.2140762463343109
1.1827956989247312
1.1505376344086022
1.118279569892473
1.0869990224828934
1.0576735092864125
1.0371456500488758
1.0312805474095796
1.0439882697947214
1.0801564027370478
1.1544477028347997
1.270772238514174
1.4281524926686218
1.6217008797653958
1.8387096774193548
2.064516129032258
2.283479960899316
2.4819159335288368
2.650048875855328
2.780058651026393
2.863147605083089
2.90811339198436
2.929618768328446
2.924731182795699
2.895405669599218
2.843597262952102
2.773216031280548
2.687194525904203
2.5884652981427174
2.4780058651026398
2.358748778103617
2.232649071358749
2.118279569892473
2.0117302052785924
1.8934506353861196
1.7683284457478006
1.6441837732160314
1.5249266862170088
1.4164222873900294
1.3206256109481915
1.2404692082111437
1.1788856304985338
1.1348973607038124
1.10752688172043
1.0957966764418376
1.0977517106549364
1.1094819159335287
1.130987292277615
1.1593352883675463
1.1915933528836755
1.2267839687194526
1.2609970674486803
1.2932551319648091
1.321603128054741
1.3450635386119256
1.3626588465298142
1.3724340175953078
1.3782991202346042
1.3792766373411536
1.3734115347018572
1.3616813294232648
1.3440860215053765
1.3225806451612905
1.2981427174975562
1.270772238514174
1.241446725317693
1.2101661779081134
1.1788856304985338
1.1466275659824048
1.1143695014662756
1.088954056695992
1.0684261974584557
1.050830889540567
1.04594330400782
1.0635386119257086
1.1133919843597262
1.2043010752688172
1.33822091886608
1.5131964809384164
1.7194525904203324
1.9442815249266865
2.172043010752688
2.360703812316716
2.517106549364614
2.6666666666666665
2.790811339198436
2.8797653958944283
2.932551319648094
2.951124144672532
2.9393939393939394
2.9012707722385143
2.8406647116324537
2.7624633431085046
2.6695992179863146
2.5640273704789838
2.462365591397849
2.360703812316716
2.243401759530792
2.117302052785924
1.9872922776148585
1.855327468230694
1.726295210166178
1.6041055718475072
1.4897360703812317
1.388074291300098
1.300097751710655
1.227761485826002
1.1779081133919844
1.1456500488758554
1.1241446725317692
1.1143695014662756
1.1173020527859236
1.130987292277615
1.1544477028347997
1.1837732160312806
1.217008797653959
1.2502443792766371
1.2825024437927663
1.3128054740957966
1.33822091886608
1.356793743890518
1.370478983382209
1.3792766373411536
1.3812316715542523
1.3773216031280548
1.3665689149560116
1.3509286412512218
1.3313782991202343
1.3079178885630498
1.2805474095796676
1.2512218963831867
1.219941348973607
1.1945259042033236
1.1720430107526882
1.1456500488758554
1.1163245356793745
1.086021505376344
1.0586510263929618
1.0410557184750733
1.0420332355816226
1.0703812316715542
1.1358748778103618
1.2443792766373412
1.3949169110459434
1.5835777126099706
1.7663734115347018
1.948191593352884
2.1544477028347995
2.358748778103617
2.544477028347996
2.6989247311827955
2.81622678396872
2.8944281524926687
2.935483870967742
2.943304007820137
2.921798631476051
2.875855327468231
2.8181818181818183
2.748778103616813
2.66177908113392
2.5610948191593352
2.449657869012708
2.3304007820136854
2.203323558162268
2.072336265884653
1.93841642228739
1.804496578690127
1.6744868035190617
1.5513196480938416
1.4379276637341154
1.3479960899315735
1.2766373411534702
1.2111436950146628
1.1573802541544478
1.118279569892473
1.0948191593352885
1.0869990224828934
1.0918866080156402
1.10752688172043
1.1319648093841643
1.1622678396871946
1.195503421309873
1.2267839687194526
1.2561094819159335
1.2834799608993157
1.3079178885630498
1.327468230694037
1.3411534701857282
1.3479960899315735
1.3479960899315735
1.3421309872922775
1.3313782991202343
1.3147605083088951
1.2942326490713587
1.2697947214076246
1.2482893450635386
1.2267839687194526
1.2003910068426198
1.1720430107526882
1.141739980449658
1.110459433040078
1.0791788856304985
1.0498533724340176
1.0263929618768328
1.0156402737047898
1.0273704789833822
1.0703812316715542
1.1348973607038124
1.2287390029325511
1.3724340175953078
1.5571847507331378
1.772238514173998
2.0019550342130987
2.228739002932551
2.439882697947214
2.621700879765396
2.7673509286412514
2.8729227761485827
2.93841642228739
2.967741935483871
2.9657869012707723
2.9393939393939394
2.89247311827957
2.827956989247312
2.7468230694037143
2.653958944281525
2.550342130987292
2.4379276637341154
2.317693059628544
2.1915933528836757
2.06158357771261
1.9305962854349952
1.8162267839687196
1.7126099706744868
1.603128054740958
1.4975562072336266
1.4007820136852396
1.316715542521994
1.2482893450635386
1.1974584555229717
1.163245356793744
1.144672531769306
1.1407624633431086
1.1495601173020529
1.1681329423264908
1.1915933528836755
1.2179863147605083
1.249266862170088
1.281524926686217
1.3128054740957966
1.3401759530791788
1.3626588465298142
1.3792766373411536
1.3890518084066472
1.392961876832845
1.3900293255131966
1.3812316715542523
1.3714565004887584
1.359726295210166
1.3401759530791788
1.316715542521994
1.289345063538612
1.2609970674486803
1.23069403714565
1.2003910068426198
1.1700879765395895
1.1378299120234605
1.1065493646138806
1.0791788856304985
1.06158357771261
1.0576735092864125
1.0713587487781036
1.1143695014662756
