ppg
1.0928641251221896
1.0850439882697946
1.0772238514173995
1.0703812316715542
1.0635386119257086
1.0596285434995112
1.0576735092864125
1.0547409579667644
1.0498533724340176
1.0449657869012707
1.040078201368524
1.035190615835777
1.029325513196481
1.0254154447702837
1.0234604105571847
1.0224828934506354
1.0224828934506354
1.024437927663734
1.0273704789833822
1.0273704789833822
1.0263929618768328
1.0254154447702837
1.024437927663734
1.0234604105571847
1.0224828934506354
1.0224828934506354
1.0224828934506354
1.0224828934506354
1.0224828934506354
1.0224828934506354
1.0263929618768328
1.0342130987292275
1.0478983382209188
1.0733137829912025
1.1173020527859236
1.18475073313783
1.278592375366569
1.4007820136852396
1.547409579667644
1.710654936461388
1.881720430107527
2.0518084066471163
2.1925708699902247
2.3118279569892475
2.4330400782013686
2.5434995112414467
2.6392961876832843
2.719452590420332
2.7859237536656893
2.8406647116324537
2.884652981427175
2.921798631476051
2.952101661779081
2.975562072336266
2.991202346041056
2.995112414467253
2.9902248289345064
2.981427174975562
2.9657869012707723
2.941348973607038
2.9071358748778104
2.86217008797654
2.8054740957966766
2.7390029325513194
2.662756598240469
2.5806451612903225
2.493646138807429
2.4134897360703813
2.3391984359726297
2.26197458455523
2.187683284457478
2.118279569892473
2.056695992179863
2.003910068426197
1.956989247311828
1.916911045943304
1.8807429130009776
1.847507331378299
1.8162267839687196
1.7859237536656891
1.7595307917888563
1.7331378299120237
1.7038123167155426
1.6735092864125125
1.6412512218963833
1.608993157380254
1.5757575757575757
1.542521994134897
1.5102639296187683
1.479960899315738
1.4506353861192571
1.423264907135875
1.3998044965786902
1.380254154447703
1.3587487781036167
1.3372434017595307
1.3157380254154447
1.295210166177908
1.2756598240469208
1.2580645161290325
1.241446725317693
1.2267839687194526
1.2140762463343109
1.2023460410557183
1.1915933528836755
1.1857282502443791
1.1827956989247312
1.176930596285435
1.1700879765395895
1.1622678396871946
1.1544477028347997
1.1456500488758554
1.1368523949169111
1.1290322580645162
1.1221896383186705
1.115347018572825
1.1094819159335287
1.10752688172043
1.10752688172043
1.1055718475073313
1.1026392961876832
1.099706744868035
1.096774193548387
1.093841642228739
1.0918866080156402
1.0909090909090908
1.0899315738025417
1.0899315738025417
1.0899315738025417
1.0899315738025417
1.0918866080156402
1.0957966764418376
1.0987292277614855
1.1026392961876832
1.1055718475073313
1.1094819159335287
1.1133919843597262
1.1163245356793745
1.1202346041055715
1.1251221896383188
1.1280547409579669
1.130987292277615
1.1348973607038124
1.13880742913001
1.141739980449658
1.1485826001955035
1.163245356793744
1.1915933528836755
1.238514173998045
1.310850439882698
1.409579667644184
1.530791788856305
1.6715542521994136
1.83088954056696
1.975562072336266
2.110459433040078
2.257086999022483
2.39980449657869
2.530791788856305
2.6451612903225805
2.7390029325513194
2.8152492668621703
2.87683284457478
2.9257086999022484
2.964809384164223
2.9960899315738025
3.0205278592375366
3.0332355816226784
3.037145650048876
3.0410557184750733
3.0410557184750733
3.034213098729228
3.018572825024438
2.9931573802541545
2.956989247311828
2.9100684261974585
2.852394916911046
2.7839687194525906
2.7067448680351904
2.63049853372434
2.555229716520039
2.474095796676442
2.3919843597262958
2.312805474095797
2.2404692082111435
2.176930596285435
2.1221896383186705
2.0762463343108504
2.037145650048876
2.003910068426197
1.9745845552297163
1.9472140762463344
1.9227761485826005
1.900293255131965
1.8758553274682308
1.8484848484848484
1.8201368523949168
1.7898338220918866
1.758553274682307
1.7282502443792769
1.6979472140762464
1.6686217008797657
1.640273704789834
1.6129032258064515
1.5884652981427174
1.5679374389051808
1.5454545454545454
1.5239491691104594
1.5034213098729228
1.482893450635386
1.4643206256109482
1.447702834799609
1.4320625610948192
1.4173998044965788
1.4037145650048877
1.3919843597262953
1.3822091886608017
1.375366568914956
1.370478983382209
1.3636363636363635
1.356793743890518
1.348973607038123
1.3411534701857282
1.3333333333333333
1.3264907135874875
1.3196480938416422
1.3118279569892473
1.3049853372434017
1.2981427174975562
1.2942326490713587
1.2913000977517106
1.2873900293255132
1.2834799608993157
1.2795698924731185
1.2756598240469208
1.2717497556207231
1.267839687194526
1.2639296187683284
1.2609970674486803
1.2580645161290325
1.2561094819159335
1.2541544477028348
1.2551319648093842
1.2570869990224829
1.2570869990224829
1.2561094819159335
1.2551319648093842
1.2541544477028348
1.2541544477028348
1.2541544477028348
1.2541544477028348
1.2531769305962854
1.2512218963831867
1.249266862170088
1.2482893450635386
1.249266862170088
1.252199413489736
1.2619745845552297
1.284457478005865
1.324535679374389
1.3870967741935485
1.4750733137829912
1.587487781036168
1.7223851417399805
1.8729227761485825
2.0303030303030303
2.1867057673509285
2.315738025415445
2.423264907135875
2.530791788856305
2.6285434995112413
2.713587487781036
2.7839687194525906
2.8406647116324537
2.886608015640274
2.9227761485826003
2.951124144672532
2.972629521016618
2.988269794721408
2.992179863147605
2.9872922776148583
2.9804496578690127
2.9687194525904204
2.949169110459433
2.921798631476051
2.886608015640274
2.8406647116324537
2.78494623655914
2.720430107526881
2.6480938416422286
2.56891495601173
2.4858260019550342
2.410557184750733
2.3411534701857284
2.270772238514174
2.203323558162268
2.142717497556207
2.088954056695992
2.043010752688172
2.003910068426197
1.9696969696969695
1.9393939393939397
1.911045943304008
1.8836754643206255
1.8602150537634408
1.8387096774193548
1.8142717497556209
1.7888563049853372
1.761485826001955
1.7331378299120237
1.7038123167155426
1.6744868035190617
1.6451612903225807
1.6158357771260996
1.5884652981427174
1.5620723362658846
1.5376344086021505
1.5180840664711632
1.5024437927663734
1.4838709677419355
1.4652981427174976
1.447702834799609
1.43108504398827
1.41544477028348
1.401759530791789
1.391006842619746
1.380254154447703
1.370478983382209
1.3616813294232648
1.3548387096774193
1.348973607038123
1.3411534701857282
1.332355816226784
1.324535679374389
1.3176930596285434
1.3098729227761483
1.303030303030303
1.2961876832844574
1.289345063538612
1.2834799608993157
1.2795698924731185
1.2766373411534702
1.2756598240469208
1.2746823069403714
1.2717497556207231
1.2688172043010753
1.2649071358748778
1.2609970674486803
1.2570869990224829
1.2541544477028348
1.252199413489736
1.2502443792766371
1.2482893450635386
1.2473118279569892
1.2482893450635386
1.2512218963831867
1.2531769305962854
1.2551319648093842
1.2570869990224829
1.2580645161290325
1.2590420332355816
1.2590420332355816
1.2590420332355816
1.2580645161290325
1.2570869990224829
1.2561094819159335
1.2570869990224829
1.2590420332355816
1.2639296187683284
1.2717497556207231
1.2864125122189638
1.3157380254154447
1.3636363636363635
1.434017595307918
1.5298142717497556
1.6480938416422288
1.7859237536656891
1.9364613880742916
2.090909090909091
2.220918866080156
2.332355816226784
2.4457478005865103
2.549364613880743
2.638318670576735
2.710654936461388
2.7673509286412514
2.811339198435973
2.84652981427175
2.8729227761485827
2.89345063538612
2.90811339198436
2.913000977517106
2.911045943304008
2.90811339198436
2.902248289345064
2.8905180840664717
2.870967741935484
2.843597262952102
2.8054740957966766
2.7565982404692084
2.6989247311827955
2.633431085043988
2.5610948191593352
2.4838709677419355
2.412512218963832
2.3440860215053765
2.2737047898338223
2.1681329423264906
2.047898338220919
1.962854349951124
1.9012707722385145
1.8543499511241448
1.818181818181818
1.7888563049853372
1.7634408602150538
1.739980449657869
1.718475073313783
1.6979472140762464
1.6744868035190617
1.6500488758553276
1.6236559139784943
1.5962854349951123
1.5698924731182795
1.542521994134897
1.5151515151515151
1.487781036168133
1.4623655913978495
1.4379276637341154
1.41544477028348
1.3958944281524928
1.3782991202346042
1.3587487781036167
1.3391984359726294
1.3206256109481915
1.3040078201368523
1.2883675464320623
1.273704789833822
1.260019550342131
1.2473118279569892
1.2365591397849462
1.227761485826002
1.2209188660801564
1.2150537634408602
1.2082111436950147
1.2013685239491692
1.1935483870967742
1.1857282502443791
1.176930596285435
1.1671554252199414
1.1583577712609971
1.1495601173020529
1.141739980449658
1.1348973607038124
1.1280547409579669
1.1241446725317692
1.121212121212121
1.1163245356793745
1.110459433040078
1.1055718475073313
1.099706744868035
1.093841642228739
1.088954056695992
1.0850439882697946
1.0811339198435972
1.0791788856304985
1.078201368523949
1.0791788856304985
1.0811339198435972
1.0821114369501466
1.0821114369501466
1.0821114369501466
1.0821114369501466
1.0821114369501466
1.0821114369501466
1.0821114369501466
1.0821114369501466
1.0821114369501466
1.0801564027370478
1.078201368523949
1.0791788856304985
1.0840664711632453
1.0948191593352885
1.1163245356793745
1.155425219941349
1.217008797653959
1.3040078201368523
1.41544477028348
1.5503421309872922
1.7008797653958945
1.8592375366568916
2.0175953079178885
2.1495601173020527
2.260997067448681
2.3734115347018574
2.4760508308895406
2.563049853372434
2.634408602150537
2.6901270772238512
2.7341153470185726
2.768328445747801
0.9521016617790812
0.9501466275659824
0.906158357771261
0.9120234604105572
0.9345063538611924
0.9843597262952102
1.0703812316715542
1.195503421309873
1.3558162267839686
1.543499511241447
1.7458455522971652
1.921798631476051
2.075268817204301
2.23069403714565
2.36950146627566
2.4858260019550342
2.576735092864125
2.643206256109482
2.689149560117302
2.717497556207233
2.732160312805474
2.736070381231672
2.730205278592375
2.713587487781036
2.6901270772238512
2.6608015640273703
2.6265884652981426
2.5865102639296187
2.5386119257087
2.482893450635386
2.419354838709677
2.347996089931574
2.272727272727273
2.1945259042033234
2.1163245356793743
2.0410557184750733
1.9775171065493649
1.9227761485826005
1.870967741935484
1.826001955034213
1.7888563049853372
1.7595307917888563
1.7350928641251222
1.715542521994135
1.6989247311827955
1.6842619745845553
1.6705767350928642
1.6559139784946235
1.6412512218963833
1.6265884652981428
1.6099706744868034
1.5913978494623655
1.5698924731182795
1.547409579667644
1.5249266862170088
1.501466275659824
1.478005865102639
1.455522971652004
1.4349951124144673
1.4164222873900294
1.3988269794721409
1.3841642228739004
1.3724340175953078
1.359726295210166
1.346041055718475
1.332355816226784
1.3176930596285434
1.3040078201368523
1.2913000977517106
1.278592375366569
1.2668621700879763
1.2551319648093842
1.2443792766373412
1.2375366568914956
1.2326490713587488
1.2258064516129032
1.2189638318670577
1.2130987292277615
1.206256109481916
1.198435972629521
1.1906158357771262
1.181818181818182
1.1730205278592376
1.1652003910068427
1.1564027370478984
1.1485826001955035
1.144672531769306
1.141739980449658
1.1368523949169111
1.130987292277615
1.1251221896383188
1.118279569892473
1.110459433040078
1.1026392961876832
1.0948191593352885
1.0879765395894427
1.0811339198435972
1.0801564027370478
1.0869990224828934
1.10752688172043
1.1485826001955035
1.2189638318670577
1.3225806451612905
1.457478005865103
1.6177908113391983
1.790811339198436
1.963831867057673
2.1270772238514173
2.269794721407625
2.388074291300098
2.479960899315738
2.5386119257087
2.572825024437928
2.598240469208211
2.611925708699902
2.6148582600195502
2.6080156402737047
2.593352883675464
2.570869990224829
2.541544477028348
2.504398826979472
2.4604105571847508
2.4086021505376345
2.355816226783969
2.300097751710655
2.236559139784946
2.166177908113392
2.09188660801564
2.018572825024438
1.9501466275659824
1.8856304985337244
1.828934506353861
1.7810361681329423
1.7419354838709675
1.7135874877810362
1.6930596285434996
1.678396871945259
1.667644183773216
1.6559139784946235
1.643206256109482
1.629521016617791
1.6138807429130009
1.5972629521016617
1.5777126099706744
1.5581622678396871
1.5386119257087
1.5190615835777126
1.499511241446725
1.4819159335288368
1.466275659824047
1.4496578690127078
1.4320625610948192
1.41544477028348
1.3988269794721409
1.3812316715542523
1.3626588465298142
1.3450635386119256
1.3284457478005864
1.313782991202346
1.2991202346041055
1.2873900293255132
1.2776148582600195
1.267839687194526
1.2580645161290325
1.2473118279569892
1.2365591397849462
1.2258064516129032
1.2150537634408602
1.203323558162268
1.1925708699902249
1.1827956989247312
1.1749755620723363
1.1691104594330402
1.164222873900293
1.160312805474096
1.1544477028347997
1.1466275659824048
1.13880742913001
1.130987292277615
1.1221896383186705
1.1124144672531768
1.1016617790811338
1.0928641251221896
1.086021505376344
1.078201368523949
1.0733137829912025
1.0694037145650048
1.0635386119257086
1.0557184750733135
1.0469208211143697
1.0381231671554252
1.0303030303030305
1.0234604105571847
1.0175953079178883
1.0117302052785924
1.0048875855327468
0.9980449657869012
0.9921798631476052
0.989247311827957
0.9872922776148584
0.9833822091886608
0.978494623655914
0.9745845552297164
0.9706744868035192
0.967741935483871
0.9648093841642228
0.9618768328445748
0.9589442815249268
0.956989247311828
0.981427174975562
1.0205278592375366
1.0420332355816226
1.050830889540567
1.053763440860215
1.0557184750733135
1.0576735092864125
1.0606060606060606
1.0635386119257086
1.067448680351906
1.0713587487781036
1.0733137829912025
1.072336265884653
1.0733137829912025
1.0811339198435972
1.1026392961876832
1.1505376344086022
1.2394916911045943
1.3773216031280548
1.564027370478983
1.7917888563049853
2.042033235581622
2.297165200391007
2.5386119257087
2.7536656891495603
2.935483870967742
3.064516129032258
3.1544477028347995
3.2297165200391005
3.2844574780058653
3.317693059628544
3.3313782991202348
3.3274682306940373
3.3059628543499517
3.269794721407625
3.222873900293255
3.166177908113392
3.1006842619745845
3.0254154447702835
2.9501466275659824
2.8719452590420333
2.7839687194525906
2.6901270772238512
2.5943304007820136
2.501466275659824
2.4144672531769307
2.337243401759531
2.271749755620724
2.2160312805474094
2.1700879765395893
2.131964809384164
2.101661779081134
2.0762463343108504
2.0527859237536656
2.0303030303030303
2.0087976539589443
1.9872922776148585
1.9657869012707725
1.943304007820137
1.919843597262952
1.8963831867057677
1.8729227761485825
1.8484848484848484
1.823069403714565
1.7996089931573802
1.7790811339198436
1.7565982404692082
1.7331378299120237
1.7096774193548387
1.6881720430107527
1.6666666666666667
1.6451612903225807
1.6236559139784943
1.603128054740958
1.58455522971652
1.5679374389051808
1.5532746823069403
1.5405669599217986
1.5249266862170088
1.5083088954056696
1.4926686217008798
1.47702834799609
1.4613880742913
1.444770283479961
1.4271749755620724
1.4086021505376345
1.391006842619746
1.3734115347018572
1.3548387096774193
1.3401759530791788
1.327468230694037
1.3128054740957966
1.300097751710655
1.2883675464320623
1.2756598240469208
1.262952101661779
1.249266862170088
1.2365591397849462
1.224828934506354
1.2140762463343109
1.203323558162268
1.198435972629521
1.195503421309873
1.1906158357771262
1.1837732160312806
1.1759530791788857
1.1681329423264908
1.1593352883675463
1.1505376344086022
1.141739980449658
1.133919843597263
1.1270772238514175
1.1202346041055715
1.1143695014662756
1.1124144672531768
1.1124144672531768
1.110459433040078
1.1085043988269794
1.1055718475073313
1.1026392961876832
1.099706744868035
1.0948191593352885
1.0899315738025417
1.0879765395894427
1.0948191593352885
1.1192570869990224
1.1583577712609971
1.2228739002932552
1.3294232649071358
1.47702834799609
1.6608015640273706
1.8699902248289344
2.088954056695992
2.303030303030303
2.5004887585532747
2.670576735092864
2.8103616813294234
2.920821114369501
2.992179863147605
3.037145650048876
3.072336265884653
3.093841642228739
3.101661779081134
3.0987292277614857
3.085043988269794
3.060606060606061
3.026392961876833
2.983382209188661
2.9315738025415445
2.8729227761485827
2.809384164222874
2.7468230694037143
2.684261974584555
2.616813294232649
2.548387096774193
2.4838709677419355
2.4271749755620724
2.3812316715542523
2.347996089931574
2.3255131964809386
2.3118279569892475
2.304985337243402
2.300097751710655
2.294232649071359
2.286412512218964
2.278592375366569
2.269794721407625
2.2580645161290325
2.243401759530792
2.2248289345063537
2.2023460410557183
2.175953079178885
2.147605083088954
2.117302052785924
2.0840664711632453
2.050830889540567
2.0205278592375366
1.992179863147605
1.962854349951124
1.932551319648094
1.903225806451613
1.8748778103616808
1.8465298142717497
1.8191593352883677
1.7917888563049853
1.7663734115347018
1.7409579667644184
1.7174975562072337
1.6979472140762464
1.6803519061583578
1.6598240469208212
1.6373411534701858
1.6129032258064515
1.5884652981427174
1.564027370478983
1.5395894428152492
1.5161290322580645
1.4936461388074291
1.4721407624633431
1.4516129032258065
1.4330400782013686
1.4193548387096775
1.4086021505376345
1.3978494623655917
1.3861192570869991
1.3743890518084063
1.3607038123167154
1.3440860215053765
1.3264907135874875
1.3069403714565004
1.2883675464320623
1.2697947214076246
1.249266862170088
1.2326490713587488
1.219941348973607
1.206256109481916
1.1935483870967742
1.1808406647116323
1.1691104594330402
1.1593352883675463
1.1495601173020529
1.1397849462365592
1.1280547409579669
1.1173020527859236
1.1085043988269794
1.1016617790811338
1.099706744868035
1.099706744868035
1.0987292277614855
1.0957966764418376
1.0918866080156402
1.0840664711632453
1.072336265884653
1.0586510263929618
1.0469208211143697
1.0449657869012707
1.0654936461388074
1.1192570869990224
1.195503421309873
1.3020527859237536
1.457478005865103
1.651026392961877
1.8670576735092863
2.088954056695992
2.300097751710655
2.4887585532746823
2.6480938416422286
2.7781036168132944
2.878787878787879
2.952101661779081
3.002932551319648
3.0283479960899315
3.035190615835777
3.0303030303030303
3.0117302052785924
2.979472140762464
2.86217008797654
2.6989247311827955
2.581622678396872
2.486803519061584
2.39980449657869
2.317693059628544
2.2385141739980448
2.1700879765395893
2.1094819159335287
2.0498533724340176
1.994134897360704
1.945259042033236
1.9042033235581624
1.868035190615836
1.8377321603128052
1.8113391984359728
1.7878787878787878
1.7653958944281525
1.7448680351906158
1.7253176930596286
1.70772238514174
1.6911045943304008
1.672531769305963
1.6529814271749756
1.632453567937439
1.611925708699902
1.590420332355816
1.56891495601173
1.5464320625610948
1.5239491691104594
1.5034213098729228
1.4858260019550342
1.4711632453567938
1.458455522971652
1.4457478005865103
1.434017595307918
1.423264907135875
1.412512218963832
1.4027370478983383
1.392961876832845
1.383186705767351
1.3743890518084063
1.3665689149560116
1.3587487781036167
1.3519061583577712
1.3470185728250244
1.3440860215053765
1.3391984359726294
1.3333333333333333
1.3264907135874875
1.3196480938416422
1.3128054740957966
1.3069403714565004
1.3010752688172045
1.2971652003910068
1.295210166177908
1.2932551319648091
1.29227761485826
1.2932551319648091
1.29227761485826
1.289345063538612
1.284457478005865
1.2795698924731185
1.273704789833822
1.2668621700879763
1.2590420332355816
1.2502443792766371
1.241446725317693
1.2336265884652982
1.2287390029325511
1.2258064516129032
1.224828934506354
1.2218963831867058
1.2160312805474096
1.209188660801564
1.2023460410557183
1.1945259042033236
1.187683284457478
1.1827956989247312
1.1798631476050832
1.1749755620723363
1.1691104594330402
1.164222873900293
1.1612903225806452
1.1583577712609971
1.164222873900293
1.187683284457478
1.2394916911045943
1.3255131964809383
1.4486803519061584
1.603128054740958
1.7790811339198436
1.963831867057673
2.1436950146627565
2.30791788856305
2.434017595307918
2.5317693059628543
2.621700879765396
2.6959921798631474
2.7536656891495603
2.792766373411535
2.814271749755621
2.8211143695014664
2.8132942326490715
2.793743890518084
2.764418377321604
2.7253176930596283
2.681329423264907
2.631476050830889
2.570869990224829
2.5024437927663734
2.4281524926686218
2.3499511241446727
2.2688172043010755
2.189638318670577
2.114369501466276
2.04594330400782
1.9853372434017595
1.932551319648094
1.8905180840664717
1.857282502443793
1.827956989247312
1.8025415444770283
1.780058651026393
1.7575757575757576
1.7350928641251222
1.7126099706744868
1.689149560117302
1.6656891495601174
1.6422287390029326
1.6177908113391983
1.5933528836754642
1.5728250244379276
1.5542521994134897
1.5347018572825024
1.5151515151515151
1.4965786901270772
1.478983382209189
1.4604105571847508
1.4428152492668622
1.4252199413489737
1.4086021505376345
1.391006842619746
1.3734115347018572
1.3587487781036167
1.3450635386119256
1.3294232649071358
1.313782991202346
1.2981427174975562
1.2825024437927663
1.2668621700879763
1.252199413489736
1.2394916911045943
1.2258064516129032
1.2130987292277615
1.2013685239491692
1.1896383186705768
1.1808406647116323
1.173998044965787
1.1652003910068427
1.1564027370478984
1.1485826001955035
1.141739980449658
1.1358748778103618
1.1300097751710656
1.1231671554252198
1.1163245356793745
1.1094819159335287
1.1036168132942326
1.1006842619745845
1.099706744868035
1.096774193548387
1.0918866080156402
1.0869990224828934
1.0821114369501466
1.0762463343108504
1.0694037145650048
1.0625610948191593
1.053763440860215
1.043010752688172
1.032258064516129
1.0224828934506354
1.0166177908113392
1.013685239491691
1.0087976539589445
1.0048875855327468
1.0019550342130987
0.9990224828934506
0.9941348973607038
0.9912023460410556
0.9902248289345064
0.9980449657869012
1.0224828934506354
1.072336265884653
1.1378299120234605
1.2267839687194526
1.3558162267839686
1.5161290322580645
1.694037145650049
1.8748778103616808
2.046920821114369
2.201368523949169
2.334310850439883
2.443792766373412
2.529814271749756
2.593352883675464
2.638318670576735
2.662756598240469
2.6715542521994133
2.6715542521994133
2.66177908113392
2.644183773216031
2.6177908113391983
2.582600195503421
2.539589442815249
2.4887585532746823
2.43108504398827
2.366568914956012
2.2981427174975564
2.233626588465298
2.1710654936461387
2.104594330400782
2.0391006842619745
1.978494623655914
1.9257086999022484
1.8797653958944285
1.8416422287390029
1.8113391984359728
1.7849462365591398
1.7624633431085044
1.7429130009775171
1.726295210166178
1.7135874877810362
1.7008797653958945
1.686217008797654
1.6695992179863148
1.6529814271749756
1.635386119257087
1.616813294232649
1.5972629521016617
1.5777126099706744
1.5571847507331378
1.5356793743890518
1.5141739980449658
1.4965786901270772
1.4809384164222874
1.4643206256109482
1.447702834799609
1.43108504398827
1.41544477028348
1.401759530791789
1.388074291300098
1.3743890518084063
1.3607038123167154
1.3479960899315735
1.3343108504398826
1.332355816226784
1.3391984359726294
1.3411534701857282
1.3391984359726294
1.335288367546432
1.3294232649071358
1.3225806451612905
1.313782991202346
1.3040078201368523
1.2932551319648091
1.2825024437927663
1.2717497556207231
1.2619745845552297
1.2561094819159335
1.2512218963831867
1.2434017595307918
1.2355816226783969
1.2267839687194526
1.2160312805474096
1.206256109481916
1.195503421309873
1.18475073313783
1.1749755620723363
1.1652003910068427
1.1564027370478984
1.1485826001955035
1.144672531769306
1.142717497556207
1.1397849462365592
