ppg
2.9550342130987293
2.9100684261974585
2.855327468230694
2.790811339198436
2.718475073313783
2.6471163245356792
2.576735092864125
2.501466275659824
2.4271749755620724
2.356793743890518
2.291300097751711
2.233626588465298
2.182795698924731
2.1388074291300097
2.0987292277614857
2.06158357771261
2.024437927663734
1.988269794721408
1.9550342130987293
1.9227761485826005
1.8856304985337244
1.8465298142717497
1.8064516129032255
1.7653958944281525
1.7243401759530792
1.6842619745845553
1.6441837732160314
1.6050830889540566
1.5669599217986314
1.530791788856305
1.500488758553275
1.4760508308895406
1.4496578690127078
1.423264907135875
1.3978494623655917
1.3734115347018572
1.348973607038123
1.3264907135874875
1.3049853372434017
1.284457478005865
1.2649071358748778
1.2453567937438903
1.2316715542521994
1.2209188660801564
1.2082111436950147
1.195503421309873
1.1827956989247312
1.1700879765395895
1.1573802541544478
1.1456500488758554
1.133919843597263
1.1221896383186705
1.1114369501466277
1.1006842619745845
1.0899315738025417
1.083088954056696
1.078201368523949
1.072336265884653
1.064516129032258
1.056695992179863
1.0498533724340176
1.0420332355816226
1.0342130987292275
1.0273704789833822
1.0224828934506354
1.0175953079178883
1.013685239491691
1.0127077223851415
1.013685239491691
1.0127077223851415
1.0117302052785924
1.010752688172043
1.0097751710654936
1.0097751710654936
1.0097751710654936
1.0117302052785924
1.0146627565982405
1.0166177908113392
1.018572825024438
1.0205278592375366
1.0234604105571847
1.0303030303030305
1.0391006842619743
1.053763440860215
1.0811339198435972
1.1270772238514175
1.1964809384164223
1.29227761485826
1.414467253176931
1.560117302052786
1.7233626588465298
1.8963831867057677
2.046920821114369
2.1808406647116323
2.3225806451612905
2.458455522971652
2.578690127077224
2.6823069403714563
2.768328445747801
2.8377321603128056
2.89247311827957
2.936461388074292
2.9696969696969697
2.995112414467253
3.0117302052785924
3.0146627565982405
3.0087976539589443
2.99902248289345
2.9824046920821115
2.956989247311828
2.920821114369501
2.8729227761485827
2.814271749755621
2.745845552297165
2.6715542521994133
2.595307917888563
2.5190615835777126
2.450635386119257
2.3900293255131966
2.329423264907136
2.2737047898338223
2.222873900293255
2.177908113391984
2.136852394916911
2.0987292277614857
2.0635386119257086
2.029325513196481
1.994134897360704
1.9579667644183771
1.920821114369501
1.8856304985337244
1.8514173998044965
1.8132942326490715
1.7732160312805474
1.7311827956989247
1.6901270772238517
1.6500488758553276
1.611925708699902
1.5757575757575757
1.541544477028348
1.509286412512219
1.478983382209189
1.4535679374389052
1.43108504398827
1.4066471163245358
1.3822091886608017
1.359726295210166
1.3391984359726294
1.3206256109481915
1.3040078201368523
1.289345063538612
1.2746823069403714
1.260019550342131
1.24633431085044
1.2316715542521994
1.2209188660801564
1.2121212121212122
1.2003910068426198
1.1886608015640274
1.1759530791788857
1.1622678396871946
1.1485826001955035
1.1358748778103618
1.1231671554252198
1.1114369501466277
1.1006842619745845
1.0899315738025417
1.0850439882697946
1.0840664711632453
1.0811339198435972
1.0791788856304985
1.0791788856304985
1.0811339198435972
1.0850439882697946
1.0909090909090908
1.0987292277614855
1.10752688172043
1.118279569892473
1.1300097751710656
1.1407624633431086
1.1515151515151516
1.1622678396871946
1.1691104594330402
1.1720430107526882
1.1700879765395895
1.164222873900293
1.1544477028347997
1.141739980449658
1.126099706744868
1.1094819159335287
1.0918866080156402
1.0762463343108504
1.0664711632453567
1.0625610948191593
1.06158357771261
1.0694037145650048
1.0918866080156402
1.133919843597263
1.198435972629521
1.2873900293255132
1.3998044965786902
1.5327468230694037
1.6793743890518085
1.833822091886608
1.9872922776148585
2.1163245356793743
2.2267839687194524
2.3391984359726297
2.443792766373412
2.535679374389052
2.6148582600195502
2.6803519061583576
2.7341153470185726
2.776148582600196
2.8054740957966766
2.823069403714565
2.827956989247312
2.8181818181818183
2.7966764418377323
2.763440860215054
2.718475073313783
2.662756598240469
2.598240469208211
2.5288367546432062
2.4574780058651027
2.3870967741935485
2.3196480938416424
2.2580645161290325
2.203323558162268
2.155425219941349
2.1163245356793743
2.0821114369501466
2.048875855327468
2.016617790811339
1.9843597262952104
1.9501466275659824
1.9130009775171064
1.870967741935484
1.8240469208211143
1.7741935483870968
1.7223851417399805
1.6705767350928642
1.6265884652981428
1.587487781036168
1.543499511241447
1.4975562072336266
1.4516129032258065
1.4066471163245358
1.3626588465298142
1.3196480938416422
1.2795698924731185
1.2434017595307918
1.2121212121212122
1.1857282502443791
1.164222873900293
1.1505376344086022
1.1407624633431086
1.1319648093841643
1.1251221896383188
1.1202346041055715
1.1192570869990224
1.121212121212121
1.126099706744868
1.1329423264907137
1.141739980449658
1.1534701857282503
1.1691104594330402
1.1867057673509287
1.206256109481916
1.2287390029325511
1.2531769305962854
1.2776148582600195
1.300097751710655
1.3206256109481915
1.3372434017595307
1.3499511241446724
1.3577712609970674
1.3607038123167154
1.3607038123167154
1.359726295210166
1.3577712609970674
1.3519061583577712
1.343108504398827
1.3313782991202343
1.3186705767350928
1.3049853372434017
1.29227761485826
1.2825024437927663
1.2776148582600195
1.281524926686217
1.2932551319648091
1.3118279569892473
1.3333333333333333
1.356793743890518
1.383186705767351
1.4086021505376345
1.4320625610948192
1.4506353861192571
1.466275659824047
1.4809384164222874
1.498533724340176
1.5239491691104594
1.564027370478983
1.6226783968719452
1.6881720430107527
1.7683284457478006
1.8807429130009776
2.0175953079178885
2.172043010752688
2.335288367546432
2.498533724340176
2.653958944281525
2.795698924731183
2.919843597262952
3.024437927663734
3.1114369501466275
3.1818181818181817
3.2267839687194524
3.254154447702835
3.280547409579668
3.300097751710655
3.3118279569892475
3.314760508308896
3.3088954056695994
3.294232649071359
3.270772238514174
3.2375366568914954
3.193548387096774
3.139784946236559
3.080156402737048
3.01564027370479
2.941348973607038
2.8611925708699903
2.777126099706745
2.6930596285435
2.610948191593353
2.5347018572825024
2.4652981427174976
2.401759530791789
2.345063538611926
2.2932551319648096
2.2453567937438903
2.2023460410557183
2.161290322580645
2.118279569892473
2.0733137829912023
2.026392961876833
1.978494623655914
1.9305962854349952
1.8807429130009776
1.8299120234604105
1.7790811339198436
1.7272727272727273
1.6744868035190617
1.629521016617791
1.5884652981427174
1.543499511241447
1.4975562072336266
1.452590420332356
1.4105571847507332
1.370478983382209
1.3333333333333333
1.2981427174975562
1.2649071358748778
1.2326490713587488
1.2023460410557183
1.173998044965787
1.152492668621701
1.1358748778103618
1.1173020527859236
1.0987292277614855
1.0811339198435972
1.064516129032258
1.0488758553274682
1.0342130987292275
1.0195503421309873
1.0048875855327468
0.9902248289345064
0.9765395894428152
0.9687194525904204
0.9648093841642228
0.9579667644183774
0.9501466275659824
0.9423264907135877
0.9345063538611924
0.9266862170087976
0.9188660801564028
0.9110459433040078
0.9042033235581622
0.8973607038123167
0.8924731182795699
0.8875855327468231
0.8866080156402737
0.8875855327468231
0.8875855327468231
0.8866080156402737
0.8856304985337243
0.884652981427175
0.884652981427175
0.8836754643206256
0.8826979472140762
0.8817204301075269
0.8807429130009775
0.8807429130009775
0.8836754643206256
0.8885630498533724
0.8914956011730205
0.895405669599218
0.9022482893450636
0.9159335288367546
0.9393939393939394
0.9775171065493646
1.035190615835777
1.1163245356793745
1.2238514173998043
1.356793743890518
1.509286412512219
1.6520039100684265
1.7898338220918866
1.945259042033236
2.1006842619745845
2.247311827956989
2.378299120234604
2.4408602150537635
2.4574780058651027
2.4916911045943304
2.5288367546432062
2.5640273704789838
2.595307917888563
2.6158357771261
2.6285434995112413
2.6402737047898337
2.6480938416422286
2.6510263929618767
2.64613880742913
2.633431085043988
2.610948191593353
2.579667644183773
2.5386119257087
2.4887585532746823
2.4330400782013686
2.372434017595308
2.315738025415445
2.26197458455523
2.2052785923753664
2.1515151515151514
2.101661779081134
2.0576735092864125
2.018572825024438
1.9853372434017595
1.9550342130987293
1.927663734115347
1.900293255131965
1.873900293255132
1.8484848484848484
1.8240469208211143
1.796676441837732
1.7673509286412512
1.737047898338221
1.7057673509286413
1.6735092864125125
1.6422287390029326
1.611925708699902
1.581622678396872
1.5532746823069403
1.525904203323558
1.500488758553275
1.479960899315738
1.4613880742913
1.4408602150537635
1.4213098729227762
1.4027370478983383
1.3851417399804498
1.3685239491691104
1.3528836754643203
1.33822091886608
1.3235581622678396
1.3098729227761483
1.2961876832844574
1.2864125122189638
1.278592375366569
1.2688172043010753
1.2590420332355816
1.249266862170088
1.2394916911045943
1.2297165200391007
1.219941348973607
1.2101661779081134
1.2013685239491692
1.1925708699902249
1.1857282502443791
1.181818181818182
1.1788856304985338
1.1749755620723363
1.1700879765395895
1.1652003910068427
1.160312805474096
1.1544477028347997
1.1485826001955035
1.1436950146627567
1.13880742913001
1.1348973607038124
1.1300097751710656
1.126099706744868
1.1241446725317692
1.1231671554252198
1.121212121212121
1.118279569892473
1.1163245356793745
1.115347018572825
1.1143695014662756
1.1143695014662756
1.1143695014662756
1.1143695014662756
1.1143695014662756
1.1133919843597262
1.1143695014662756
1.1173020527859236
1.1192570869990224
1.1241446725317692
1.1368523949169111
1.1622678396871946
1.2043010752688172
1.2658846529814272
1.3479960899315735
1.4496578690127078
1.5679374389051808
1.696969696969697
1.83088954056696
1.946236559139785
2.047898338220919
2.1524926686217007
2.251221896383187
2.337243401759531
2.409579667644184
2.4682306940371457
2.5141739980449658
2.548387096774193
2.572825024437928
2.589442815249267
2.5992179863147604
2.5992179863147604
2.592375366568915
2.5806451612903225
2.5620723362658846
2.535679374389052
2.5004887585532747
2.4565004887585533
2.404692082111437
2.347018572825025
2.286412512218964
2.2248289345063537
2.1652003910068425
2.1094819159335287
2.0625610948191597
2.022482893450636
1.9843597262952104
1.9501466275659824
1.9178885630498532
1.8885630498533723
1.8602150537634408
1.8328445747800584
1.8035190615835777
1.772238514173998
1.7390029325513197
1.704789833822092
1.6744868035190617
1.6451612903225807
1.611925708699902
1.576735092864125
1.5405669599217986
1.5034213098729228
1.466275659824047
1.4301075268817205
1.3958944281524928
1.364613880742913
1.3362658846529814
1.310850439882698
1.2883675464320623
1.2717497556207231
1.2590420332355816
1.2453567937438903
1.2316715542521994
1.2179863147605083
1.2043010752688172
1.1915933528836755
1.1788856304985338
1.166177908113392
1.1544477028347997
1.142717497556207
1.1319648093841643
1.1251221896383188
1.1202346041055715
1.1143695014662756
1.1085043988269794
1.1036168132942326
1.099706744868035
1.0957966764418376
1.0928641251221896
1.0909090909090908
1.088954056695992
1.0869990224828934
1.0850439882697946
1.0821114369501466
1.0821114369501466
1.083088954056696
1.0821114369501466
1.0801564027370478
1.0772238514173995
1.075268817204301
1.0742913000977516
1.0742913000977516
1.0742913000977516
1.0742913000977516
1.0742913000977516
1.0742913000977516
1.0762463343108504
1.0801564027370478
1.083088954056696
1.086021505376344
1.0879765395894427
1.088954056695992
1.0899315738025417
1.0899315738025417
1.0899315738025417
1.0909090909090908
1.093841642228739
1.1026392961876832
1.1202346041055715
1.1456500488758554
1.1827956989247312
1.241446725317693
1.321603128054741
1.423264907135875
1.543499511241447
1.6774193548387095
1.8172043010752688
1.956989247311828
2.089931573802541
2.212121212121212
2.3196480938416424
2.39980449657869
2.4604105571847508
2.5190615835777126
2.5698924731182795
2.6129032258064515
2.6480938416422286
2.677419354838709
2.6989247311827955
2.7145650048875853
2.7233626588465296
2.7253176930596283
2.720430107526881
2.705767350928641
2.6832844574780057
2.6529814271749754
2.613880742913001
2.5669599217986314
2.512218963831867
2.452590420332356
2.391006842619746
2.329423264907136
2.269794721407625
2.2140762463343107
2.163245356793744
2.118279569892473
2.081133919843597
2.0498533724340176
2.0195503421309877
1.9902248289345064
1.9608993157380252
1.9305962854349952
1.8993157380254155
1.8670576735092863
1.8328445747800584
1.7986314760508308
1.7634408602150538
1.7282502443792769
1.694037145650049
1.675464320625611
1.6627565982404693
1.6383186705767352
1.6099706744868034
1.5796676441837731
1.5493646138807429
1.520039100684262
1.490713587487781
1.4623655913978495
1.4349951124144673
1.409579667644184
1.3851417399804498
1.3665689149560116
1.3519061583577712
1.3362658846529814
1.3196480938416422
1.303030303030303
1.2854349951124144
1.2688172043010753
1.2531769305962854
1.2375366568914956
1.2228739002932552
1.209188660801564
1.1964809384164223
1.1837732160312806
1.1759530791788857
1.1691104594330402
1.160312805474096
1.1515151515151516
1.141739980449658
1.130987292277615
1.121212121212121
1.1114369501466277
1.1026392961876832
1.093841642228739
1.086021505376344
1.0801564027370478
1.0772238514173995
1.0762463343108504
1.0733137829912025
1.0684261974584557
1.0635386119257086
1.0596285434995112
1.0557184750733135
1.0527859237536656
1.0518084066471165
1.050830889540567
1.050830889540567
1.0498533724340176
1.050830889540567
1.053763440860215
1.0557184750733135
1.056695992179863
1.056695992179863
1.056695992179863
1.056695992179863
1.0576735092864125
1.0596285434995112
1.067448680351906
1.0850439882697946
1.115347018572825
1.166177908113392
1.227761485826002
1.3049853372434017
1.412512218963832
1.5464320625610948
1.6989247311827955
1.8621700879765395
2.029325513196481
2.1915933528836757
2.3411534701857284
2.4750733137829912
2.589442815249267
2.686217008797654
2.7546432062561097
2.8044965786901277
2.8533724340175954
2.897360703812317
2.9345063538611926
2.964809384164223
2.988269794721408
3.003910068426197
3.010752688172043
3.007820136852395
2.994134897360704
2.9696969696969697
2.9335288367546437
2.889540566959922
2.8377321603128056
2.776148582600196
2.705767350928641
2.6295210166177907
2.5513196480938416
2.4760508308895406
2.404692082111437
2.340175953079179
2.2825024437927666
2.231671554252199
2.185728250244379
2.146627565982405
2.1114369501466275
2.0762463343108504
2.040078201368524
2.003910068426197
1.9667644183773216
1.9315738025415443
1.8963831867057677
1.8602150537634408
1.823069403714565
1.7849462365591398
1.7458455522971652
1.70772238514174
1.6744868035190617
1.643206256109482
1.608993157380254
1.5747800586510263
1.541544477028348
1.5102639296187683
1.4809384164222874
1.4545454545454546
1.4301075268817205
1.4066471163245358
1.3861192570869991
1.3665689149560116
1.3519061583577712
1.3391984359726294
1.3255131964809383
1.310850439882698
1.2971652003910068
1.284457478005865
1.2727272727272727
1.260019550342131
1.2473118279569892
1.2336265884652982
1.2209188660801564
1.2082111436950147
1.1945259042033236
1.1857282502443791
1.1788856304985338
1.1700879765395895
1.160312805474096
1.1505376344086022
1.1407624633431086
1.130987292277615
1.1221896383186705
1.1143695014662756
1.10752688172043
1.1006842619745845
1.093841642228739
1.0899315738025417
1.0879765395894427
1.0850439882697946
1.0821114369501466
1.0801564027370478
1.078201368523949
1.078201368523949
1.078201368523949
1.0772238514173995
1.075268817204301
1.072336265884653
1.0684261974584557
1.064516129032258
1.0625610948191593
1.06158357771261
1.0586510263929618
1.0557184750733135
1.0527859237536656
1.050830889540567
1.050830889540567
1.053763440860215
1.0635386119257086
1.0850439882697946
1.1221896383186705
1.1798631476050832
1.24633431085044
1.3264907135874875
1.4349951124144673
1.5650048875855327
1.710654936461388
1.8641251221896384
2.018572825024438
2.166177908113392
2.302052785923754
2.423264907135875
2.5268817204301075
2.611925708699902
2.679374389051808
2.7223851417399803
2.748778103616813
2.771260997067449
2.787878787878788
2.7976539589442817
2.7996089931573804
2.7947214076246336
2.7810361681329425
2.758553274682307
2.7253176930596283
2.6803519061583576
2.625610948191593
2.567937438905181
2.5083088954056696
2.441837732160313
2.372434017595308
2.304985337243402
2.243401759530792
2.187683284457478
2.1407624633431084
2.099706744868035
2.064516129032258
2.0332355816226784
2.003910068426197
1.975562072336266
1.9501466275659824
1.9237536656891496
1.8934506353861196
1.8602150537634408
1.823069403714565
1.7839687194525904
1.7448680351906158
1.7057673509286413
1.6656891495601174
1.6256109481915937
1.587487781036168
1.5513196480938416
1.521016617790811
1.495601173020528
1.4672531769305963
1.4379276637341154
1.4105571847507332
1.3851417399804498
1.3616813294232648
1.3401759530791788
1.3196480938416422
1.3020527859237536
1.2854349951124144
1.2688172043010753
1.2531769305962854
1.2424242424242424
1.2336265884652982
1.2218963831867058
1.209188660801564
1.195503421309873
1.181818181818182
1.1691104594330402
1.1573802541544478
1.1456500488758554
1.1348973607038124
1.1241446725317692
1.1143695014662756
1.1094819159335287
1.1055718475073313
1.099706744868035
1.0918866080156402
1.0840664711632453
1.0762463343108504
1.0684261974584557
1.050830889540567
1.0283479960899315
1.0156402737047898
1.0068426197458455
1.0009775171065494
0.9990224828934506
1.0009775171065494
1.0019550342130987
1.0019550342130987
1.0019550342130987
1.0019550342130987
1.0019550342130987
1.0019550342130987
1.0019550342130987
1.002932551319648
1.0039100684261977
1.0039100684261977
1.0039100684261977
1.0058651026392962
1.0087976539589445
1.010752688172043
1.013685239491691
1.021505376344086
1.0391006842619743
1.0703812316715542
1.1221896383186705
1.198435972629521
1.3010752688172045
1.4281524926686218
1.5757575757575757
1.715542521994135
1.8514173998044965
2.005865102639296
2.163245356793744
2.3118279569892475
2.4457478005865103
2.579667644183773
2.686217008797654
2.7536656891495603
2.812316715542522
2.86217008797654
2.902248289345064
2.9345063538611926
2.952101661779081
2.959921798631476
2.9667644183773216
2.9687194525904204
2.963831867057673
2.949169110459433
2.9227761485826003
2.884652981427175
2.835777126099707
2.7751710654936463
2.7067448680351904
2.63049853372434
2.557184750733138
2.487781036168133
2.41544477028348
2.346041055718475
2.281524926686217
2.2238514173998043
2.1739980449657867
2.1300097751710654
2.089931573802541
2.0439882697947214
2.002932551319648
1.9736070381231672
1.9403714565004888
1.90811339198436
1.87683284457478
1.8416422287390029
1.804496578690127
1.7663734115347018
1.7272727272727273
1.6881720430107527
1.6500488758553276
1.611925708699902
1.5757575757575757
1.5395894428152492
1.5053763440860215
1.4701857282502444
1.4428152492668622
1.4222873900293256
1.4007820136852396
1.3782991202346042
1.3558162267839686
1.3362658846529814
1.3176930596285434
1.2991202346041055
1.2825024437927663
1.2658846529814272
1.249266862170088
1.2326490713587488
1.2209188660801564
1.2111436950146628
1.1974584555229717
1.1808406647116323
1.1622678396871946
1.1495601173020529
1.1397849462365592
1.1270772238514175
1.1143695014662756
1.1006842619745845
1.086021505376344
1.0733137829912025
1.067448680351906
1.064516129032258
1.0606060606060606
1.0576735092864125
1.0557184750733135
1.0527859237536656
1.0498533724340176
1.0449657869012707
1.0420332355816226
1.0361681329423265
1.0273704789833822
1.0195503421309873
1.0166177908113392
1.0156402737047898
1.0127077223851415
1.010752688172043
1.0097751710654936
1.0087976539589445
1.007820136852395
1.0068426197458455
1.0068426197458455
1.0068426197458455
1.0087976539589445
1.010752688172043
1.0156402737047898
1.024437927663734
1.0361681329423265
1.0547409579667644
1.0850439882697946
1.1329423264907137
1.203323558162268
1.2981427174975562
1.3782991202346042
1.499511241446725
1.686217008797654
1.866080156402737
2.038123167155425
2.1788856304985336
2.297165200391007
2.4164222873900294
2.5249266862170088
2.619745845552297
2.6989247311827955
2.763440860215054
2.81622678396872
2.860215053763441
2.8963831867057674
2.9257086999022484
2.9472140762463344
2.956011730205278
2.956011730205278
2.952101661779081
2.940371456500489
2.917888563049853
2.8836754643206257
2.8377321603128056
2.780058651026393
2.7126099706744866
2.6392961876832843
2.5620723362658846
2.484848484848485
2.4086021505376345
2.3421309872922778
2.281524926686217
2.219941348973607
2.160312805474096
2.102639296187683
2.047898338220919
1.9960899315738023
1.9472140762463344
1.9012707722385145
1.855327468230694
1.8103616813294232
1.7673509286412512
1.729227761485826
1.694037145650049
1.6549364613880744
1.6158357771260996
1.576735092864125
1.5376344086021505
1.501466275659824
1.4672531769305963
1.4349951124144673
1.4066471163245358
1.380254154447703
1.356793743890518
1.3343108504398826
1.3157380254154447
1.300097751710655
1.2825024437927663
1.2639296187683284
1.24633431085044
1.2297165200391007
1.2150537634408602
1.2003910068426198
1.1857282502443791
1.1720430107526882
1.1593352883675463
1.1466275659824048
1.1378299120234605
1.130987292277615
1.1221896383186705
1.1133919843597262
1.1036168132942326
1.0928641251221896
1.0821114369501466
1.072336265884653
1.0625610948191593
1.053763440860215
1.0439882697947214
1.035190615835777
1.0263929618768328
1.0205278592375366
1.0166177908113392
1.010752688172043
1.0048875855327468
0.9980449657869012
0.9912023460410556
0.9863147605083088
0.981427174975562
0.9775171065493646
0.9736070381231672
0.9706744868035192
0.9687194525904204
0.9696969696969696
0.9736070381231672
0.975562072336266
0.9765395894428152
0.9765395894428152
0.9765395894428152
0.9765395894428152
0.9765395894428152
0.9765395894428152
0.9765395894428152
0.9765395894428152
0.978494623655914
0.9853372434017597
0.9990224828934506
1.0224828934506354
1.0625610948191593
1.1241446725317692
1.2121212121212122
1.3255131964809383
1.4613880742913
1.6138807429130009
1.7761485826001957
1.9403714565004888
2.0987292277614857
2.2453567937438903
2.360703812316716
2.458455522971652
2.5562072336265884
2.6392961876832843
2.7067448680351904
2.760508308895406
2.8025415444770285
2.834799608993157
2.857282502443793
2.8719452590420333
2.87683284457478
2.8729227761485827
2.8582600195503423
2.833822091886608
2.80058651026393
2.7565982404692084
2.701857282502444
2.638318670576735
2.5669599217986314
2.4916911045943304
2.4144672531769307
2.340175953079179
2.270772238514174
2.207233626588465
2.150537634408602
2.103616813294233
2.064516129032258
2.0283479960899315
1.9951124144672527
1.962854349951124
1.9315738025415443
1.8993157380254155
1.865102639296188
1.828934506353861
1.7898338220918866
1.747800586510264
1.704789833822092
1.667644183773216
1.6314760508308896
1.5913978494623655
1.5513196480938416
1.5112414467253177
1.4721407624633431
1.436950146627566
1.4056695992179864
1.3782991202346042
1.3548387096774193
1.3343108504398826
1.3157380254154447
1.2981427174975562
1.2834799608993157
1.270772238514174
1.2551319648093842
1.2375366568914956
1.2179863147605083
1.1974584555229717
1.1759530791788857
1.1544477028347997
1.1329423264907137
1.1124144672531768
1.0948191593352885
