ppg
2.7751710654936463
2.7869012707722387
2.764418377321604
2.716520039100684
2.6510263929618767
2.572825024437928
2.487781036168133
2.3978494623655915
2.3059628543499517
2.2238514173998043
2.1495601173020527
2.071358748778104
1.9951124144672527
1.9227761485826005
1.857282502443793
1.7986314760508308
1.7438905180840665
1.6920821114369502
1.6383186705767352
1.58455522971652
1.530791788856305
1.479960899315738
1.4408602150537635
1.4086021505376345
1.3773216031280548
1.3519061583577712
1.335288367546432
1.3255131964809383
1.3225806451612905
1.3264907135874875
1.3362658846529814
1.3509286412512218
1.3685239491691104
1.3851417399804498
1.3988269794721409
1.409579667644184
1.418377321603128
1.4213098729227762
1.418377321603128
1.4115347018572826
1.4007820136852396
1.3851417399804498
1.3665689149560116
1.3470185728250244
1.3255131964809383
1.3040078201368523
1.2825024437927663
1.2649071358748778
1.249266862170088
1.2297165200391007
1.2072336265884651
1.181818181818182
1.152492668621701
1.1192570869990224
1.0840664711632453
1.0547409579667644
1.0469208211143697
1.075268817204301
1.1505376344086022
1.2531769305962854
1.3919843597262953
1.590420332355816
1.8240469208211143
2.067448680351906
2.297165200391007
2.4946236559139785
2.6471163245356792
2.750733137829912
2.806451612903226
2.820136852394917
2.80058651026393
2.7565982404692084
2.699902248289345
2.634408602150537
2.5562072336265884
2.4711632453567938
2.3812316715542523
2.289345063538612
2.198435972629521
2.1114369501466275
2.029325513196481
1.951124144672532
1.8778103616813293
1.812316715542522
1.758553274682307
1.710654936461388
1.6598240469208212
1.608993157380254
1.5591397849462365
1.509286412512219
1.4643206256109482
1.423264907135875
1.3870967741935485
1.359726295210166
1.3440860215053765
1.33822091886608
1.3411534701857282
1.3499511241446724
1.364613880742913
1.3822091886608017
1.3978494623655917
1.4115347018572826
1.4222873900293256
1.4320625610948192
1.439882697947214
1.4428152492668622
1.4408602150537635
1.4330400782013686
1.4213098729227762
1.412512218963832
1.4027370478983383
1.3861192570869991
1.367546432062561
1.3470185728250244
1.3255131964809383
1.303030303030303
1.278592375366569
1.2531769305962854
1.2258064516129032
1.1964809384164223
1.163245356793744
1.133919843597263
1.110459433040078
1.0899315738025417
1.0840664711632453
1.10752688172043
1.1759530791788857
1.2971652003910068
1.4711632453567938
1.6881720430107527
1.9305962854349952
2.1739980449657867
2.398826979472141
2.589442815249267
2.7223851417399803
2.8084066471163247
2.8641251221896384
2.886608015640274
2.877810361681329
2.841642228739003
2.782991202346041
2.7096774193548385
2.625610948191593
2.533724340175953
2.4389051808406648
2.3440860215053765
2.260997067448681
2.1867057673509285
2.1114369501466275
2.038123167155425
1.9687194525904204
1.903225806451613
1.8435972629521016
1.7869012707722385
1.7311827956989247
1.6764418377321604
1.6226783968719452
1.5718475073313782
1.5249266862170088
1.4868035190615836
1.457478005865103
1.4301075268817205
1.409579667644184
1.3978494623655917
1.3949169110459434
1.3988269794721409
1.4066471163245358
1.41544477028348
1.4242424242424243
1.4330400782013686
1.4418377321603129
1.4496578690127078
1.4545454545454546
1.456500488758553
1.4535679374389052
1.4467253176930597
1.435972629521017
1.4203323558162269
1.4007820136852396
1.3763440860215057
1.348973607038123
1.3176930596285434
1.2854349951124144
1.2570869990224829
1.2365591397849462
1.219941348973607
1.1974584555229717
1.1700879765395895
1.13880742913001
1.1055718475073313
1.0694037145650048
1.0371456500488758
1.0224828934506354
1.0420332355816226
1.1133919843597262
1.2434017595307918
1.396871945259042
1.5796676441837731
1.818181818181818
2.0821114369501466
2.3421309872922778
2.575757575757576
2.766373411534702
2.905180840664712
2.992179863147605
3.03128054740958
3.0283479960899315
2.9931573802541545
2.932551319648094
2.86217008797654
2.782991202346041
2.6901270772238512
2.591397849462365
2.493646138807429
2.39980449657869
2.3098729227761488
2.2218963831867056
2.1388074291300097
2.06158357771261
1.988269794721408
1.9178885630498532
1.858260019550342
1.8064516129032255
1.7546432062561097
1.7038123167155426
1.6529814271749756
1.603128054740958
1.5562072336265884
1.5161290322580645
1.4838709677419355
1.4613880742913
1.4486803519061584
1.4467253176930597
1.4535679374389052
1.4652981427174976
1.4819159335288368
1.5024437927663734
1.521994134897361
1.5386119257087
1.5513196480938416
1.5591397849462365
1.5620723362658846
1.5591397849462365
1.5493646138807429
1.5347018572825024
1.5161290322580645
1.4975562072336266
1.478983382209189
1.456500488758553
1.4320625610948192
1.4086021505376345
1.3841642228739004
1.3577712609970674
1.3294232649071358
1.3010752688172045
1.270772238514174
1.2355816226783969
1.1974584555229717
1.163245356793744
1.1436950146627567
1.1466275659824048
1.1827956989247312
1.2688172043010753
1.41544477028348
1.6207233626588464
1.869012707722385
2.139784946236559
2.409579667644184
2.656891495601173
2.8611925708699903
3.010752688172043
3.1006842619745845
3.1436950146627565
3.1524926686217007
3.1280547409579667
3.0772238514174
3.005865102639296
2.918866080156403
2.823069403714565
2.720430107526881
2.6148582600195502
2.5112414467253177
2.412512218963832
2.317693059628544
2.236559139784946
2.164222873900293
2.090909090909091
2.018572825024438
1.948191593352884
1.8797653958944285
1.8132942326490715
1.7497556207233629
1.6911045943304008
1.635386119257087
1.5835777126099706
1.5395894428152492
1.5073313782991202
1.4838709677419355
1.4652981427174976
1.4545454545454546
1.4506353861192571
1.4545454545454546
1.4643206256109482
1.478983382209189
1.495601173020528
1.5131964809384164
1.5288367546432062
1.5395894428152492
1.5464320625610948
1.5503421309872922
1.5503421309872922
1.5464320625610948
1.5356793743890518
1.521016617790811
1.5024437927663734
1.479960899315738
1.4545454545454546
1.4281524926686218
1.401759530791789
1.3743890518084063
1.346041055718475
1.3225806451612905
1.3010752688172045
1.2727272727272727
1.2375366568914956
1.1974584555229717
1.1583577712609971
1.1319648093841643
1.1319648093841643
1.173998044965787
1.2746823069403714
1.4389051808406648
1.66177908113392
1.927663734115347
2.1739980449657867
2.39980449657869
2.634408602150537
2.844574780058651
3.0117302052785924
3.129032258064516
3.1945259042033234
3.2130987292277613
3.1925708699902247
3.1407624633431084
3.0664711632453567
2.9775171065493646
2.887585532746823
2.7966764418377323
2.696969696969697
2.5962854349951123
2.498533724340176
2.403714565004888
2.313782991202346
2.23069403714565
2.1524926686217007
2.0772238514174
2.003910068426197
1.9315738025415443
1.8699902248289344
1.8142717497556209
1.75366568914956
1.694037145650049
1.6363636363636365
1.58455522971652
1.5395894428152492
1.5053763440860215
1.4809384164222874
1.4672531769305963
1.4652981427174976
1.4721407624633431
1.4848484848484849
1.499511241446725
1.5151515151515151
1.530791788856305
1.543499511241447
1.552297165200391
1.5562072336265884
1.5562072336265884
1.5532746823069403
1.5483870967741935
1.5395894428152492
1.5249266862170088
1.504398826979472
1.4848484848484849
1.4652981427174976
1.4389051808406648
1.4115347018572826
1.3841642228739004
1.3558162267839686
1.3264907135874875
1.2971652003910068
1.2658846529814272
1.2297165200391007
1.1896383186705768
1.1534701857282503
1.1329423264907137
1.1358748778103618
1.1720430107526882
1.3196480938416422
1.498533724340176
1.6608015640273706
1.8914956011730208
2.1593352883675463
2.4330400782013686
2.684261974584555
2.8963831867057674
3.059628543499511
3.16911045943304
3.2238514173998043
3.236559139784946
3.220918866080156
3.1788856304985336
3.115347018572825
3.035190615835777
2.943304007820137
2.843597262952102
2.740957966764418
2.6392961876832843
2.5405669599217986
2.4457478005865103
2.3528836754643208
2.272727272727273
2.203323558162268
2.131964809384164
2.059628543499511
1.989247311827957
1.919843597262952
1.8504398826979471
1.7839687194525904
1.7204301075268815
1.6598240469208212
1.6050830889540566
1.5591397849462365
1.525904203323558
1.504398826979472
1.4887585532746823
1.4809384164222874
1.466275659824047
1.4506353861192571
1.4506353861192571
1.458455522971652
1.4701857282502444
1.479960899315738
1.4868035190615836
1.490713587487781
1.4916911045943304
1.490713587487781
1.4868035190615836
1.478983382209189
1.466275659824047
1.4486803519061584
1.4281524926686218
1.4037145650048877
1.3773216031280548
1.3519061583577712
1.327468230694037
1.303030303030303
1.2776148582600195
1.2570869990224829
1.2375366568914956
1.209188660801564
1.1749755620723363
1.1397849462365592
1.1133919843597262
1.1085043988269794
1.1397849462365592
1.2209188660801564
1.3577712609970674
1.547409579667644
1.7771260997067448
2.026392961876833
2.243401759530792
2.43108504398827
2.6129032258064515
2.766373411534702
2.8797653958944283
2.9501466275659824
2.978494623655914
2.972629521016618
2.9393939393939394
2.881720430107527
2.8084066471163247
2.724340175953079
2.6422287390029324
2.5610948191593352
2.4731182795698925
2.3822091886608017
2.294232649071359
2.2111436950146626
2.131964809384164
2.058651026392962
1.989247311827957
1.9237536656891496
1.86119257086999
1.8005865102639296
1.7419354838709675
1.6911045943304008
1.64613880742913
1.598240469208211
1.5503421309872922
1.5083088954056696
1.4721407624633431
1.444770283479961
1.4271749755620724
1.418377321603128
1.4173998044965788
1.4242424242424243
1.435972629521017
1.4486803519061584
1.4623655913978495
1.4750733137829912
1.4838709677419355
1.490713587487781
1.4936461388074291
1.4926686217008798
1.4868035190615836
1.47702834799609
1.4623655913978495
1.4428152492668622
1.418377321603128
1.391006842619746
1.3685239491691104
1.348973607038123
1.327468230694037
1.305962854349951
1.2825024437927663
1.2502443792766371
1.219941348973607
1.1945259042033236
1.1612903225806452
1.1251221896383188
1.0957966764418376
1.086021505376344
1.1006842619745845
1.1485826001955035
1.2473118279569892
1.4037145650048877
1.608993157380254
1.847507331378299
2.0977517106549364
2.340175953079179
2.552297165200391
2.721407624633431
2.843597262952102
2.918866080156403
2.952101661779081
2.952101661779081
2.9257086999022484
2.878787878787879
2.814271749755621
2.73802541544477
2.6529814271749754
2.5620723362658846
2.4701857282502444
2.3792766373411536
2.290322580645161
2.207233626588465
2.1270772238514173
2.0576735092864125
1.9960899315738023
1.9315738025415443
1.865102639296188
1.7986314760508308
1.7331378299120237
1.6705767350928642
1.611925708699902
1.5571847507331378
1.5073313782991202
1.4623655913978495
1.423264907135875
1.393939393939394
1.3763440860215057
1.367546432062561
1.3655913978494625
1.370478983382209
1.380254154447703
1.393939393939394
1.4086021505376345
1.4222873900293256
1.4330400782013686
1.4408602150537635
1.4457478005865103
1.4467253176930597
1.444770283479961
1.4418377321603129
1.434017595307918
1.4213098729227762
1.4037145650048877
1.3822091886608017
1.356793743890518
1.3304007820136852
1.303030303030303
1.2756598240469208
1.2473118279569892
1.2189638318670577
1.1964809384164223
1.173998044965787
1.144672531769306
1.1114369501466277
1.078201368523949
1.0527859237536656
1.0498533724340176
1.0850439882697946
1.1720430107526882
1.316715542521994
1.5131964809384164
1.7468230694037146
1.9951124144672527
2.209188660801564
2.3900293255131966
2.563049853372434
2.704789833822092
2.8054740957966766
2.865102639296188
2.886608015640274
2.87683284457478
2.8406647116324537
2.7839687194525906
2.7116324535679373
2.6285434995112413
2.5464320625610948
2.4672531769305963
2.3812316715542523
2.2932551319648096
2.207233626588465
2.1251221896383186
2.046920821114369
1.9716520039100685
1.8983382209188664
1.826001955034213
1.7565982404692082
1.6911045943304008
1.6285434995112416
1.5747800586510263
1.5268817204301075
1.4760508308895406
1.4271749755620724
1.3851417399804498
1.3499511241446724
1.3225806451612905
1.303030303030303
1.2932551319648091
1.29227761485826
1.2961876832844574
1.3049853372434017
1.316715542521994
1.3284457478005864
1.3401759530791788
1.3509286412512218
1.356793743890518
1.3587487781036167
1.356793743890518
1.3509286412512218
1.3391984359726294
1.3176930596285434
1.2961876832844574
1.2776148582600195
1.2561094819159335
1.238514173998045
1.2218963831867058
1.2003910068426198
1.1759530791788857
1.1505376344086022
1.126099706744868
1.1006842619745845
1.0713587487781036
1.0381231671554252
1.0009775171065494
0.9667644183773216
0.9452590420332356
0.9452590420332356
0.9736070381231672
1.0478983382209188
1.1759530791788857
1.356793743890518
1.5777126099706744
1.8201368523949168
2.0635386119257086
2.286412512218964
2.474095796676442
2.618768328445748
2.717497556207233
2.773216031280548
2.790811339198436
2.779081133919844
2.742913000977517
2.687194525904203
2.6148582600195502
2.530791788856305
2.439882697947214
2.345063538611926
2.2502443792766376
2.158357771260997
2.0791788856304985
2.0087976539589443
1.9472140762463344
1.8914956011730208
1.8318670576735088
1.7712609970674489
1.7126099706744868
1.656891495601173
1.603128054740958
1.552297165200391
1.5034213098729228
1.458455522971652
1.418377321603128
1.3851417399804498
1.359726295210166
1.346041055718475
1.3401759530791788
1.3391984359726294
1.3470185728250244
1.3607038123167154
1.3782991202346042
1.3958944281524928
1.414467253176931
1.4291300097751711
1.4389051808406648
1.4457478005865103
1.447702834799609
1.447702834799609
1.444770283479961
1.435972629521017
1.4222873900293256
1.4037145650048877
1.3812316715542523
1.3558162267839686
1.3313782991202343
1.3088954056695992
1.2903225806451613
1.2717497556207231
1.2512218963831867
1.2267839687194526
1.2052785923753666
1.1837732160312806
1.1564027370478984
1.1300097751710656
1.118279569892473
1.1358748778103618
1.195503421309873
1.3069403714565004
1.4701857282502444
1.675464320625611
1.905180840664712
2.136852394916911
2.3284457478005867
2.482893450635386
2.6236559139784945
2.7311827956989245
2.80058651026393
2.831867057673509
2.83088954056696
2.803519061583578
2.7517106549364616
2.6852394916911044
2.6080156402737047
2.52297165200391
2.4359726295210167
2.356793743890518
2.2825024437927666
2.204301075268817
2.10850439882698
2.024437927663734
1.9667644183773216
1.905180840664712
1.827956989247312
1.7605083088954057
1.7135874877810362
1.6637341153470186
1.608993157380254
1.5650048875855327
1.530791788856305
1.4916911045943304
1.4496578690127078
1.4164222873900294
1.396871945259042
1.383186705767351
1.3763440860215057
1.380254154447703
1.393939393939394
1.4056695992179864
1.418377321603128
1.4330400782013686
1.444770283479961
1.452590420332356
1.455522971652004
1.4535679374389052
1.447702834799609
1.4379276637341154
1.426197458455523
1.4115347018572826
1.3988269794721409
1.3792766373411536
1.3499511241446724
1.3264907135874875
1.3069403714565004
1.2864125122189638
1.2658846529814272
1.2443792766373412
1.2209188660801564
1.1945259042033236
1.164222873900293
1.1300097751710656
1.0987292277614855
1.0821114369501466
1.093841642228739
1.130987292277615
1.2043010752688172
1.3333333333333333
1.5141739980449658
1.732160312805474
1.9687194525904204
2.20039100684262
2.410557184750733
2.58455522971652
2.713587487781036
2.7966764418377323
2.8377321603128056
2.841642228739003
2.822091886608016
2.782013685239492
2.724340175953079
2.6529814271749754
2.573802541544477
2.489736070381232
2.403714565004888
2.3167155425219943
2.231671554252199
2.1485826001955037
2.067448680351906
1.991202346041056
1.9286412512218964
1.8729227761485825
1.8132942326490715
1.7526881720430108
1.6930596285434996
1.6344086021505375
1.5777126099706744
1.52297165200391
1.474095796676442
1.4320625610948192
1.3978494623655917
1.3714565004887584
1.3528836754643203
1.3450635386119256
1.3450635386119256
1.3499511241446724
1.3587487781036167
1.3714565004887584
1.3870967741935485
1.4007820136852396
1.4105571847507332
1.4164222873900294
1.4193548387096775
1.4193548387096775
1.4173998044965788
1.41544477028348
1.4115347018572826
1.4037145650048877
1.3919843597262953
1.3773216031280548
1.3577712609970674
1.335288367546432
1.310850439882698
1.2864125122189638
1.2619745845552297
1.2365591397849462
1.209188660801564
1.1808406647116323
1.1573802541544478
1.133919843597263
1.1055718475073313
1.0811339198435972
1.0713587487781036
1.0918866080156402
1.1583577712609971
1.2766373411534702
1.4457478005865103
1.6559139784946235
1.8905180840664717
2.1280547409579667
2.3255131964809386
2.4838709677419355
2.627565982404692
2.7370478983382207
2.806451612903226
2.8367546432062563
2.833822091886608
2.8025415444770285
2.7497556207233624
2.6823069403714563
2.6050830889540566
2.5219941348973607
2.4349951124144678
2.355816226783969
2.283479960899316
2.207233626588465
2.1300097751710654
2.056695992179863
1.986314760508309
1.9188660801564028
1.8533724340175952
1.7888563049853372
1.7253176930596286
1.6637341153470186
1.6050830889540566
1.5571847507331378
1.5151515151515151
1.4721407624633431
1.4320625610948192
1.396871945259042
1.3685239491691104
1.348973607038123
1.3372434017595307
1.3333333333333333
1.3362658846529814
1.3450635386119256
1.3587487781036167
1.3714565004887584
1.3841642228739004
1.3958944281524928
1.4066471163245358
1.414467253176931
1.4173998044965788
1.4164222873900294
1.412512218963832
1.404692082111437
1.393939393939394
1.380254154447703
1.3626588465298142
1.3411534701857282
1.321603128054741
1.3040078201368523
1.284457478005865
1.262952101661779
1.2394916911045943
1.2140762463343109
1.1867057673509287
1.1534701857282503
1.1173020527859236
1.086021505376344
1.0703812316715542
1.0840664711632453
1.142717497556207
1.2297165200391007
1.3509286412512218
1.5298142717497556
1.7497556207233629
2.004887585532747
2.270772238514174
2.505376344086021
2.6959921798631474
2.838709677419355
2.9315738025415445
2.978494623655914
2.9853372434017595
2.963831867057673
2.919843597262952
2.854349951124145
2.7751710654936463
2.687194525904203
2.593352883675464
2.496578690127077
2.39980449657869
2.3069403714565007
2.2170087976539588
2.1300097751710654
2.048875855327468
1.9716520039100685
1.906158357771261
1.847507331378299
1.7849462365591398
1.721407624633431
1.6588465298142718
1.5972629521016617
1.5386119257087
1.482893450635386
1.434017595307918
1.392961876832845
1.3607038123167154
1.33822091886608
1.3264907135874875
1.3225806451612905
1.324535679374389
1.3313782991202343
1.3421309872922775
1.3558162267839686
1.370478983382209
1.383186705767351
1.3949169110459434
1.404692082111437
1.4105571847507332
1.4105571847507332
1.4066471163245358
1.4027370478983383
1.396871945259042
1.3841642228739004
1.367546432062561
1.3470185728250244
1.3225806451612905
1.2961876832844574
1.270772238514174
1.2453567937438903
1.2189638318670577
1.1906158357771262
1.160312805474096
1.133919843597263
1.10752688172043
1.0733137829912025
1.0449657869012707
1.035190615835777
1.0596285434995112
1.133919843597263
1.267839687194526
1.4594330400782014
1.696969696969697
1.959921798631476
2.2248289345063537
2.4682306940371457
2.653958944281525
2.787878787878788
2.895405669599218
2.9657869012707723
2.9980449657869013
2.994134897360704
2.962854349951124
2.9100684261974585
2.8406647116324537
2.7565982404692084
2.664711632453568
2.567937438905181
2.4780058651026398
2.393939393939394
2.3059628543499517
2.217986314760508
2.133919843597263
2.0547409579667644
1.978494623655914
1.905180840664712
1.8328445747800584
1.761485826001955
1.6920821114369502
1.6265884652981428
1.5728250244379276
1.5249266862170088
1.4750733137829912
1.4301075268817205
1.3919843597262953
1.3616813294232648
1.3421309872922775
1.332355816226784
1.3313782991202343
1.3391984359726294
1.35386119257087
1.3714565004887584
1.3890518084066472
1.4056695992179864
1.4193548387096775
1.4291300097751711
1.4349951124144673
1.436950146627566
1.4349951124144673
1.4271749755620724
1.4164222873900294
1.4027370478983383
1.3851417399804498
1.3636363636363635
1.3391984359726294
1.316715542521994
1.2971652003910068
1.2756598240469208
1.252199413489736
1.227761485826002
1.2013685239491692
1.1720430107526882
1.1407624633431086
1.1065493646138806
1.0733137829912025
1.0498533724340176
1.0527859237536656
1.0977517106549364
1.1749755620723363
1.2932551319648091
1.474095796676442
1.7038123167155426
1.962854349951124
2.2277614858260018
2.474095796676442
2.684261974584555
2.8484848484848486
2.962854349951124
3.027370478983382
3.048875855327468
3.037145650048876
3.0
2.940371456500489
2.8641251221896384
2.777126099706745
2.6832844574780057
2.5865102639296187
2.487781036168133
2.389051808406647
2.2952101661779083
2.204301075268817
2.1163245356793743
2.032258064516129
1.959921798631476
1.8934506353861196
1.823069403714565
1.7526881720430108
1.6852394916911049
1.6207233626588464
1.560117302052786
1.500488758553275
1.444770283479961
1.396871945259042
1.359726295210166
1.332355816226784
1.316715542521994
1.310850439882698
1.3118279569892473
1.3206256109481915
1.3362658846529814
1.35386119257087
1.3734115347018572
1.3919843597262953
1.4076246334310851
1.4193548387096775
1.426197458455523
1.4271749755620724
1.423264907135875
1.418377321603128
1.4115347018572826
1.3998044965786902
1.3841642228739004
1.3636363636363635
1.3391984359726294
1.3118279569892473
1.2825024437927663
1.2531769305962854
1.2267839687194526
1.198435972629521
1.1691104594330402
1.1456500488758554
1.1241446725317692
1.0948191593352885
1.064516129032258
1.043010752688172
1.0449657869012707
1.088954056695992
1.187683284457478
1.3479960899315735
1.563049853372434
1.8172043010752688
2.0879765395894427
2.3528836754643208
2.5650048875855327
2.730205278592375
2.874877810361681
2.981427174975562
3.0449657869012707
3.0684261974584555
3.0576735092864125
3.018572825024438
2.9579667644183774
2.8797653958944283
2.789833822091887
2.69208211143695
2.5992179863147604
2.5102639296187683
2.4173998044965788
2.3255131964809386
2.2346041055718477
2.146627565982405
2.060606060606061
1.9794721407624636
1.902248289345064
1.8269794721407624
1.75366568914956
1.6842619745845553
1.6187683284457477
1.5650048875855327
1.5180840664711632
1.4711632453567938
1.4291300097751711
1.393939393939394
1.3685239491691104
1.3519061583577712
1.343108504398827
1.343108504398827
1.3499511241446724
1.3626588465298142
1.3782991202346042
1.393939393939394
1.4076246334310851
1.4203323558162269
1.4301075268817205
1.4379276637341154
1.439882697947214
1.4379276637341154
1.4330400782013686
1.4242424242424243
1.4115347018572826
1.3958944281524928
1.3695014662756595
1.3362658846529814
1.310850439882698
1.289345063538612
1.2658846529814272
1.241446725317693
1.2140762463343109
1.18475073313783
1.152492668621701
1.1173020527859236
1.0801564027370478
1.050830889540567
1.0420332355816226
1.0703812316715542
1.1280547409579669
1.224828934506354
1.3822091886608017
1.5913978494623655
1.836754643206256
2.0957966764418376
2.347018572825025
2.5718475073313782
2.7546432062561097
2.889540566959922
2.978494623655914
3.022482893450636
3.027370478983382
3.004887585532747
2.961876832844575
2.900293255131965
2.8240469208211145
2.7370478983382207
2.6422287390029324
2.5434995112414467
2.444770283479961
2.3499511241446727
2.259042033235582
2.1710654936461387
2.086021505376344
2.0146627565982405
1.951124144672532
1.8826979472140764
1.8113391984359728
1.7409579667644184
1.672531769305963
1.607038123167155
