ppg
1.0254154447702837
1.0263929618768328
1.0254154447702837
1.0234604105571847
1.0224828934506354
1.021505376344086
1.0205278592375366
1.0175953079178883
1.0146627565982405
1.0156402737047898
1.0263929618768328
1.0488758553274682
1.088954056695992
1.1573802541544478
1.2570869990224829
1.3861192570869991
1.5386119257087
1.7086999022482894
1.8856304985337244
2.059628543499511
2.2248289345063537
2.3743890518084068
2.504398826979472
2.613880742913001
2.69208211143695
2.747800586510264
2.7976539589442817
2.838709677419355
2.8699902248289346
2.89247311827957
2.906158357771261
2.913978494623656
2.9159335288367547
2.9120234604105573
2.9012707722385143
2.881720430107527
2.854349951124145
2.8211143695014664
2.780058651026393
2.7311827956989245
2.6725317693059627
2.6050830889540566
2.527859237536657
2.4457478005865103
2.360703812316716
2.274682306940372
2.189638318670577
2.10850439882698
2.0391006842619745
1.9804496578690127
1.9237536656891496
1.871945259042033
1.8269794721407624
1.7888563049853372
1.7575757575757576
1.7331378299120237
1.7116324535679377
1.6920821114369502
1.6744868035190617
1.6578690127077225
1.6422287390029326
1.629521016617791
1.6177908113391983
1.6050830889540566
1.590420332355816
1.5747800586510263
1.5581622678396871
1.5405669599217986
1.52297165200391
1.504398826979472
1.4858260019550342
1.4672531769305963
1.447702834799609
1.43108504398827
1.4173998044965788
1.401759530791789
1.388074291300098
1.375366568914956
1.3626588465298142
1.3509286412512218
1.3411534701857282
1.332355816226784
1.324535679374389
1.316715542521994
1.3088954056695992
1.3020527859237536
1.2971652003910068
1.295210166177908
1.29227761485826
1.2873900293255132
1.2825024437927663
1.2776148582600195
1.273704789833822
1.2697947214076246
1.2668621700879763
1.2639296187683284
1.260019550342131
1.2541544477028348
1.2502443792766371
1.249266862170088
1.249266862170088
1.2570869990224829
1.2795698924731185
1.3235581622678396
1.3949169110459434
1.4936461388074291
1.6177908113391983
1.7634408602150538
1.9227761485826005
2.086021505376344
2.242424242424242
2.3685239491691106
2.472140762463343
2.573802541544477
2.662756598240469
2.73802541544477
2.7996089931573804
2.8475073313782997
2.8836754643206257
2.9071358748778104
2.920821114369501
2.9257086999022484
2.9227761485826003
2.911045943304008
2.8914956011730206
2.8670576735092865
2.8377321603128056
2.8025415444770285
2.760508308895406
2.710654936461388
2.6529814271749754
2.5865102639296187
2.5102639296187683
2.4281524926686218
2.343108504398827
2.257086999022483
2.1808406647116323
2.1114369501466275
2.040078201368524
1.9726295210166176
1.9120234604105573
1.8602150537634408
1.81524926686217
1.7781036168132942
1.7458455522971652
1.718475073313783
1.6959921798631477
1.6764418377321604
1.66177908113392
1.6490713587487782
1.6344086021505375
1.6177908113391983
1.5992179863147604
1.5806451612903225
1.5610948191593352
1.5395894428152492
1.517106549364614
1.4936461388074291
1.469208211143695
1.4437927663734116
1.4193548387096775
1.3998044965786902
1.383186705767351
1.364613880742913
1.346041055718475
1.3264907135874875
1.3069403714565004
1.2883675464320623
1.2697947214076246
1.252199413489736
1.2355816226783969
1.219941348973607
1.206256109481916
1.1974584555229717
1.1906158357771262
1.1808406647116323
1.1700879765395895
1.1583577712609971
1.1466275659824048
1.1348973607038124
1.1221896383186705
1.110459433040078
1.1006842619745845
1.0918866080156402
1.0850439882697946
1.078201368523949
1.075268817204301
1.0733137829912025
1.0694037145650048
1.064516129032258
1.0586510263929618
1.0547409579667644
1.050830889540567
1.0488758553274682
1.0478983382209188
1.0488758553274682
1.050830889540567
1.0518084066471165
1.053763440860215
1.056695992179863
1.0557184750733135
1.0518084066471165
1.0449657869012707
1.0391006842619743
1.040078201368524
1.0557184750733135
1.0928641251221896
1.1593352883675463
1.2590420332355816
1.391006842619746
1.5503421309872922
1.7018572825024438
1.8504398826979471
2.0175953079178885
2.185728250244379
2.3421309872922778
2.4819159335288368
2.601173020527859
2.7008797653958942
2.782013685239492
2.8475073313782997
2.898338220918866
2.935483870967742
2.956011730205278
2.964809384164223
2.9696969696969697
2.9687194525904204
2.962854349951124
2.9501466275659824
2.9315738025415445
2.906158357771261
2.8729227761485827
2.83088954056696
2.780058651026393
2.719452590420332
2.649071358748778
2.578690127077224
2.506353861192571
2.423264907135875
2.333333333333333
2.241446725317693
2.1515151515151514
2.067448680351906
1.991202346041056
1.9237536656891496
1.8641251221896384
1.8113391984359728
1.7663734115347018
1.7311827956989247
1.7028347996089932
1.675464320625611
1.651026392961877
1.6275659824046922
1.606060606060606
1.5865102639296187
1.5669599217986314
1.5483870967741935
1.5278592375366569
1.5063538611925709
1.4848484848484849
1.4633431085043989
1.4457478005865103
1.4291300097751711
1.4105571847507332
1.391006842619746
1.3714565004887584
1.3528836754643203
1.3343108504398826
1.316715542521994
1.300097751710655
1.284457478005865
1.270772238514174
1.2570869990224829
1.24633431085044
1.2375366568914956
1.224828934506354
1.2121212121212122
1.2013685239491692
1.1906158357771262
1.1808406647116323
1.1730205278592376
1.166177908113392
1.1593352883675463
1.1534701857282503
1.147605083088954
1.144672531769306
1.1436950146627567
1.141739980449658
1.13880742913001
1.1368523949169111
1.1348973607038124
1.1329423264907137
1.130987292277615
1.1300097751710656
1.1280547409579669
1.1241446725317692
1.118279569892473
1.1133919843597262
1.1124144672531768
1.1163245356793745
1.1280547409579669
1.1564027370478984
1.2072336265884651
1.2873900293255132
1.3978494623655917
1.5356793743890518
1.694037145650049
1.8641251221896384
2.035190615835777
2.20039100684262
2.334310850439883
2.444770283479961
2.5532746823069403
2.650048875855328
2.7311827956989245
2.7976539589442817
2.8484848484848486
2.886608015640274
2.9120234604105573
2.927663734115347
2.9335288367546437
2.9315738025415445
2.9227761485826003
2.906158357771261
2.8836754643206257
2.8563049853372435
2.823069403714565
2.782991202346041
2.7331378299120237
2.675464320625611
2.608993157380254
2.536656891495601
2.458455522971652
2.3743890518084068
2.2883675464320627
2.212121212121212
2.1436950146627565
2.072336265884653
2.004887585532747
1.9442815249266865
1.8914956011730208
1.8465298142717497
1.8093841642228736
1.7810361681329423
1.7575757575757576
1.7360703812316716
1.7165200391006843
1.6979472140762464
1.6842619745845553
1.6715542521994136
1.6578690127077225
1.643206256109482
1.6285434995112416
1.6129032258064515
1.595307917888563
1.5777126099706744
1.5591397849462365
1.541544477028348
1.52297165200391
1.5053763440860215
1.4916911045943304
1.479960899315738
1.4652981427174976
1.4506353861192571
1.435972629521017
1.4193548387096775
1.4027370478983383
1.3861192570869991
1.3685239491691104
1.3509286412512218
1.3333333333333333
1.316715542521994
1.3049853372434017
1.3020527859237536
1.3088954056695992
1.3313782991202343
1.3773216031280548
1.4506353861192571
1.5513196480938416
1.675464320625611
1.8172043010752688
1.967741935483871
2.117302052785924
2.257086999022483
2.380254154447703
2.472140762463343
2.541544477028348
2.606060606060606
2.658846529814272
2.699902248289345
2.729227761485826
2.748778103616813
2.7595307917888565
2.760508308895406
2.752688172043011
2.7370478983382207
2.7116324535679373
2.677419354838709
2.6392961876832843
2.5962854349951123
2.5454545454545454
2.484848484848485
2.4173998044965788
2.343108504398827
2.26197458455523
2.177908113391984
2.090909090909091
2.005865102639296
1.924731182795699
1.8514173998044965
1.793743890518084
1.7458455522971652
1.7018572825024438
1.6627565982404693
1.629521016617791
1.6011730205278591
1.5777126099706744
1.5562072336265884
1.5366568914956011
1.5180840664711632
1.500488758553275
1.4838709677419355
1.4613880742913
1.4389051808406648
1.4203323558162269
1.3998044965786902
1.3782991202346042
1.356793743890518
1.335288367546432
1.3128054740957966
1.2913000977517106
1.270772238514174
1.2512218963831867
1.2326490713587488
1.2140762463343109
1.2003910068426198
1.1896383186705768
1.1749755620723363
1.1593352883675463
1.1436950146627567
1.1270772238514175
1.110459433040078
1.0948191593352885
1.0821114369501466
1.0703812316715542
1.0586510263929618
1.0478983382209188
1.0381231671554252
1.032258064516129
1.0283479960899315
1.021505376344086
1.013685239491691
1.0048875855327468
0.9960899315738024
0.9872922776148584
0.9794721407624634
0.9726295210166178
0.967741935483871
0.9638318670576737
0.9608993157380256
0.9618768328445748
0.9657869012707724
0.9667644183773216
0.9657869012707724
0.9648093841642228
0.9638318670576737
0.9638318670576737
0.9638318670576737
0.9638318670576737
0.9638318670576737
0.9638318670576737
0.9638318670576737
0.9638318670576737
0.9667644183773216
0.9716520039100685
0.9736070381231672
0.9745845552297164
0.975562072336266
0.975562072336266
0.975562072336266
0.9736070381231672
0.9696969696969696
0.9648093841642228
0.9618768328445748
0.9667644183773216
0.9824046920821116
1.0146627565982405
1.0772238514173995
1.176930596285435
1.3147605083088951
1.4838709677419355
1.6744868035190617
1.8758553274682308
2.075268817204301
2.26197458455523
2.4301075268817205
2.5747800586510263
2.696969696969697
2.78494623655914
2.849462365591398
2.9100684261974585
2.959921798631476
2.997067448680352
3.0234604105571847
3.040078201368524
3.047898338220919
3.047898338220919
3.040078201368524
3.0254154447702835
3.003910068426197
2.975562072336266
2.940371456500489
2.8993157380254155
2.850439882697948
2.791788856304985
2.724340175953079
2.6471163245356792
2.5620723362658846
2.4711632453567938
2.377321603128055
2.281524926686217
2.1867057673509285
2.104594330400782
2.032258064516129
1.9589442815249267
1.8914956011730208
1.8318670576735088
1.780058651026393
1.7350928641251222
1.696969696969697
1.6656891495601174
1.6392961876832846
1.6148582600195502
1.5923753665689149
1.5698924731182795
1.5513196480938416
1.533724340175953
1.512218963831867
1.4897360703812317
1.4672531769305963
1.4457478005865103
1.4222873900293256
1.396871945259042
1.3714565004887584
1.346041055718475
1.321603128054741
1.2991202346041055
1.2825024437927663
1.267839687194526
1.2502443792766371
1.2326490713587488
1.2150537634408602
1.1974584555229717
1.1808406647116323
1.166177908113392
1.1515151515151516
1.1378299120234605
1.1241446725317692
1.1114369501466277
1.0987292277614855
1.0899315738025417
1.0840664711632453
1.078201368523949
1.0733137829912025
1.0694037145650048
1.0654936461388074
1.0606060606060606
1.0547409579667644
1.0498533724340176
1.0439882697947214
1.0391006842619743
1.0332355816226784
1.0303030303030305
1.0303030303030305
1.029325513196481
1.0273704789833822
1.0273704789833822
1.029325513196481
1.0312805474095796
1.0342130987292275
1.0371456500488758
1.0381231671554252
1.0371456500488758
1.035190615835777
1.0342130987292275
1.0371456500488758
1.0469208211143697
1.067448680351906
1.1065493646138806
1.1710654936461389
1.2658846529814272
1.3900293255131966
1.5395894428152492
1.7057673509286413
1.8797653958944285
2.053763440860215
2.2170087976539588
2.347996089931574
2.4545454545454546
2.5591397849462365
2.6510263929618767
2.7282502443792764
2.790811339198436
2.838709677419355
2.875855327468231
2.9012707722385143
2.9149560117302054
2.918866080156403
2.9159335288367547
2.9071358748778104
2.8905180840664717
2.866080156402737
2.835777126099707
2.7976539589442817
2.750733137829912
2.696969696969697
2.635386119257087
2.5650048875855327
2.486803519061584
2.403714565004888
2.3167155425219943
2.23069403714565
2.155425219941349
2.0869990224828934
2.0175953079178885
1.951124144672532
1.8914956011730208
1.839687194525904
1.7976539589442817
1.7644183773216031
1.737047898338221
1.7145650048875856
1.6930596285434996
1.6744868035190617
1.6578690127077225
1.643206256109482
1.629521016617791
1.6138807429130009
1.5962854349951123
1.5777126099706744
1.5591397849462365
1.5405669599217986
1.521994134897361
1.5024437927663734
1.4819159335288368
1.4623655913978495
1.4428152492668622
1.4271749755620724
1.412512218963832
1.3949169110459434
1.3782991202346042
1.3626588465298142
1.3479960899315735
1.3343108504398826
1.321603128054741
1.3088954056695992
1.2942326490713587
1.2805474095796676
1.2688172043010753
1.2580645161290325
1.2512218963831867
1.24633431085044
1.2404692082111437
1.2355816226783969
1.23069403714565
1.2267839687194526
1.2218963831867058
1.217008797653959
1.2101661779081134
1.203323558162268
1.1974584555229717
1.1906158357771262
1.187683284457478
1.1857282502443791
1.1808406647116323
1.1759530791788857
1.1700879765395895
1.1652003910068427
1.1710654936461389
1.187683284457478
1.2111436950146628
1.2531769305962854
1.3196480938416422
1.414467253176931
1.5366568914956011
1.6588465298142718
1.7839687194525904
1.9305962854349952
2.0840664711632453
2.231671554252199
2.3655913978494625
2.482893450635386
2.581622678396872
2.662756598240469
2.7262952101661777
2.7751710654936463
2.812316715542522
2.833822091886608
2.841642228739003
2.8455522971652005
2.843597262952102
2.835777126099707
2.8211143695014664
2.801564027370479
2.7751710654936463
2.7419354838709675
2.701857282502444
2.653958944281525
2.598240469208211
2.535679374389052
2.4731182795698925
2.407624633431085
2.332355816226784
2.251221896383187
2.166177908113392
2.081133919843597
1.9980449657869013
1.920821114369501
1.8514173998044965
1.790811339198436
1.739980449657869
1.6979472140762464
1.6666666666666667
1.6422287390029326
1.619745845552297
1.5992179863147604
1.5806451612903225
1.563049853372434
1.544477028347996
1.5239491691104594
1.5024437927663734
1.4809384164222874
1.4594330400782014
1.4389051808406648
1.4213098729227762
1.4066471163245358
1.3900293255131966
1.370478983382209
1.3479960899315735
1.3255131964809383
1.3040078201368523
1.2825024437927663
1.2619745845552297
1.241446725317693
1.2228739002932552
1.2072336265884651
1.1935483870967742
1.1837732160312806
1.176930596285435
1.1671554252199414
1.1544477028347997
1.1397849462365592
1.126099706744868
1.1124144672531768
1.099706744868035
1.0879765395894427
1.0772238514173995
1.067448680351906
1.0586510263929618
1.053763440860215
1.0498533724340176
1.0439882697947214
1.0371456500488758
1.0303030303030305
1.024437927663734
1.021505376344086
1.0195503421309873
1.018572825024438
1.018572825024438
1.018572825024438
1.018572825024438
1.018572825024438
1.021505376344086
1.024437927663734
1.024437927663734
1.0234604105571847
1.0205278592375366
1.0156402737047898
1.0097751710654936
1.0039100684261977
1.0039100684261977
1.0166177908113392
1.0498533724340176
1.1085043988269794
1.181818181818182
1.2756598240469208
1.404692082111437
1.5571847507331378
1.7243401759530792
1.895405669599218
2.06158357771261
2.21505376344086
2.3499511241446727
2.464320625610948
2.5591397849462365
2.634408602150537
2.6930596285435
2.7311827956989245
2.7536656891495603
2.7722385141739982
2.7859237536656893
2.792766373411535
2.792766373411535
2.787878787878788
2.777126099706745
2.758553274682307
2.7331378299120237
2.7008797653958942
2.6608015640273703
2.616813294232649
2.56891495601173
2.5102639296187683
2.441837732160313
2.363636363636364
2.2795698924731185
2.193548387096774
2.10850439882698
2.026392961876833
1.949169110459433
1.8797653958944285
1.818181818181818
1.7644183773216031
1.7233626588465298
1.6911045943304008
1.6608015640273706
1.6334310850439884
1.608993157380254
1.587487781036168
1.5679374389051808
1.5503421309872922
1.533724340175953
1.517106549364614
1.500488758553275
1.4848484848484849
1.4721407624633431
1.4613880742913
1.447702834799609
1.4330400782013686
1.4164222873900294
1.3988269794721409
1.3822091886608017
1.364613880742913
1.3470185728250244
1.3294232649071358
1.3118279569892473
1.2961876832844574
1.2805474095796676
1.2688172043010753
1.260019550342131
1.2502443792766371
1.2394916911045943
1.2297165200391007
1.219941348973607
1.2121212121212122
1.2052785923753666
1.198435972629521
1.1925708699902249
1.1857282502443791
1.1798631476050832
1.176930596285435
1.1749755620723363
1.1710654936461389
1.166177908113392
1.1612903225806452
1.155425219941349
1.1505376344086022
1.1466275659824048
1.142717497556207
1.1407624633431086
1.1397849462365592
1.13880742913001
1.13880742913001
1.141739980449658
1.147605083088954
1.1515151515151516
1.1534701857282503
1.1544477028347997
1.155425219941349
1.1544477028347997
1.1544477028347997
1.1593352883675463
1.1759530791788857
1.2121212121212122
1.2746823069403714
1.348973607038123
1.4389051808406648
1.5610948191593352
1.70772238514174
1.868035190615836
2.0332355816226784
2.193548387096774
2.3411534701857284
2.4711632453567938
2.5835777126099706
2.67644183773216
2.7517106549364616
2.8103616813294234
2.8475073313782997
2.8690127077223853
2.886608015640274
2.897360703812317
2.9012707722385143
2.8993157380254155
2.8905180840664717
2.875855327468231
2.854349951124145
2.8260019550342133
2.790811339198436
2.748778103616813
2.7038123167155423
2.6529814271749754
2.593352883675464
2.525904203323558
2.450635386119257
2.36950146627566
2.286412512218964
2.2052785923753664
2.1270772238514173
2.0547409579667644
1.988269794721408
1.9296187683284456
1.8797653958944285
1.8406647116324533
1.8084066471163245
1.7790811339198436
1.7546432062561097
1.7331378299120237
1.7145650048875856
1.6979472140762464
1.6823069403714566
1.667644183773216
1.6529814271749756
1.6383186705767352
1.6226783968719452
1.6158357771260996
1.6129032258064515
1.6021505376344083
1.5865102639296187
1.565982404692082
1.542521994134897
1.5190615835777126
1.4965786901270772
1.4750733137829912
1.4545454545454546
1.4349951124144673
1.418377321603128
1.4027370478983383
1.391006842619746
1.380254154447703
1.3665689149560116
1.3519061583577712
1.3362658846529814
1.3206256109481915
1.3049853372434017
1.289345063538612
1.2746823069403714
1.260019550342131
1.24633431085044
1.2355816226783969
1.227761485826002
1.2238514173998043
1.2179863147605083
1.2121212121212122
1.2072336265884651
1.2023460410557183
1.198435972629521
1.1945259042033236
1.1896383186705768
1.1837732160312806
1.1788856304985338
1.1749755620723363
1.173998044965787
1.1749755620723363
1.173998044965787
1.1700879765395895
1.1652003910068427
1.1593352883675463
1.1534701857282503
1.1495601173020529
1.152492668621701
1.1720430107526882
1.2140762463343109
1.2834799608993157
1.3841642228739004
1.4946236559139785
1.616813294232649
1.76930596285435
1.935483870967742
2.102639296187683
2.26197458455523
2.404692082111437
2.5288367546432062
2.632453567937439
2.716520039100684
2.782991202346041
2.833822091886608
2.866080156402737
2.884652981427175
2.8993157380254155
2.909090909090909
2.913000977517106
2.9100684261974585
2.900293255131965
2.884652981427175
2.863147605083089
2.833822091886608
2.7976539589442817
2.752688172043011
2.697947214076246
2.641251221896383
2.579667644183773
2.506353861192571
2.4242424242424243
2.3362658846529816
2.24633431085044
2.157380254154448
2.071358748778104
1.991202346041056
1.9178885630498532
1.8533724340175952
1.7976539589442817
1.75366568914956
1.7194525904203324
1.6881720430107527
1.6588465298142718
1.6334310850439884
1.6109481915933528
1.590420332355816
1.56891495601173
1.5464320625610948
1.5249266862170088
1.5024437927663734
1.4809384164222874
1.458455522971652
1.4389051808406648
1.4222873900293256
1.401759530791789
1.3812316715542523
1.359726295210166
1.3372434017595307
1.3147605083088951
1.2932551319648091
1.273704789833822
1.2531769305962854
1.2346041055718475
1.2179863147605083
1.2072336265884651
1.1994134897360704
1.187683284457478
1.1720430107526882
1.155425219941349
1.1397849462365592
1.126099706744868
1.1143695014662756
1.1036168132942326
1.0928641251221896
1.083088954056696
1.072336265884653
1.06158357771261
1.0557184750733135
1.0518084066471165
1.0449657869012707
1.0371456500488758
1.0303030303030305
1.0263929618768328
1.024437927663734
1.021505376344086
1.018572825024438
1.0175953079178883
1.0166177908113392
1.0166177908113392
1.018572825024438
1.0205278592375366
1.0195503421309873
1.0156402737047898
1.010752688172043
1.0048875855327468
1.0019550342130987
1.0058651026392962
1.0224828934506354
1.0586510263929618
1.121212121212121
1.2150537634408602
1.3391984359726294
1.466275659824047
1.598240469208211
1.7556207233626588
1.9227761485826005
2.0879765395894427
2.242424242424242
2.3792766373411536
2.4975562072336266
2.595307917888563
2.674486803519061
2.736070381231672
2.7839687194525906
2.814271749755621
2.83088954056696
2.8426197458455524
2.8484848484848486
2.8475073313782997
2.8396871945259043
2.825024437927664
2.803519061583578
2.774193548387097
2.73802541544477
2.695014662756598
2.643206256109482
2.5835777126099706
2.52297165200391
2.458455522971652
2.3822091886608017
2.300097751710655
2.2160312805474094
2.1309872922776147
2.047898338220919
1.9696969696969695
1.8983382209188664
1.8347996089931573
1.7790811339198436
1.7311827956989247
1.6959921798631477
1.6686217008797657
1.6422287390029326
1.6187683284457477
1.5972629521016617
1.5777126099706744
1.5581622678396871
1.5386119257087
1.521016617790811
1.504398826979472
1.487781036168133
1.4721407624633431
1.456500488758553
1.4428152492668622
1.4291300097751711
1.4134897360703813
1.3958944281524928
1.3782991202346042
1.359726295210166
1.3411534701857282
1.3235581622678396
1.3069403714565004
1.2903225806451613
1.2746823069403714
1.2590420332355816
1.2473118279569892
1.2375366568914956
1.227761485826002
1.2189638318670577
1.209188660801564
1.1994134897360704
1.1896383186705768
1.1808406647116323
1.1730205278592376
1.166177908113392
1.1593352883675463
1.1534701857282503
1.147605083088954
1.144672531769306
1.144672531769306
1.144672531769306
1.1436950146627567
1.142717497556207
1.141739980449658
1.141739980449658
1.141739980449658
1.141739980449658
1.141739980449658
1.141739980449658
1.141739980449658
1.142717497556207
1.1436950146627567
1.1407624633431086
1.1378299120234605
1.1368523949169111
1.141739980449658
1.1573802541544478
1.1896383186705768
1.24633431085044
1.332355816226784
1.4496578690127078
1.5933528836754642
1.7556207233626588
1.905180840664712
2.04594330400782
2.19941348973607
2.350928641251222
2.489736070381232
2.6099706744868034
2.730205278592375
2.841642228739003
2.921798631476051
2.9804496578690127
3.021505376344086
3.048875855327468
3.059628543499511
3.058651026392962
3.0557184750733137
3.047898338220919
3.0361681329423265
3.0175953079178885
2.992179863147605
2.9589442815249267
2.916911045943304
2.8641251221896384
2.80058651026393
2.7282502443792764
2.6559139784946235
2.582600195503421
2.4995112414467253
2.410557184750733
2.320625610948192
2.232649071358749
2.1515151515151514
2.0664711632453567
1.9960899315738023
1.951124144672532
1.9100684261974583
1.8758553274682308
1.8484848484848484
1.827956989247312
1.8103616813294232
1.7917888563049853
1.772238514173998
1.7517106549364614
1.7302052785923754
1.7086999022482894
1.686217008797654
1.664711632453568
1.643206256109482
1.6217008797653958
1.5992179863147604
1.5796676441837731
1.5620723362658846
1.542521994134897
1.52297165200391
1.5024437927663734
1.479960899315738
1.458455522971652
1.4379276637341154
1.418377321603128
1.396871945259042
1.3734115347018572
1.3519061583577712
1.3313782991202343
1.3176930596285434
1.3069403714565004
1.2932551319648091
1.2776148582600195
