ppg
1.3734115347018572
1.35386119257087
1.335288367546432
1.321603128054741
1.3088954056695992
1.29227761485826
1.2746823069403714
1.2580645161290325
1.2404692082111437
1.2228739002932552
1.2072336265884651
1.1925708699902249
1.1798631476050832
1.1681329423264908
1.1564027370478984
1.1485826001955035
1.142717497556207
1.133919843597263
1.1231671554252198
1.1114369501466277
1.1006842619745845
1.0909090909090908
1.083088954056696
1.0772238514173995
1.0733137829912025
1.0694037145650048
1.064516129032258
1.0596285434995112
1.0586510263929618
1.0576735092864125
1.0547409579667644
1.0518084066471165
1.0488758553274682
1.04594330400782
1.043010752688172
1.0410557184750733
1.0381231671554252
1.035190615835777
1.032258064516129
1.029325513196481
1.0273704789833822
1.0273704789833822
1.0254154447702837
1.0234604105571847
1.021505376344086
1.021505376344086
1.021505376344086
1.021505376344086
1.0224828934506354
1.0234604105571847
1.0263929618768328
1.0332355816226784
1.04594330400782
1.0664711632453567
1.099706744868035
1.1515151515151516
1.2238514173998043
1.3176930596285434
1.43108504398827
1.5610948191593352
1.7018572825024438
1.8484848484848484
1.994134897360704
2.131964809384164
2.2580645161290325
2.355816226783969
2.434017595307918
2.5102639296187683
2.5777126099706744
2.635386119257087
2.6832844574780057
2.721407624633431
2.7497556207233624
2.768328445747801
2.774193548387097
2.76930596285435
2.752688172043011
2.7253176930596283
2.6881720430107525
2.638318670576735
2.5806451612903225
2.515151515151515
2.44672531769306
2.3792766373411536
2.315738025415445
2.2580645161290325
2.207233626588465
2.164222873900293
2.1280547409579667
2.0948191593352883
2.065493646138808
2.0391006842619745
2.010752688172043
1.981427174975562
1.951124144672532
1.919843597262952
1.8866080156402736
1.8523949169110456
1.8172043010752688
1.7810361681329423
1.7468230694037146
1.7145650048875856
1.6852394916911049
1.6578690127077225
1.6285434995112416
1.598240469208211
1.56891495601173
1.542521994134897
1.5180840664711632
1.4936461388074291
1.4711632453567938
1.4506353861192571
1.43108504398827
1.4115347018572826
1.3919843597262953
1.3763440860215057
1.3626588465298142
1.3470185728250244
1.3304007820136852
1.313782991202346
1.2971652003910068
1.281524926686217
1.2658846529814272
1.2512218963831867
1.2365591397849462
1.2218963831867058
1.2052785923753666
1.1915933528836755
1.1798631476050832
1.1671554252199414
1.1544477028347997
1.142717497556207
1.130987292277615
1.1192570869990224
1.10752688172043
1.096774193548387
1.0869990224828934
1.078201368523949
1.0694037145650048
1.0596285434995112
1.053763440860215
1.0498533724340176
1.0439882697947214
1.0371456500488758
1.029325513196481
1.021505376344086
1.0127077223851415
1.0048875855327468
0.9980449657869012
0.9931573802541545
0.9912023460410556
0.9902248289345064
0.9921798631476052
0.9960899315738024
0.9980449657869012
0.9980449657869012
0.997067448680352
0.9960899315738024
0.9951124144672532
0.9931573802541545
0.9912023460410556
0.9902248289345064
0.9902248289345064
0.9941348973607038
1.0048875855327468
1.0234604105571847
1.0547409579667644
1.1036168132942326
1.1720430107526882
1.2639296187683284
1.3773216031280548
1.5102639296187683
1.6559139784946235
1.8093841642228736
1.962854349951124
2.10850439882698
2.242424242424242
2.347018572825025
2.43108504398827
2.5131964809384164
2.587487781036168
2.6529814271749754
2.70772238514174
2.7536656891495603
2.791788856304985
2.8211143695014664
2.8396871945259043
2.8475073313782997
2.843597262952102
2.8269794721407626
2.7996089931573804
2.760508308895406
2.7096774193548385
2.649071358748778
2.582600195503421
2.5112414467253177
2.4408602150537635
2.372434017595308
2.3098729227761488
2.2551319648093844
2.2082111436950145
2.150537634408602
2.0928641251221896
2.053763440860215
2.021505376344086
1.992179863147605
1.963831867057673
1.9345063538611929
1.9042033235581624
1.8699902248289344
1.8347996089931573
1.7986314760508308
1.761485826001955
1.7243401759530792
1.6901270772238517
1.6608015640273706
1.635386119257087
1.6099706744868034
1.5835777126099706
1.5562072336265884
1.5288367546432062
1.5024437927663734
1.4760508308895406
1.4506353861192571
1.4281524926686218
1.4076246334310851
1.388074291300098
1.3724340175953078
1.3587487781036167
1.3440860215053765
1.3284457478005864
1.3128054740957966
1.2981427174975562
1.2834799608993157
1.2697947214076246
1.2570869990224829
1.2453567937438903
1.2326490713587488
1.219941348973607
1.206256109481916
1.1964809384164223
1.1886608015640274
1.1788856304985338
1.1681329423264908
1.1573802541544478
1.1456500488758554
1.1348973607038124
1.1241446725317692
1.1133919843597262
1.1036168132942326
1.0957966764418376
1.0879765395894427
1.0840664711632453
1.0840664711632453
1.0821114369501466
1.0801564027370478
1.0772238514173995
1.075268817204301
1.072336265884653
1.0694037145650048
1.067448680351906
1.064516129032258
1.06158357771261
1.0596285434995112
1.0596285434995112
1.0606060606060606
1.0596285434995112
1.0586510263929618
1.056695992179863
1.053763440860215
1.0518084066471165
1.0518084066471165
1.0527859237536656
1.0547409579667644
1.0557184750733135
1.0557184750733135
1.056695992179863
1.0596285434995112
1.0664711632453567
1.0772238514173995
1.096774193548387
1.130987292277615
1.18475073313783
1.2609970674486803
1.3587487781036167
1.47702834799609
1.611925708699902
1.7556207233626588
1.9012707722385145
2.0254154447702835
2.133919843597263
2.2453567937438903
2.3519061583577714
2.4486803519061584
2.533724340175953
2.6070381231671558
2.670576735092864
2.724340175953079
2.7673509286412514
2.801564027370479
2.8269794721407626
2.843597262952102
2.8475073313782997
2.8396871945259043
2.8260019550342133
2.8025415444770285
2.768328445747801
2.7223851417399803
2.665689149560117
2.6021505376344085
2.535679374389052
2.469208211143695
2.403714565004888
2.343108504398827
2.29227761485826
2.249266862170088
2.2082111436950145
2.1710654936461387
2.136852394916911
2.104594330400782
2.0733137829912023
2.042033235581622
2.0097751710654936
1.978494623655914
1.946236559139785
1.9130009775171064
1.8778103616813293
1.8455522971652003
1.81524926686217
1.7810361681329423
1.7448680351906158
1.710654936461388
1.6774193548387095
1.6451612903225807
1.6148582600195502
1.585532746823069
1.5591397849462365
1.5347018572825024
1.5112414467253177
1.4916911045943304
1.474095796676442
1.455522971652004
1.435972629521017
1.4173998044965788
1.3988269794721409
1.380254154447703
1.3626588465298142
1.3450635386119256
1.327468230694037
1.310850439882698
1.295210166177908
1.2795698924731185
1.267839687194526
1.2580645161290325
1.24633431085044
1.2346041055718475
1.2218963831867058
1.209188660801564
1.1964809384164223
1.18475073313783
1.173998044965787
1.163245356793744
1.152492668621701
1.142717497556207
1.1368523949169111
1.1329423264907137
1.1270772238514175
1.121212121212121
1.1163245356793745
1.110459433040078
1.1036168132942326
1.0957966764418376
1.088954056695992
1.083088954056696
1.078201368523949
1.0733137829912025
1.067448680351906
1.0664711632453567
1.0664711632453567
1.0654936461388074
1.0635386119257086
1.0606060606060606
1.056695992179863
1.0527859237536656
1.0498533724340176
1.0469208211143697
1.0449657869012707
1.04594330400782
1.0478983382209188
1.0518084066471165
1.056695992179863
1.0576735092864125
1.0576735092864125
1.0576735092864125
1.0606060606060606
1.0703812316715542
1.0918866080156402
1.1280547409579669
1.181818181818182
1.2551319648093842
1.348973607038123
1.4613880742913
1.5698924731182795
1.6793743890518085
1.8074291300097751
1.9413489736070384
2.0733137829912023
2.196480938416422
2.3069403714565007
2.403714565004888
2.4858260019550342
2.5532746823069403
2.6080156402737047
2.6529814271749754
2.681329423264907
2.697947214076246
2.7116324535679373
2.718475073313783
2.718475073313783
2.708699902248289
2.6881720430107525
2.6578690127077222
2.618768328445748
2.5698924731182795
2.5131964809384164
2.452590420332356
2.3900293255131966
2.332355816226784
2.278592375366569
2.225806451612903
2.176930596285435
2.132942326490713
2.0957966764418376
2.0625610948191597
2.03128054740958
2.0019550342130987
1.9716520039100685
1.9413489736070384
1.9100684261974583
1.8807429130009776
1.8533724340175952
1.823069403714565
1.7898338220918866
1.7556207233626588
1.721407624633431
1.6871945259042034
1.6529814271749756
1.619745845552297
1.5884652981427174
1.5591397849462365
1.530791788856305
1.504398826979472
1.4838709677419355
1.466275659824047
1.447702834799609
1.4271749755620724
1.4076246334310851
1.3851417399804498
1.3607038123167154
1.3391984359726294
1.3196480938416422
1.3010752688172045
1.2834799608993157
1.2649071358748778
1.2502443792766371
1.2375366568914956
1.2228739002932552
1.2072336265884651
1.1925708699902249
1.1779081133919844
1.164222873900293
1.1515151515151516
1.13880742913001
1.1270772238514175
1.1143695014662756
1.1016617790811338
1.0899315738025417
1.0811339198435972
1.075268817204301
1.067448680351906
1.0586510263929618
1.0518084066471165
1.0469208211143697
1.043010752688172
1.0391006842619743
1.0361681329423265
1.0332355816226784
1.0303030303030305
1.0273704789833822
1.0273704789833822
1.0273704789833822
1.024437927663734
1.021505376344086
1.018572825024438
1.0156402737047898
1.0127077223851415
1.0097751710654936
1.0068426197458455
1.0048875855327468
1.002932551319648
1.0019550342130987
1.0048875855327468
1.0097751710654936
1.0127077223851415
1.0146627565982405
1.0166177908113392
1.018572825024438
1.021505376344086
1.0273704789833822
1.040078201368524
1.064516129032258
1.1055718475073313
1.1681329423264908
1.2551319648093842
1.3479960899315735
1.4516129032258065
1.5835777126099706
1.732160312805474
1.8885630498533723
2.04594330400782
2.196480938416422
2.335288367546432
2.4594330400782014
2.567937438905181
2.6608015640273703
2.740957966764418
2.7976539589442817
2.8396871945259043
2.881720430107527
2.919843597262952
2.951124144672532
2.973607038123167
2.98435972629521
2.98435972629521
2.970674486803519
2.9442815249266863
2.9042033235581624
2.8533724340175954
2.793743890518084
2.7331378299120237
2.670576735092864
2.603128054740958
2.535679374389052
2.4701857282502444
2.4086021505376345
2.3528836754643208
2.303030303030303
2.2580645161290325
2.217986314760508
2.1808406647116323
2.144672531769306
2.110459433040078
2.0762463343108504
2.0391006842619745
2.0009775171065494
1.962854349951124
1.9227761485826005
1.8836754643206255
1.844574780058651
1.8064516129032255
1.7683284457478006
1.7311827956989247
1.6950146627565983
1.6598240469208212
1.629521016617791
1.6021505376344083
1.573802541544477
1.547409579667644
1.521016617790811
1.4946236559139785
1.469208211143695
1.444770283479961
1.4203323558162269
1.3958944281524928
1.3734115347018572
1.3528836754643203
1.3372434017595307
1.324535679374389
1.3088954056695992
1.2932551319648091
1.2766373411534702
1.2590420332355816
1.2424242424242424
1.2267839687194526
1.2121212121212122
1.1974584555229717
1.1827956989247312
1.1681329423264908
1.1544477028347997
1.1456500488758554
1.13880742913001
1.1300097751710656
1.1202346041055715
1.110459433040078
1.099706744868035
1.088954056695992
1.0772238514173995
1.0664711632453567
1.0576735092864125
1.050830889540567
1.04594330400782
1.0449657869012707
1.04594330400782
1.0449657869012707
1.043010752688172
1.0410557184750733
1.0381231671554252
1.035190615835777
1.032258064516129
1.029325513196481
1.0263929618768328
1.024437927663734
1.0224828934506354
1.0205278592375366
1.0205278592375366
1.0234604105571847
1.024437927663734
1.0254154447702837
1.0273704789833822
1.0303030303030305
1.0332355816226784
1.0361681329423265
1.0391006842619743
1.043010752688172
1.0478983382209188
1.0586510263929618
1.0762463343108504
1.1036168132942326
1.1485826001955035
1.2130987292277615
1.300097751710655
1.4086021505376345
1.5366568914956011
1.6774193548387095
1.825024437927664
1.9736070381231672
2.118279569892473
2.2531769305962857
2.375366568914956
2.469208211143695
2.5434995112414467
2.616813294232649
2.6832844574780057
2.740957966764418
2.789833822091887
2.8269794721407626
2.854349951124145
2.870967741935484
2.875855327468231
2.868035190615836
2.849462365591398
2.8211143695014664
2.782991202346041
2.7341153470185726
2.67644183773216
2.610948191593353
2.541544477028348
2.4711632453567938
2.4027370478983383
2.3391984359726297
2.281524926686217
2.2297165200391005
2.1847507331378297
2.144672531769306
2.1114369501466275
2.081133919843597
2.050830889540567
2.0175953079178885
1.9843597262952104
1.949169110459433
1.911045943304008
1.871945259042033
1.8318670576735088
1.7927663734115349
1.7546432062561097
1.7174975562072337
1.6852394916911049
1.656891495601173
1.6256109481915937
1.5943304007820136
1.5610948191593352
1.5288367546432062
1.4975562072336266
1.4682306940371457
1.439882697947214
1.412512218963832
1.3861192570869991
1.3607038123167154
1.3391984359726294
1.3225806451612905
1.3098729227761483
1.295210166177908
1.2776148582600195
1.260019550342131
1.241446725317693
1.2228739002932552
1.2052785923753666
1.1886608015640274
1.1730205278592376
1.1583577712609971
1.1456500488758554
1.1368523949169111
1.1300097751710656
1.118279569892473
1.1036168132942326
1.0879765395894427
1.0733137829912025
1.06158357771261
1.0498533724340176
1.040078201368524
1.0312805474095796
1.024437927663734
1.0195503421309873
1.018572825024438
1.0195503421309873
1.0166177908113392
1.0117302052785924
1.0048875855327468
0.997067448680352
0.9902248289345064
0.9853372434017597
0.981427174975562
0.978494623655914
0.975562072336266
0.9726295210166178
0.9696969696969696
0.9696969696969696
0.9706744868035192
0.9696969696969696
0.967741935483871
0.9667644183773216
0.9657869012707724
0.9657869012707724
0.9657869012707724
0.9657869012707724
0.967741935483871
0.9706744868035192
0.9765395894428152
0.9882697947214076
1.0097751710654936
1.0439882697947214
1.0948191593352885
1.166177908113392
1.2609970674486803
1.3792766373411536
1.517106549364614
1.667644183773216
1.8240469208211143
1.978494623655914
2.126099706744868
2.26197458455523
2.367546432062561
2.452590420332356
2.5386119257087
2.618768328445748
2.6881720430107525
2.747800586510264
2.7966764418377323
2.835777126099707
2.865102639296188
2.884652981427175
2.89345063538612
2.89247311827957
2.8797653958944283
2.8563049853372435
2.8240469208211145
2.780058651026393
2.7262952101661777
2.664711632453568
2.5972629521016617
2.5268817204301075
2.4574780058651027
2.391006842619746
2.3304007820136854
2.2766373411534704
2.2297165200391005
2.189638318670577
2.155425219941349
2.1221896383186705
2.088954056695992
2.0557184750733137
2.0205278592375366
1.9843597262952104
1.9472140762463344
1.9100684261974583
1.871945259042033
1.8328445747800584
1.793743890518084
1.7595307917888563
1.729227761485826
1.6959921798631477
1.6627565982404693
1.629521016617791
1.598240469208211
1.56891495601173
1.541544477028348
1.5161290322580645
1.4916911045943304
1.4672531769305963
1.4437927663734116
1.4213098729227762
1.4027370478983383
1.3861192570869991
1.3665689149560116
1.3479960899315735
1.3304007820136852
1.3128054740957966
1.2942326490713587
1.2746823069403714
1.2561094819159335
1.238514173998045
1.2218963831867058
1.2052785923753666
1.1935483870967742
1.1837732160312806
1.1720430107526882
1.1593352883675463
1.147605083088954
1.1358748778103618
1.1241446725317692
1.1124144672531768
1.1006842619745845
1.088954056695992
1.078201368523949
1.067448680351906
1.0576735092864125
1.0518084066471165
1.0488758553274682
1.0449657869012707
1.0420332355816226
1.0391006842619743
1.0361681329423265
1.0332355816226784
1.0303030303030305
1.0273704789833822
1.024437927663734
1.021505376344086
1.018572825024438
1.018572825024438
1.0195503421309873
1.018572825024438
1.0166177908113392
1.0146627565982405
1.0127077223851415
1.010752688172043
1.010752688172043
1.0117302052785924
1.0127077223851415
1.013685239491691
1.0156402737047898
1.018572825024438
1.0234604105571847
1.0312805474095796
1.0420332355816226
1.0596285434995112
1.088954056695992
1.1348973607038124
1.2023460410557183
1.2932551319648091
1.4066471163245358
1.5395894428152492
1.686217008797654
1.839687194525904
1.9736070381231672
2.0948191593352883
2.222873900293255
2.347018572825025
2.4613880742913
2.563049853372434
2.6510263929618767
2.7262952101661777
2.789833822091887
2.8426197458455524
2.8856304985337244
2.918866080156403
2.9423264907135875
2.951124144672532
2.9472140762463344
2.9374389051808407
2.918866080156403
2.8905180840664717
2.850439882697948
2.7996089931573804
2.7390029325513194
2.6715542521994133
2.60019550342131
2.5288367546432062
2.4613880742913
2.4027370478983383
2.3519061583577714
2.303030303030303
2.259042033235582
2.219941348973607
2.182795698924731
2.146627565982405
2.110459433040078
2.074291300097752
2.038123167155425
2.0
1.962854349951124
1.9237536656891496
1.8875855327468232
1.8533724340175952
1.8172043010752688
1.780058651026393
1.7429130009775171
1.7057673509286413
1.6715542521994136
1.6392961876832846
1.608993157380254
1.5796676441837731
1.5493646138807429
1.521994134897361
1.499511241446725
1.4809384164222874
1.4604105571847508
1.4389051808406648
1.418377321603128
1.3978494623655917
1.3773216031280548
1.356793743890518
1.3372434017595307
1.3186705767350928
1.3010752688172045
1.2834799608993157
1.2658846529814272
1.252199413489736
1.2404692082111437
1.227761485826002
1.2140762463343109
1.1994134897360704
1.1837732160312806
1.1691104594330402
1.155425219941349
1.142717497556207
1.130987292277615
1.118279569892473
1.1055718475073313
1.096774193548387
1.0899315738025417
1.0801564027370478
1.0694037145650048
1.0596285434995112
1.050830889540567
1.0420332355816226
1.0332355816226784
1.024437927663734
1.0166177908113392
1.0087976539589445
1.0019550342130987
1.0
0.9990224828934506
0.9960899315738024
0.9921798631476052
0.9872922776148584
0.9824046920821116
0.978494623655914
0.975562072336266
0.9726295210166178
0.9696969696969696
0.967741935483871
0.9667644183773216
0.9657869012707724
0.967741935483871
0.9696969696969696
0.9696969696969696
0.967741935483871
0.9667644183773216
0.9706744868035192
0.9912023460410556
1.0283479960899315
1.0762463343108504
1.1407624633431086
1.227761485826002
1.3362658846529814
1.4457478005865103
1.5591397849462365
1.6950146627565983
1.8406647116324533
1.988269794721408
2.129032258064516
2.2580645161290325
2.3734115347018574
2.4731182795698925
2.558162267839687
2.63049853372434
2.6911045943304006
2.740957966764418
2.773216031280548
2.793743890518084
2.812316715542522
2.825024437927664
2.8289345063538613
2.823069403714565
2.8054740957966766
2.776148582600196
2.7341153470185726
2.681329423264907
2.618768328445748
2.549364613880743
2.4838709677419355
2.423264907135875
2.361681329423265
2.303030303030303
2.251221896383187
2.2052785923753664
2.166177908113392
2.1309872922776147
2.0977517106549364
2.067448680351906
2.0361681329423265
2.003910068426197
1.970674486803519
1.93841642228739
1.906158357771261
1.8699902248289344
1.8328445747800584
1.7956989247311828
1.758553274682307
1.7223851417399805
1.686217008797654
1.6520039100684265
1.619745845552297
1.5884652981427174
1.5581622678396871
1.533724340175953
1.5131964809384164
1.4916911045943304
1.469208211143695
1.4467253176930597
1.426197458455523
1.404692082111437
1.3841642228739004
1.364613880742913
1.3450635386119256
1.3264907135874875
1.3088954056695992
1.29227761485826
1.2805474095796676
1.270772238514174
1.2590420332355816
1.2453567937438903
1.2316715542521994
1.217008797653959
1.2023460410557183
1.1867057673509287
1.1710654936461389
1.1573802541544478
1.1436950146627567
1.130987292277615
1.1221896383186705
1.1163245356793745
1.1094819159335287
1.1016617790811338
1.093841642228739
1.086021505376344
1.078201368523949
1.0703812316715542
1.0635386119257086
1.056695992179863
1.050830889540567
1.04594330400782
1.040078201368524
1.0381231671554252
1.0381231671554252
1.0371456500488758
1.035190615835777
1.0332355816226784
1.0303030303030305
1.0273704789833822
1.024437927663734
1.021505376344086
1.018572825024438
1.0156402737047898
1.0127077223851415
1.0127077223851415
1.0146627565982405
1.013685239491691
1.0117302052785924
1.010752688172043
1.0117302052785924
1.013685239491691
1.0166177908113392
1.0195503421309873
1.0234604105571847
1.029325513196481
1.040078201368524
1.0586510263929618
1.086021505376344
1.1241446725317692
1.1827956989247312
1.2658846529814272
1.3734115347018572
1.501466275659824
1.6471163245356797
1.804496578690127
1.964809384164223
2.1192570869990224
2.2639296187683287
2.3949169110459434
2.496578690127077
2.576735092864125
2.656891495601173
2.732160312805474
2.798631476050831
2.8563049853372435
2.9042033235581624
2.9423264907135875
2.9716520039100685
2.992179863147605
3.002932551319648
3.0019550342130987
2.9902248289345064
2.9667644183773216
2.932551319648094
2.8885630498533725
2.833822091886608
2.7702834799608995
2.7008797653958942
2.6295210166177907
2.560117302052786
2.493646138807429
2.4330400782013686
2.3792766373411536
2.3313782991202348
2.291300097751711
2.2561094819159337
2.220918866080156
2.185728250244379
2.150537634408602
2.115347018572825
2.0791788856304985
2.042033235581622
2.002932551319648
1.9608993157380252
1.9188660801564028
1.8778103616813293
1.8387096774193548
1.804496578690127
1.7732160312805474
1.7390029325513197
1.704789833822092
1.6715542521994136
1.640273704789834
1.6099706744868034
1.5806451612903225
1.552297165200391
1.525904203323558
1.500488758553275
1.47702834799609
1.4594330400782014
1.444770283479961
1.4281524926686218
1.4105571847507332
1.3919843597262953
1.3734115347018572
1.3558162267839686
1.33822091886608
1.3206256109481915
1.303030303030303
1.2864125122189638
1.270772238514174
1.2551319648093842
1.2434017595307918
1.2326490713587488
1.2189638318670577
1.2052785923753666
1.1925708699902249
1.1798631476050832
1.1681329423264908
1.1564027370478984
1.144672531769306
1.1329423264907137
1.121212121212121
1.1094819159335287
1.1026392961876832
1.0987292277614855
1.0948191593352885
1.0899315738025417
1.0840664711632453
1.078201368523949
1.0713587487781036
1.0654936461388074
1.0606060606060606
1.056695992179863
1.053763440860215
1.0518084066471165
1.0527859237536656
1.0547409579667644
1.053763440860215
1.053763440860215
1.053763440860215
1.0518084066471165
1.0498533724340176
1.0469208211143697
1.04594330400782
1.04594330400782
1.0469208211143697
1.0488758553274682
1.050830889540567
1.053763440860215
1.056695992179863
1.0576735092864125
1.0596285434995112
1.064516129032258
1.075268817204301
1.0977517106549364
1.1358748778103618
1.1945259042033236
1.2746823069403714
1.3773216031280548
1.498533724340176
1.6158357771260996
1.732160312805474
1.866080156402737
2.004887585532747
2.1407624633431084
2.2658846529814274
2.376344086021505
2.472140762463343
2.5532746823069403
2.622678396871945
2.6803519061583576
2.727272727272727
2.763440860215054
2.7810361681329425
2.78494623655914
2.7869012707722387
2.782991202346041
2.7702834799608995
2.7468230694037143
2.7116324535679373
2.665689149560117
2.610948191593353
2.548387096774193
2.4819159335288368
2.4144672531769307
2.35386119257087
2.300097751710655
2.247311827956989
2.19941348973607
2.158357771260997
2.1221896383186705
2.088954056695992
2.0576735092864125
2.0283479960899315
1.9980449657869013
1.967741935483871
1.935483870967742
1.902248289345064
