ppg
2.4408602150537635
2.5542521994134897
2.631476050830889
2.6881720430107525
2.718475073313783
2.721407624633431
2.701857282502444
2.662756598240469
2.6080156402737047
2.5405669599217986
2.4652981427174976
2.383186705767351
2.2961876832844577
2.207233626588465
2.1270772238514173
2.0518084066471163
1.9687194525904204
1.8836754643206255
1.7986314760508308
1.715542521994135
1.635386119257087
1.5581622678396871
1.4848484848484849
1.4164222873900294
1.3528836754643203
1.2942326490713587
1.2482893450635386
1.2101661779081134
1.1720430107526882
1.1378299120234605
1.1065493646138806
1.0811339198435972
1.0606060606060606
1.04594330400782
1.0371456500488758
1.0342130987292275
1.0371456500488758
1.0449657869012707
1.0557184750733135
1.0684261974584557
1.083088954056696
1.099706744868035
1.115347018572825
1.1290322580645162
1.141739980449658
1.1544477028347997
1.1652003910068427
1.173998044965787
1.181818181818182
1.1886608015640274
1.1925708699902249
1.195503421309873
1.1974584555229717
1.1964809384164223
1.1906158357771262
1.181818181818182
1.1691104594330402
1.1544477028347997
1.141739980449658
1.1348973607038124
1.141739980449658
1.1710654936461389
1.23069403714565
1.3264907135874875
1.4349951124144673
1.5610948191593352
1.7233626588465298
1.9071358748778104
2.0948191593352883
2.270772238514174
2.423264907135875
2.5464320625610948
2.634408602150537
2.687194525904203
2.70772238514174
2.7008797653958942
2.673509286412512
2.631476050830889
2.5718475073313782
2.4995112414467253
2.418377321603128
2.332355816226784
2.244379276637341
2.155425219941349
2.0664711632453567
1.978494623655914
1.8914956011730208
1.8074291300097751
1.7253176930596286
1.6549364613880744
1.5913978494623655
1.521994134897361
1.452590420332356
1.3841642228739004
1.3206256109481915
1.262952101661779
1.2121212121212122
1.1671554252199414
1.1280547409579669
1.0948191593352885
1.0654936461388074
1.0449657869012707
1.0303030303030305
1.013685239491691
0.9980449657869012
0.9853372434017597
0.9765395894428152
0.9726295210166178
0.9726295210166178
0.9794721407624634
0.9902248289345064
1.0039100684261977
1.018572825024438
1.032258064516129
1.04594330400782
1.056695992179863
1.064516129032258
1.0684261974584557
1.0703812316715542
1.0703812316715542
1.0684261974584557
1.0654936461388074
1.0606060606060606
1.0527859237536656
1.0420332355816226
1.0273704789833822
1.0146627565982405
1.0019550342130987
0.9824046920821116
0.9618768328445748
0.946236559139785
0.9452590420332356
0.9667644183773216
1.0195503421309873
1.1085043988269794
1.2336265884652982
1.391006842619746
1.5718475073313782
1.7624633431085044
1.927663734115347
2.070381231671554
2.2111436950146626
2.332355816226784
2.4252199413489737
2.4858260019550342
2.515151515151515
2.5161290322580645
2.493646138807429
2.4516129032258065
2.3949169110459434
2.3274682306940373
2.26197458455523
2.196480938416422
2.1221896383186705
2.0439882697947214
1.963831867057673
1.8836754643206255
1.804496578690127
1.7282502443792769
1.653958944281525
1.581622678396872
1.512218963831867
1.444770283479961
1.4066471163245358
1.3851417399804498
1.3450635386119256
1.2991202346041055
1.252199413489736
1.2072336265884651
1.1652003910068427
1.1280547409579669
1.0948191593352885
1.0654936461388074
1.040078201368524
1.0195503421309873
1.002932551319648
0.9941348973607038
0.9921798631476052
0.9931573802541545
0.9980449657869012
1.0068426197458455
1.0195503421309873
1.035190615835777
1.0527859237536656
1.0713587487781036
1.0899315738025417
1.10752688172043
1.1241446725317692
1.1407624633431086
1.1564027370478984
1.1720430107526882
1.1867057673509287
1.1994134897360704
1.2111436950146628
1.2209188660801564
1.2267839687194526
1.2287390029325511
1.2258064516129032
1.2209188660801564
1.2189638318670577
1.224828934506354
1.241446725317693
1.2746823069403714
1.3343108504398826
1.4252199413489737
1.5464320625610948
1.6959921798631477
1.8641251221896384
2.040078201368524
2.2111436950146626
2.367546432062561
2.5004887585532747
2.603128054740958
2.668621700879765
2.7038123167155423
2.719452590420332
2.713587487781036
2.6881720430107525
2.6471163245356792
2.592375366568915
2.527859237536657
2.4565004887585533
2.3812316715542523
2.304007820136853
2.225806451612903
2.146627565982405
2.0772238514174
2.0127077223851417
1.9423264907135875
1.868035190615836
1.7927663734115349
1.718475073313783
1.6471163245356797
1.5796676441837731
1.517106549364614
1.4594330400782014
1.4076246334310851
1.3616813294232648
1.3264907135874875
1.2981427174975562
1.267839687194526
1.238514173998045
1.2130987292277615
1.1925708699902249
1.1779081133919844
1.1691104594330402
1.1671554252199414
1.1730205278592376
1.1857282502443791
1.203323558162268
1.2238514173998043
1.2453567937438903
1.267839687194526
1.2903225806451613
1.3118279569892473
1.3313782991202343
1.348973607038123
1.364613880742913
1.3792766373411536
1.3919843597262953
1.4027370478983383
1.4115347018572826
1.4173998044965788
1.4213098729227762
1.4222873900293256
1.418377321603128
1.4105571847507332
1.401759530791789
1.396871945259042
1.4056695992179864
1.4349951124144673
1.4936461388074291
1.587487781036168
1.7165200391006843
1.87683284457478
2.058651026392962
2.2238514173998043
2.3743890518084068
2.533724340175953
2.6803519061583576
2.8025415444770285
2.8944281524926687
2.9530791788856305
2.9804496578690127
2.979472140762464
2.95405669599218
2.9100684261974585
2.850439882697948
2.7869012707722387
2.719452590420332
2.641251221896383
2.558162267839687
2.472140762463343
2.3851417399804498
2.2981427174975564
2.212121212121212
2.1270772238514173
2.0439882697947214
1.9618768328445748
1.8807429130009776
1.801564027370479
1.7350928641251222
1.6764418377321604
1.6138807429130009
1.552297165200391
1.4946236559139785
1.4418377321603129
1.393939393939394
1.3528836754643203
1.3186705767350928
1.289345063538612
1.2649071358748778
1.24633431085044
1.2355816226783969
1.2316715542521994
1.2316715542521994
1.2365591397849462
1.24633431085044
1.260019550342131
1.2766373411534702
1.2942326490713587
1.3118279569892473
1.3284457478005864
1.343108504398827
1.3548387096774193
1.364613880742913
1.3734115347018572
1.3812316715542523
1.3870967741935485
1.391006842619746
1.393939393939394
1.3949169110459434
1.393939393939394
1.3900293255131966
1.3812316715542523
1.3685239491691104
1.3519061583577712
1.3343108504398826
1.3225806451612905
1.3206256109481915
1.3333333333333333
1.370478983382209
1.4418377321603129
1.5503421309872922
1.696969696969697
1.8758553274682308
2.0733137829912023
2.2766373411534704
2.4711632453567938
2.643206256109482
2.7839687194525906
2.877810361681329
2.935483870967742
2.972629521016618
2.98435972629521
2.973607038123167
2.9423264907135875
2.8963831867057674
2.8396871945259043
2.7751710654936463
2.704789833822092
2.6285434995112413
2.549364613880743
2.4760508308895406
2.404692082111437
2.3274682306940373
2.247311827956989
2.167155425219941
2.0869990224828934
2.0087976539589443
1.932551319648094
1.858260019550342
1.7859237536656891
1.7165200391006843
1.6500488758553276
1.5865102639296187
1.533724340175953
1.4887585532746823
1.4437927663734116
1.401759530791789
1.364613880742913
1.3343108504398826
1.3118279569892473
1.295210166177908
1.2825024437927663
1.273704789833822
1.267839687194526
1.2649071358748778
1.2658846529814272
1.2697947214076246
1.2746823069403714
1.2825024437927663
1.2913000977517106
1.2991202346041055
1.305962854349951
1.3118279569892473
1.3147605083088951
1.313782991202346
1.310850439882698
1.305962854349951
1.303030303030303
1.3010752688172045
1.2961876832844574
1.2903225806451613
1.2834799608993157
1.2746823069403714
1.2639296187683284
1.2512218963831867
1.2375366568914956
1.2267839687194526
1.2258064516129032
1.2443792766373412
1.29227761485826
1.3577712609970674
1.447702834799609
1.581622678396872
1.7497556207233629
1.9393939393939397
2.136852394916911
2.324535679374389
2.490713587487781
2.6285434995112413
2.732160312805474
2.801564027370479
2.838709677419355
2.84652981427175
2.833822091886608
2.8044965786901277
2.7614858260019552
2.70772238514174
2.6451612903225805
2.576735092864125
2.505376344086021
2.4301075268817205
2.3528836754643208
2.272727272727273
2.1915933528836757
2.1094819159335287
2.0361681329423265
1.9687194525904204
1.895405669599218
1.8211143695014664
1.747800586510264
1.6764418377321604
1.608993157380254
1.5454545454545454
1.4858260019550342
1.4291300097751711
1.3763440860215057
1.3284457478005864
1.29227761485826
1.262952101661779
1.2326490713587488
1.2052785923753666
1.1827956989247312
1.1652003910068427
1.1534701857282503
1.147605083088954
1.147605083088954
1.152492668621701
1.1612903225806452
1.173998044965787
1.187683284457478
1.2023460410557183
1.2179863147605083
1.2326490713587488
1.24633431085044
1.2580645161290325
1.2697947214076246
1.2805474095796676
1.2903225806451613
1.2981427174975562
1.303030303030303
1.3049853372434017
1.3049853372434017
1.3049853372434017
1.303030303030303
1.2961876832844574
1.2864125122189638
1.2776148582600195
1.2766373411534702
1.2903225806451613
1.327468230694037
1.3958944281524928
1.498533724340176
1.6334310850439884
1.7947214076246334
1.9726295210166176
2.1309872922776147
2.271749755620724
2.418377321603128
2.550342130987292
2.6578690127077222
2.735092864125122
2.782013685239492
2.7996089931573804
2.792766373411535
2.766373411534702
2.7233626588465296
2.668621700879765
2.610948191593353
2.5513196480938416
2.482893450635386
2.409579667644184
2.333333333333333
2.2551319648093844
2.175953079178885
2.096774193548387
2.016617790811339
1.9374389051808407
1.8592375366568916
1.782991202346041
1.710654936461388
1.6490713587487782
1.595307917888563
1.5395894428152492
1.4848484848484849
1.434017595307918
1.3870967741935485
1.3450635386119256
1.3079178885630498
1.2756598240469208
1.2482893450635386
1.2267839687194526
1.2111436950146628
1.2043010752688172
1.203323558162268
1.2043010752688172
1.2101661779081134
1.2209188660801564
1.2355816226783969
1.252199413489736
1.2688172043010753
1.2864125122189638
1.3020527859237536
1.3157380254154447
1.3284457478005864
1.3411534701857282
1.3528836754643203
1.3626588465298142
1.3714565004887584
1.3782991202346042
1.3841642228739004
1.388074291300098
1.3890518084066472
1.3851417399804498
1.3773216031280548
1.3665689149560116
1.3548387096774193
1.3499511241446724
1.35386119257087
1.3743890518084063
1.4213098729227762
1.5024437927663734
1.6207233626588464
1.7732160312805474
1.951124144672532
2.1436950146627565
2.3362658846529816
2.5161290322580645
2.6715542521994133
2.795698924731183
2.884652981427175
2.935483870967742
2.9550342130987293
2.956011730205278
2.936461388074292
2.8993157380254155
2.8475073313782997
2.78494623655914
2.713587487781036
2.635386119257087
2.5542521994134897
2.4711632453567938
2.388074291300098
2.312805474095797
2.242424242424242
2.166177908113392
2.0869990224828934
2.006842619745845
1.927663734115347
1.8494623655913975
1.775171065493646
1.7038123167155426
1.6344086021505375
1.56891495601173
1.5083088954056696
1.452590420332356
1.4086021505376345
1.3724340175953078
1.335288367546432
1.300097751710655
1.2697947214076246
1.2434017595307918
1.2228739002932552
1.2082111436950147
1.1994134897360704
1.195503421309873
1.1974584555229717
1.2023460410557183
1.2111436950146628
1.2218963831867058
1.2336265884652982
1.2453567937438903
1.2561094819159335
1.2658846529814272
1.2746823069403714
1.281524926686217
1.2864125122189638
1.2903225806451613
1.29227761485826
1.2932551319648091
1.2932551319648091
1.2942326490713587
1.295210166177908
1.2932551319648091
1.2883675464320623
1.2795698924731185
1.2668621700879763
1.252199413489736
1.238514173998045
1.2326490713587488
1.2434017595307918
1.2805474095796676
1.3499511241446724
1.434017595307918
1.5395894428152492
1.6852394916911049
1.8592375366568916
2.0449657869012707
2.2297165200391005
2.39980449657869
2.5454545454545454
2.66177908113392
2.7468230694037143
2.7996089931573804
2.823069403714565
2.8211143695014664
2.7996089931573804
2.7624633431085046
2.7126099706744866
2.6510263929618767
2.581622678396872
2.50733137829912
2.429130009775171
2.3489736070381237
2.267839687194526
2.1867057673509285
2.1065493646138806
2.026392961876833
1.956989247311828
1.89247311827957
1.823069403714565
1.7517106549364614
1.6803519061583578
1.608993157380254
1.5405669599217986
1.474095796676442
1.4134897360703813
1.3577712609970674
1.3088954056695992
1.2668621700879763
1.2355816226783969
1.2121212121212122
1.187683284457478
1.1652003910068427
1.2267839687194526
1.2394916911045943
1.2746823069403714
1.3411534701857282
1.444770283479961
1.587487781036168
1.7653958944281525
1.9657869012707725
2.175953079178885
2.35386119257087
2.504398826979472
2.652003910068426
2.7781036168132944
2.8729227761485827
2.932551319648094
2.959921798631476
2.9589442815249267
2.9335288367546437
2.889540566959922
2.8299120234604107
2.758553274682307
2.687194525904203
2.613880742913001
2.532746823069404
2.44672531769306
2.358748778103617
2.269794721407625
2.179863147605083
2.090909090909091
2.002932551319648
1.9159335288367547
1.83088954056696
1.747800586510264
1.6686217008797657
1.6021505376344083
1.544477028347996
1.482893450635386
1.423264907135875
1.367546432062561
1.3157380254154447
1.270772238514174
1.2316715542521994
1.1994134897360704
1.1720430107526882
1.1515151515151516
1.1378299120234605
1.1319648093841643
1.133919843597263
1.1407624633431086
1.152492668621701
1.1681329423264908
1.1867057673509287
1.206256109481916
1.224828934506354
1.2424242424242424
1.2570869990224829
1.267839687194526
1.2746823069403714
1.2776148582600195
1.2795698924731185
1.2805474095796676
1.2795698924731185
1.2776148582600195
1.2756598240469208
1.2727272727272727
1.2668621700879763
1.2580645161290325
1.24633431085044
1.2297165200391007
1.209188660801564
1.187683284457478
1.1730205278592376
1.1700879765395895
1.1837732160312806
1.2258064516129032
1.305962854349951
1.4291300097751711
1.5923753665689149
1.7869012707722385
2.0
2.2140762463343107
2.41544477028348
2.590420332355816
2.730205278592375
2.822091886608016
2.87683284457478
2.9100684261974585
2.918866080156403
2.9042033235581624
2.8690127077223853
2.8181818181818183
2.755620723362659
2.6832844574780057
2.6041055718475072
2.5210166177908118
2.436950146627566
2.3597262952101663
2.2873900293255134
2.209188660801564
2.1280547409579667
2.0449657869012707
1.9618768328445748
1.878787878787879
1.7956989247311828
1.715542521994135
1.6392961876832846
1.565982404692082
1.4975562072336266
1.434017595307918
1.3841642228739004
1.3421309872922775
1.2991202346041055
1.2561094819159335
1.217008797653959
1.1827956989247312
1.155425219941349
1.1348973607038124
1.1231671554252198
1.118279569892473
1.1202346041055715
1.1290322580645162
1.141739980449658
1.1573802541544478
1.1730205278592376
1.1886608015640274
1.203323558162268
1.2160312805474096
1.2267839687194526
1.2365591397849462
1.2443792766373412
1.2512218963831867
1.2570869990224829
1.260019550342131
1.2609970674486803
1.2609970674486803
1.260019550342131
1.2541544477028348
1.2443792766373412
1.2326490713587488
1.217008797653959
1.198435972629521
1.1779081133919844
1.1593352883675463
1.1495601173020529
1.1573802541544478
1.1925708699902249
1.2473118279569892
1.3304007820136852
1.458455522971652
1.6265884652981428
1.8240469208211143
2.037145650048876
2.249266862170088
2.443792766373412
2.608993157380254
2.7370478983382207
2.825024437927664
2.8729227761485827
2.8856304985337244
2.8729227761485827
2.841642228739003
2.793743890518084
2.732160312805474
2.66177908113392
2.58455522971652
2.5024437927663734
2.4164222873900294
2.3274682306940373
2.2375366568914954
2.146627565982405
2.0547409579667644
1.9745845552297163
1.900293255131965
1.8191593352883677
1.7380254154447703
1.6588465298142718
1.581622678396872
1.5073313782991202
1.436950146627566
1.370478983382209
1.3088954056695992
1.252199413489736
1.2003910068426198
1.1612903225806452
1.1329423264907137
1.10752688172043
1.086021505376344
1.0713587487781036
1.0625610948191593
1.0596285434995112
1.06158357771261
1.067448680351906
1.0762463343108504
1.0879765395894427
1.1006842619745845
1.1133919843597262
1.1280547409579669
1.142717497556207
1.1573802541544478
1.1700879765395895
1.181818181818182
1.1915933528836755
1.1974584555229717
1.2003910068426198
1.1994134897360704
1.195503421309873
1.1896383186705768
1.181818181818182
1.1759530791788857
1.1700879765395895
1.160312805474096
1.1456500488758554
1.1280547409579669
1.1094819159335287
1.096774193548387
1.0977517106549364
1.1202346041055715
1.1759530791788857
1.2697947214076246
1.401759530791789
1.5669599217986314
1.7282502443792769
1.8875855327468232
2.067448680351906
2.242424242424242
2.3978494623655915
2.52297165200391
2.611925708699902
2.6666666666666665
2.689149560117302
2.6832844574780057
2.653958944281525
2.606060606060606
2.5513196480938416
2.489736070381232
2.4173998044965788
2.3382209188660803
2.254154447702835
2.167155425219941
2.078201368523949
1.9824046920821117
1.8826979472140764
1.7888563049853372
1.6989247311827955
1.6129032258064515
1.5298142717497556
1.4594330400782014
1.396871945259042
1.3304007820136852
1.2649071358748778
1.2023460410557183
1.1436950146627567
1.088954056695992
1.0391006842619743
0.9941348973607038
0.9560117302052786
0.9247311827956988
0.8993157380254154
0.8836754643206256
0.8748778103616813
0.8680351906158358
0.8641251221896383
0.8641251221896383
0.8670576735092864
0.8729227761485826
0.8826979472140762
0.8944281524926686
0.9090909090909092
0.9257086999022482
0.9423264907135877
0.9579667644183774
0.9745845552297164
0.989247311827957
1.0019550342130987
1.0117302052785924
1.018572825024438
1.0224828934506354
1.0234604105571847
1.0224828934506354
1.0195503421309873
1.013685239491691
1.0048875855327468
0.9941348973607038
0.9843597262952102
0.9745845552297164
0.9608993157380256
0.9491691104594332
0.946236559139785
0.9608993157380256
1.0019550342130987
1.0762463343108504
1.1867057673509287
1.332355816226784
1.5053763440860215
1.694037145650049
1.8866080156402736
2.047898338220919
2.1818181818181817
2.3088954056695994
2.412512218963832
2.486803519061584
2.5288367546432062
2.541544477028348
2.529814271749756
2.4975562072336266
2.449657869012708
2.389051808406647
2.3196480938416424
2.2531769305962857
2.185728250244379
2.1094819159335287
2.029325513196481
1.9472140762463344
1.8641251221896384
1.7820136852394917
1.7018572825024438
1.6236559139784943
1.5483870967741935
1.4750733137829912
1.4037145650048877
1.335288367546432
1.2795698924731185
1.2326490713587488
1.1857282502443791
1.1407624633431086
1.099706744868035
1.0635386119257086
1.032258064516129
1.0058651026392962
0.9843597262952102
0.967741935483871
0.9560117302052786
0.9501466275659824
0.9521016617790812
0.9608993157380256
0.9736070381231672
0.9902248289345064
1.0097751710654936
1.029325513196481
1.0488758553274682
1.0684261974584557
1.086021505376344
1.1026392961876832
1.118279569892473
1.1329423264907137
1.1456500488758554
1.1573802541544478
1.1671554252199414
1.173998044965787
1.1788856304985338
1.1798631476050832
1.1779081133919844
1.1720430107526882
1.1612903225806452
1.1495601173020529
1.1397849462365592
1.1378299120234605
1.152492668621701
1.181818181818182
1.2346041055718475
1.327468230694037
1.458455522971652
1.624633431085044
1.8172043010752688
2.022482893450636
2.2248289345063537
2.4115347018572826
2.570869990224829
2.6959921798631474
2.782991202346041
2.834799608993157
2.8533724340175954
2.84652981427175
2.820136852394917
2.777126099706745
2.719452590420332
2.650048875855328
2.5718475073313782
2.4858260019550342
2.3949169110459434
2.300097751710655
2.204301075268817
2.10850439882698
2.0254154447702835
1.949169110459433
1.8670576735092863
1.7839687194525904
1.7018572825024438
1.6226783968719452
1.547409579667644
1.4750733137829912
1.4076246334310851
1.3440860215053765
1.284457478005865
1.23069403714565
1.1886608015640274
1.1564027370478984
1.1251221896383188
1.0987292277614855
1.0801564027370478
1.0694037145650048
1.0664711632453567
1.0703812316715542
1.0801564027370478
1.093841642228739
1.1085043988269794
1.1231671554252198
1.1378299120234605
1.1515151515151516
1.164222873900293
1.1749755620723363
1.1857282502443791
1.1964809384164223
1.206256109481916
1.2160312805474096
1.2238514173998043
1.2287390029325511
1.23069403714565
1.2297165200391007
1.227761485826002
1.2258064516129032
1.2238514173998043
1.217008797653959
1.2072336265884651
1.1945259042033236
1.1798631476050832
1.1671554252199414
1.1622678396871946
1.1749755620723363
1.2140762463343109
1.2903225806451613
1.409579667644184
1.5728250244379276
1.739980449657869
1.9149560117302051
2.1251221896383186
2.343108504398827
2.549364613880743
2.7282502443792764
2.8699902248289346
2.9716520039100685
3.032258064516129
3.0557184750733137
3.048875855327468
3.0175953079178885
2.972629521016618
2.916911045943304
2.8484848484848486
2.771260997067449
2.6881720430107525
2.601173020527859
2.5131964809384164
2.4242424242424243
2.335288367546432
2.24633431085044
2.157380254154448
2.069403714565005
1.9824046920821117
1.906158357771261
1.835777126099707
1.758553274682307
1.6803519061583578
1.6041055718475072
1.5317693059628543
1.4643206256109482
1.404692082111437
1.3528836754643203
1.3079178885630498
1.2697947214076246
1.238514173998045
1.2179863147605083
1.203323558162268
1.1915933528836755
1.1827956989247312
1.1788856304985338
1.1808406647116323
1.1867057673509287
1.195503421309873
1.206256109481916
1.217008797653959
1.2267839687194526
1.2346041055718475
1.2394916911045943
1.2424242424242424
1.2424242424242424
1.238514173998045
1.23069403714565
1.219941348973607
1.2082111436950147
1.1964809384164223
1.1837732160312806
1.1720430107526882
1.160312805474096
1.147605083088954
1.1329423264907137
1.1202346041055715
1.1358748778103618
1.163245356793744
1.1720430107526882
1.1827956989247312
1.2121212121212122
1.2717497556207231
1.3665689149560116
1.499511241446725
1.6637341153470186
1.847507331378299
2.0391006842619745
2.222873900293255
2.36950146627566
2.482893450635386
2.5835777126099706
2.6578690127077222
2.7038123167155423
2.721407624633431
2.7145650048875853
2.687194525904203
2.643206256109482
2.587487781036168
2.52297165200391
2.4516129032258065
2.3822091886608017
2.314760508308896
2.241446725317693
2.163245356793744
2.0840664711632453
2.004887585532747
1.9257086999022484
1.847507331378299
1.7712609970674489
1.696969696969697
1.6256109481915937
1.555229716520039
1.487781036168133
1.43108504398827
1.3822091886608017
1.3294232649071358
1.2776148582600195
1.2287390029325511
1.1837732160312806
1.142717497556207
1.1055718475073313
1.0713587487781036
1.0410557184750733
1.0146627565982405
0.9931573802541545
0.9794721407624634
0.9716520039100685
0.9648093841642228
0.9608993157380256
0.959921798631476
0.9628543499511242
0.967741935483871
0.9745845552297164
0.9833822091886608
0.9931573802541545
1.002932551319648
1.013685239491691
1.0234604105571847
1.035190615835777
1.04594330400782
1.0547409579667644
1.0625610948191593
1.0684261974584557
1.072336265884653
1.0733137829912025
1.0713587487781036
1.0664711632453567
1.0576735092864125
1.0449657869012707
1.0332355816226784
1.0263929618768328
1.0273704789833822
1.040078201368524
1.0742913000977516
1.1378299120234605
1.2355816226783969
1.367546432062561
1.5288367546432062
1.7096774193548387
1.8973607038123168
2.0791788856304985
2.243401759530792
2.3822091886608017
2.4809384164222874
