ppg
1.672531769305963
1.608993157380254
1.544477028347996
1.4809384164222874
1.4193548387096775
1.3616813294232648
1.3069403714565004
1.2551319648093842
1.2072336265884651
1.164222873900293
1.1270772238514175
1.0957966764418376
1.0762463343108504
1.0654936461388074
1.0557184750733135
1.050830889540567
1.050830889540567
1.056695992179863
1.0664711632453567
1.0801564027370478
1.0977517106549364
1.1163245356793745
1.1368523949169111
1.1583577712609971
1.1788856304985338
1.198435972629521
1.2179863147605083
1.2365591397849462
1.2551319648093842
1.2727272727272727
1.2873900293255132
1.300097751710655
1.3098729227761483
1.3176930596285434
1.324535679374389
1.335288367546432
1.356793743890518
1.3870967741935485
1.4330400782013686
1.509286412512219
1.6177908113391983
1.7565982404692082
1.9188660801564028
2.0928641251221896
2.267839687194526
2.432062561094819
2.5777126099706744
2.6989247311827955
2.7947214076246336
2.857282502443793
2.8944281524926687
2.918866080156403
2.927663734115347
2.921798631476051
2.902248289345064
2.870967741935484
2.8289345063538613
2.7781036168132944
2.720430107526881
2.6578690127077222
2.590420332355816
2.5190615835777126
2.452590420332356
2.388074291300098
2.3167155425219943
2.242424242424242
2.166177908113392
2.088954056695992
2.0127077223851417
1.9374389051808407
1.8631476050830889
1.7898338220918866
1.718475073313783
1.6480938416422288
1.5894428152492668
1.5376344086021505
1.4809384164222874
1.4242424242424243
1.3695014662756595
1.3176930596285434
1.270772238514174
1.227761485826002
1.1906158357771262
1.160312805474096
1.1358748778103618
1.118279569892473
1.10752688172043
1.1055718475073313
1.1114369501466277
1.1202346041055715
1.1329423264907137
1.1495601173020529
1.1691104594330402
1.1896383186705768
1.2111436950146628
1.2326490713587488
1.2541544477028348
1.2746823069403714
1.2942326490713587
1.3118279569892473
1.3284457478005864
1.3440860215053765
1.3577712609970674
1.3685239491691104
1.3763440860215057
1.3822091886608017
1.3870967741935485
1.3958944281524928
1.4164222873900294
1.455522971652004
1.521016617790811
1.6177908113391983
1.7223851417399805
1.8406647116324533
1.991202346041056
2.158357771260997
2.3255131964809386
2.4809384164222874
2.616813294232649
2.7282502443792764
2.8132942326490715
2.8729227761485827
2.90811339198436
2.920821114369501
2.9159335288367547
2.8963831867057674
2.866080156402737
2.8260019550342133
2.776148582600196
2.719452590420332
2.656891495601173
2.589442815249267
2.517106549364614
2.442815249266862
2.366568914956012
2.2883675464320627
2.209188660801564
2.1388074291300097
2.072336265884653
1.9990224828934504
1.9237536656891496
1.847507331378299
1.7712609970674489
1.6959921798631477
1.6226783968719452
1.552297165200391
1.4838709677419355
1.4173998044965788
1.3548387096774193
1.3040078201368523
1.260019550342131
1.2130987292277615
1.1671554252199414
1.1241446725317692
1.086021505376344
1.0547409579667644
1.0303030303030305
1.0127077223851415
1.0009775171065494
0.9960899315738024
0.997067448680352
1.002932551319648
1.013685239491691
1.032258064516129
1.053763440860215
1.0742913000977516
1.0948191593352885
1.115347018572825
1.1348973607038124
1.1534701857282503
1.1700879765395895
1.1857282502443791
1.2003910068426198
1.2130987292277615
1.2258064516129032
1.2375366568914956
1.24633431085044
1.252199413489736
1.2561094819159335
1.260019550342131
1.270772238514174
1.295210166177908
1.3411534701857282
1.4164222873900294
1.52297165200391
1.6588465298142718
1.818181818181818
1.967741935483871
2.1094819159335287
2.2629521016617797
2.4115347018572826
2.5434995112414467
2.652003910068426
2.736070381231672
2.795698924731183
2.832844574780059
2.850439882697948
2.850439882697948
2.834799608993157
2.807429130009776
2.7722385141739982
2.727272727272727
2.675464320625611
2.616813294232649
2.5532746823069403
2.486803519061584
2.4173998044965788
2.345063538611926
2.270772238514174
2.1955034213098727
2.1192570869990224
2.043010752688172
1.9765395894428155
1.913978494623656
1.8455522971652003
1.775171065493646
1.7038123167155426
1.6344086021505375
1.565982404692082
1.499511241446725
1.435972629521017
1.375366568914956
1.3186705767350928
1.2658846529814272
1.224828934506354
1.1915933528836755
1.1573802541544478
1.1251221896383188
1.0987292277614855
1.0791788856304985
1.0654936461388074
1.0586510263929618
1.0586510263929618
1.0654936461388074
1.0772238514173995
1.0928641251221896
1.1114369501466277
1.1319648093841643
1.1534701857282503
1.1749755620723363
1.195503421309873
1.2150537634408602
1.2336265884652982
1.2512218963831867
1.267839687194526
1.2834799608993157
1.2981427174975562
1.3098729227761483
1.3186705767350928
1.3264907135874875
1.3333333333333333
1.3391984359726294
1.3509286412512218
1.3734115347018572
1.4164222873900294
1.4868035190615836
1.587487781036168
1.718475073313783
1.873900293255132
2.0449657869012707
2.218963831867057
2.3655913978494625
2.4887585532746823
2.6099706744868034
2.7155425219941347
2.798631476050831
2.859237536656892
2.897360703812317
2.913978494623656
2.913000977517106
2.8963831867057674
2.8670576735092865
2.8260019550342133
2.7751710654936463
2.7223851417399803
2.667644183773216
2.6050830889540566
2.5376344086021505
2.4672531769305963
2.3929618768328447
2.317693059628544
2.2404692082111435
2.1622678396871944
2.0840664711632453
2.004887585532747
1.9266862170087975
1.858260019550342
1.796676441837732
1.7302052785923754
1.6627565982404693
1.5943304007820136
1.5278592375366569
1.4633431085043989
1.401759530791789
1.3440860215053765
1.2913000977517106
1.241446725317693
1.1964809384164223
1.1583577712609971
1.1319648093841643
1.1143695014662756
1.0987292277614855
1.0879765395894427
1.083088954056696
1.0840664711632453
1.0899315738025417
1.1016617790811338
1.118279569892473
1.1378299120234605
1.160312805474096
1.1837732160312806
1.206256109481916
1.2287390029325511
1.2502443792766371
1.2717497556207231
1.2932551319648091
1.3128054740957966
1.3313782991202343
1.3479960899315735
1.3626588465298142
1.375366568914956
1.3841642228739004
1.3919843597262953
1.401759530791789
1.4173998044965788
1.4437927663734116
1.4926686217008798
1.5708699902248289
1.6823069403714566
1.8240469208211143
1.9902248289345064
2.1700879765395893
2.3499511241446727
2.5190615835777126
2.668621700879765
2.792766373411535
2.8797653958944283
2.9374389051808407
2.983382209188661
3.0117302052785924
3.022482893450636
3.01564027370479
2.994134897360704
2.9589442815249267
2.913978494623656
2.860215053763441
2.80058651026393
2.735092864125122
2.6666666666666665
2.6021505376344085
2.5376344086021505
2.466275659824047
2.391006842619746
2.313782991202346
2.2346041055718477
2.155425219941349
2.0762463343108504
1.997067448680352
1.9188660801564028
1.842619745845552
1.7683284457478006
1.704789833822092
1.6471163245356797
1.58455522971652
1.521016617790811
1.458455522971652
1.3998044965786902
1.3450635386119256
1.2942326490713587
1.249266862170088
1.2111436950146628
1.1798631476050832
1.155425219941349
1.13880742913001
1.130987292277615
1.1300097751710656
1.1329423264907137
1.1397849462365592
1.1505376344086022
1.1652003910068427
1.1827956989247312
1.2023460410557183
1.2218963831867058
1.241446725317693
1.2609970674486803
1.2795698924731185
1.2961876832844574
1.3118279569892473
1.3255131964809383
1.33822091886608
1.348973607038123
1.356793743890518
1.3626588465298142
1.364613880742913
1.3655913978494625
1.3685239491691104
1.3812316715542523
1.412512218963832
1.4701857282502444
1.541544477028348
1.6334310850439884
1.7634408602150538
1.920821114369501
2.09188660801564
2.264907135874878
2.4281524926686218
2.5718475073313782
2.6901270772238512
2.782013685239492
2.8475073313782997
2.8885630498533725
2.905180840664712
2.902248289345064
2.8885630498533725
2.86217008797654
2.825024437927664
2.7781036168132944
2.7233626588465296
2.662756598240469
2.587487781036168
2.5034213098729228
2.423264907135875
2.3440860215053765
2.264907135874878
2.1945259042033234
2.1280547409579667
2.0557184750733137
1.9804496578690127
1.9042033235581624
1.827956989247312
1.7526881720430108
1.678396871945259
1.6050830889540566
1.5327468230694037
1.4633431085043989
1.396871945259042
1.3421309872922775
1.2942326490713587
1.2434017595307918
1.1935483870967742
1.1456500488758554
1.1016617790811338
1.0625610948191593
1.029325513196481
1.0019550342130987
0.981427174975562
0.9687194525904204
0.9628543499511242
0.9648093841642228
0.9726295210166178
0.9853372434017597
1.0009775171065494
1.0195503421309873
1.040078201368524
1.0606060606060606
1.0821114369501466
1.1036168132942326
1.1241446725317692
1.1436950146627567
1.1612903225806452
1.1779081133919844
1.1935483870967742
1.2072336265884651
1.2179863147605083
1.2258064516129032
1.23069403714565
1.2326490713587488
1.2365591397849462
1.2482893450635386
1.273704789833822
1.321603128054741
1.3978494623655917
1.5053763440860215
1.6207233626588464
1.7468230694037146
1.9042033235581624
2.074291300097752
2.242424242424242
2.398826979472141
2.5347018572825024
2.6451612903225805
2.730205278592375
2.789833822091887
2.825024437927664
2.8396871945259043
2.835777126099707
2.8181818181818183
2.788856304985337
2.750733137829912
2.7038123167155423
2.649071358748778
2.589442815249267
2.5249266862170088
2.4565004887585533
2.3851417399804498
2.3118279569892475
2.236559139784946
2.161290322580645
2.0928641251221896
2.029325513196481
1.9589442815249267
1.884652981427175
1.8103616813294232
1.7360703812316716
1.6627565982404693
1.5913978494623655
1.521994134897361
1.4545454545454546
1.3900293255131966
1.3294232649071358
1.2717497556207231
1.2267839687194526
1.1886608015640274
1.1495601173020529
1.1133919843597262
1.0821114369501466
1.0557184750733135
1.0361681329423265
1.024437927663734
1.0195503421309873
1.0205278592375366
1.0273704789833822
1.0391006842619743
1.053763440860215
1.072336265884653
1.0918866080156402
1.1133919843597262
1.1348973607038124
1.1564027370478984
1.176930596285435
1.1974584555229717
1.2160312805474096
1.2336265884652982
1.249266862170088
1.262952101661779
1.2746823069403714
1.2854349951124144
1.2932551319648091
1.2991202346041055
1.3040078201368523
1.3147605083088951
1.33822091886608
1.3822091886608017
1.4535679374389052
1.5571847507331378
1.6911045943304008
1.8504398826979471
2.0254154447702835
2.1788856304985336
2.315738025415445
2.4574780058651027
2.587487781036168
2.6959921798631474
2.7810361681329425
2.841642228739003
2.878787878787879
2.8944281524926687
2.89247311827957
2.875855327468231
2.84652981427175
2.8054740957966766
2.760508308895406
2.7096774193548385
2.6510263929618767
2.5855327468230693
2.5161290322580645
2.443792766373412
2.36950146627566
2.2932551319648096
2.21505376344086
2.136852394916911
2.059628543499511
1.981427174975562
1.9130009775171064
1.8504398826979471
1.782991202346041
1.7126099706744868
1.6422287390029326
1.573802541544477
1.5073313782991202
1.4428152492668622
1.3822091886608017
1.3255131964809383
1.2727272727272727
1.2258064516129032
1.1837732160312806
1.1534701857282503
1.130987292277615
1.1094819159335287
1.0928641251221896
1.0811339198435972
1.0762463343108504
1.0772238514173995
1.0840664711632453
1.096774193548387
1.1133919843597262
1.1329423264907137
1.155425219941349
1.1779081133919844
1.2003910068426198
1.2238514173998043
1.24633431085044
1.267839687194526
1.2883675464320623
1.3079178885630498
1.3264907135874875
1.3421309872922775
1.3548387096774193
1.3636363636363635
1.370478983382209
1.3773216031280548
1.3861192570869991
1.4027370478983383
1.4349951124144673
1.4916911045943304
1.5786901270772238
1.6989247311827955
1.8484848484848484
2.0205278592375366
2.203323558162268
2.383186705767351
2.548387096774193
2.69208211143695
2.795698924731183
2.868035190615836
2.9286412512218964
2.970674486803519
2.9931573802541545
2.9960899315738025
2.981427174975562
2.951124144672532
2.9100684261974585
2.859237536656892
2.80058651026393
2.736070381231672
2.6666666666666665
2.60019550342131
2.535679374389052
2.464320625610948
2.389051808406647
2.3118279569892475
2.233626588465298
2.1544477028347995
2.074291300097752
1.994134897360704
1.9149560117302051
1.835777126099707
1.7575757575757576
1.6911045943304008
1.6314760508308896
1.5669599217986314
1.500488758553275
1.4349951124144673
1.3724340175953078
1.3128054740957966
1.2561094819159335
1.2043010752688172
1.1573802541544478
1.1173020527859236
1.0840664711632453
1.056695992179863
1.0410557184750733
1.0332355816226784
1.0283479960899315
1.0273704789833822
1.032258064516129
1.0420332355816226
1.0557184750733135
1.072336265884653
1.0918866080156402
1.1114369501466277
1.1319648093841643
1.1515151515151516
1.1700879765395895
1.1867057673509287
1.2121212121212122
1.2404692082111437
1.260019550342131
1.2746823069403714
1.2854349951124144
1.29227761485826
1.2961876832844574
1.2991202346041055
1.3049853372434017
1.3196480938416422
1.3440860215053765
1.3851417399804498
1.455522971652004
1.5581622678396871
1.6901270772238517
1.844574780058651
2.0117302052785924
2.1808406647116323
2.3391984359726297
2.479960899315738
2.5972629521016617
2.6881720430107525
2.7536656891495603
2.791788856304985
2.8084066471163247
2.8132942326490715
2.803519061583578
2.7810361681329425
2.747800586510264
2.704789833822092
2.6529814271749754
2.595307917888563
2.533724340175953
2.4682306940371457
2.39980449657869
2.3362658846529816
2.274682306940372
2.206256109481916
2.133919843597263
2.060606060606061
1.986314760508309
1.911045943304008
1.836754643206256
1.7644183773216031
1.6920821114369502
1.6217008797653958
1.5532746823069403
1.4868035190615836
1.4320625610948192
1.3841642228739004
1.3313782991202343
1.278592375366569
1.2287390029325511
1.1827956989247312
1.1407624633431086
1.104594330400782
1.075268817204301
1.053763440860215
1.0391006842619743
1.0312805474095796
1.032258064516129
1.0391006842619743
1.0488758553274682
1.06158357771261
1.0772238514173995
1.0957966764418376
1.115347018572825
1.1368523949169111
1.1573802541544478
1.1779081133919844
1.198435972629521
1.217008797653959
1.2346041055718475
1.2512218963831867
1.2668621700879763
1.281524926686217
1.29227761485826
1.3010752688172045
1.3069403714565004
1.310850439882698
1.316715542521994
1.3313782991202343
1.3607038123167154
1.4134897360703813
1.495601173020528
1.587487781036168
1.6950146627565983
1.835777126099707
1.997067448680352
2.1652003910068425
2.3284457478005867
2.4760508308895406
2.601173020527859
2.7008797653958942
2.776148582600196
2.8260019550342133
2.8533724340175954
2.86217008797654
2.854349951124145
2.833822091886608
2.8025415444770285
2.7614858260019552
2.7126099706744866
2.656891495601173
2.595307917888563
2.529814271749756
2.4604105571847508
2.388074291300098
2.313782991202346
2.239491691104594
2.172043010752688
2.10752688172043
2.0361681329423265
1.962854349951124
1.8885630498533723
1.81524926686217
1.7429130009775171
1.6715542521994136
1.6021505376344083
1.5347018572825024
1.469208211143695
1.4076246334310851
1.348973607038123
1.303030303030303
1.2649071358748778
1.224828934506354
1.1857282502443791
1.1505376344086022
1.1202346041055715
1.0957966764418376
1.078201368523949
1.067448680351906
1.064516129032258
1.067448680351906
1.0762463343108504
1.0899315738025417
1.10752688172043
1.1270772238514175
1.1485826001955035
1.1710654936461389
1.1925708699902249
1.2130987292277615
1.2326490713587488
1.252199413489736
1.270772238514174
1.2873900293255132
1.303030303030303
1.316715542521994
1.3284457478005864
1.33822091886608
1.3440860215053765
1.348973607038123
1.356793743890518
1.375366568914956
1.4105571847507332
1.4711632453567938
1.5620723362658846
1.683284457478006
1.8299120234604105
1.9960899315738023
2.146627565982405
2.2844574780058653
2.4301075268817205
2.5669599217986314
2.6852394916911044
2.779081133919844
2.8484848484848486
2.8944281524926687
2.919843597262952
2.9257086999022484
2.9149560117302054
2.8905180840664717
2.854349951124145
2.811339198435973
2.763440860215054
2.7067448680351904
2.643206256109482
2.575757575757576
2.504398826979472
2.4301075268817205
2.3548387096774195
2.27761485826002
2.20039100684262
2.12316715542522
2.046920821114369
1.9794721407624636
1.9178885630498532
1.8504398826979471
1.7810361681329423
1.7116324535679377
1.6422287390029326
1.5747800586510263
1.5102639296187683
1.4486803519061584
1.3900293255131966
1.3362658846529814
1.2864125122189638
1.241446725317693
1.2082111436950147
1.1837732160312806
1.160312805474096
1.141739980449658
1.1280547409579669
1.121212121212121
1.121212121212121
1.1280547409579669
1.1397849462365592
1.1564027370478984
1.176930596285435
1.1994134897360704
1.2218963831867058
1.2443792766373412
1.2668621700879763
1.289345063538612
1.3098729227761483
1.3294232649071358
1.3479960899315735
1.3655913978494625
1.380254154447703
1.392961876832845
1.4027370478983383
1.4086021505376345
1.4115347018572826
1.41544477028348
1.4252199413489737
1.4467253176930597
1.4887585532746823
1.5591397849462365
1.66177908113392
1.7956989247311828
1.95405669599218
2.1280547409579667
2.304985337243402
2.4731182795698925
2.621700879765396
2.732160312805474
2.811339198435973
2.877810361681329
2.9257086999022484
2.9530791788856305
2.960899315738025
2.951124144672532
2.9257086999022484
2.886608015640274
2.8377321603128056
2.780058651026393
2.716520039100684
2.653958944281525
2.591397849462365
2.5210166177908118
2.447702834799609
2.372434017595308
2.2952101661779083
2.2170087976539588
2.1378299120234603
2.058651026392962
1.978494623655914
1.8973607038123168
1.8172043010752688
1.7390029325513197
1.672531769305963
1.611925708699902
1.5454545454545454
1.478005865102639
1.4115347018572826
1.3479960899315735
1.2873900293255132
1.23069403714565
1.1779081133919844
1.130987292277615
1.0909090909090908
1.056695992179863
1.0342130987292275
1.0195503421309873
1.007820136852395
1.0009775171065494
1.0009775171065494
1.0058651026392962
1.0166177908113392
1.0312805474095796
1.0498533724340176
1.0694037145650048
1.088954056695992
1.1094819159335287
1.1290322580645162
1.1485826001955035
1.1671554252199414
1.18475073313783
1.2003910068426198
1.2150537634408602
1.2287390029325511
1.2394916911045943
1.2482893450635386
1.2541544477028348
1.2570869990224829
1.260019550342131
1.2688172043010753
1.2854349951124144
1.316715542521994
1.3724340175953078
1.457478005865103
1.573802541544477
1.7174975562072337
1.8807429130009776
2.0527859237536656
2.2218963831867056
2.377321603128055
2.5131964809384164
2.6236559139784945
2.708699902248289
2.7614858260019552
2.789833822091887
2.8054740957966766
2.806451612903226
2.782991202346041
2.7517106549364616
2.7233626588465296
2.681329423264907
2.6285434995112413
2.56891495601173
2.504398826979472
2.4349951124144678
2.3704789833822093
2.30791788856305
2.239491691104594
2.1681329423264906
2.0957966764418376
2.021505376344086
1.9472140762463344
1.8729227761485825
1.7986314760508308
1.7253176930596286
1.653958944281525
1.5835777126099706
1.5151515151515151
1.458455522971652
1.4086021505376345
1.35386119257087
1.300097751710655
1.2482893450635386
1.2003910068426198
1.1573802541544478
1.1192570869990224
1.0869990224828934
1.06158357771261
1.0439882697947214
1.0332355816226784
1.032258064516129
1.0381231671554252
1.0478983382209188
1.06158357771261
1.078201368523949
1.096774193548387
1.1173020527859236
1.1378299120234605
1.1593352883675463
1.1798631476050832
1.2003910068426198
1.219941348973607
1.2375366568914956
1.2541544477028348
1.2688172043010753
1.2825024437927663
1.2932551319648091
1.3020527859237536
1.3079178885630498
1.3118279569892473
1.3157380254154447
1.3235581622678396
1.3440860215053765
1.3851417399804498
1.4535679374389052
1.533724340175953
1.632453567937439
1.7673509286412512
1.9716520039100685
2.164222873900293
2.300097751710655
2.441837732160313
2.572825024437928
2.6832844574780057
2.76930596285435
2.8299120234604107
2.868035190615836
2.884652981427175
2.8826979472140764
2.865102639296188
2.8367546432062563
2.7976539589442817
2.7497556207233624
2.6940371456500487
2.632453567937439
2.547409579667644
2.4682306940371457
2.409579667644184
2.3411534701857284
2.257086999022483
2.1837732160312804
2.1280547409579667
2.060606060606061
1.967741935483871
1.8826979472140764
1.8211143695014664
1.7526881720430108
1.6813294232649072
1.608993157380254
1.5386119257087
1.4711632453567938
1.3919843597262953
1.3235581622678396
1.284457478005865
1.2473118279569892
1.1964809384164223
1.1505376344086022
1.1192570869990224
1.0909090909090908
1.064516129032258
1.0449657869012707
1.0342130987292275
1.0303030303030305
1.0381231671554252
1.0498533724340176
1.0606060606060606
1.0772238514173995
1.104594330400782
1.130987292277615
1.1505376344086022
1.1720430107526882
1.1994134897360704
1.224828934506354
1.2424242424242424
1.2609970674486803
1.2825024437927663
1.3010752688172045
1.3128054740957966
1.324535679374389
1.3362658846529814
1.3450635386119256
1.3509286412512218
1.3577712609970674
1.3841642228739004
1.4173998044965788
1.4858260019550342
1.611925708699902
1.7595307917888563
1.8778103616813293
1.9843597262952104
2.10752688172043
2.27761485826002
2.4486803519061584
2.567937438905181
2.686217008797654
2.7996089931573804
2.8905180840664717
2.940371456500489
2.964809384164223
2.964809384164223
2.9530791788856305
2.936461388074292
2.9042033235581624
2.8475073313782997
2.791788856304985
2.7468230694037143
2.689149560117302
2.6041055718475072
2.504398826979472
2.41544477028348
2.3313782991202348
2.2502443792766376
2.1700879765395893
2.089931573802541
2.0195503421309877
1.9550342130987293
1.884652981427175
1.8113391984359728
1.7565982404692082
1.694037145650049
1.6109481915933528
1.5366568914956011
1.4682306940371457
1.404692082111437
1.346041055718475
1.3040078201368523
1.267839687194526
1.2258064516129032
1.187683284457478
1.1544477028347997
1.1280547409579669
1.1085043988269794
1.0957966764418376
1.0899315738025417
1.0909090909090908
1.0977517106549364
1.110459433040078
1.1280547409579669
1.1485826001955035
1.1710654936461389
1.1935483870967742
1.2179863147605083
1.241446725317693
1.2639296187683284
1.2854349951124144
1.305962854349951
1.324535679374389
1.3411534701857282
1.3548387096774193
1.364613880742913
1.3714565004887584
1.3763440860215057
1.3792766373411536
1.3822091886608017
1.393939393939394
1.4213098729227762
1.4701857282502444
1.5483870967741935
1.6598240469208212
1.8025415444770283
1.9687194525904204
2.145650048875855
2.321603128054741
2.4838709677419355
2.608993157380254
2.7038123167155423
2.787878787878788
2.8533724340175954
2.8963831867057674
2.917888563049853
2.918866080156403
2.902248289345064
2.870967741935484
2.8289345063538613
2.777126099706745
2.717497556207233
2.6578690127077222
2.5972629521016617
2.5288367546432062
2.4565004887585533
2.3812316715542523
2.303030303030303
2.2238514173998043
2.1436950146627565
2.064516129032258
1.9853372434017595
1.906158357771261
1.827956989247312
1.7517106549364614
1.686217008797654
1.6265884652981428
1.5620723362658846
1.495601173020528
1.4291300097751711
1.364613880742913
1.303030303030303
1.2443792766373412
1.1896383186705768
1.1397849462365592
1.0948191593352885
1.0557184750733135
1.029325513196481
1.010752688172043
0.9931573802541545
0.9804496578690128
0.9745845552297164
0.9745845552297164
0.9804496578690128
0.9912023460410556
1.0068426197458455
1.0254154447702837
1.04594330400782
1.0664711632453567
1.0869990224828934
1.10752688172043
1.1280547409579669
1.147605083088954
1.1671554252199414
