ppg
2.701857282502444
2.701857282502444
2.701857282502444
2.730205278592375
2.696969696969697
2.653958944281525
2.603128054740958
2.550342130987292
2.495601173020528
2.434017595307918
2.36950146627566
2.304985337243402
2.244379276637341
2.187683284457478
2.136852394916911
2.0928641251221896
2.0557184750733137
2.0234604105571847
1.9951124144672527
1.9716520039100685
1.9521016617790807
1.9345063538611929
1.9159335288367547
1.8983382209188664
1.8797653958944285
1.8602150537634408
1.8387096774193548
1.81524926686217
1.7898338220918866
1.7634408602150538
1.7350928641251222
1.7057673509286413
1.6813294232649072
1.6578690127077225
1.6314760508308896
1.6050830889540566
1.5786901270772238
1.5532746823069403
1.5288367546432062
1.5053763440860215
1.4819159335288368
1.458455522971652
1.436950146627566
1.41544477028348
1.3949169110459434
1.3812316715542523
1.370478983382209
1.3577712609970674
1.3440860215053765
1.3313782991202343
1.3196480938416422
1.3098729227761483
1.3010752688172045
1.2932551319648091
1.2854349951124144
1.278592375366569
1.2727272727272727
1.2688172043010753
1.2668621700879763
1.2639296187683284
1.2590420332355816
1.2551319648093842
1.2502443792766371
1.2453567937438903
1.2424242424242424
1.2404692082111437
1.238514173998045
1.2365591397849462
1.2336265884652982
1.2316715542521994
1.2316715542521994
1.2326490713587488
1.2316715542521994
1.2297165200391007
1.2267839687194526
1.2238514173998043
1.2228739002932552
1.2218963831867058
1.2218963831867058
1.2218963831867058
1.2218963831867058
1.2218963831867058
1.2228739002932552
1.224828934506354
1.224828934506354
1.2238514173998043
1.2238514173998043
1.2258064516129032
1.2316715542521994
1.2473118279569892
1.2766373411534702
1.321603128054741
1.3861192570869991
1.4701857282502444
1.5718475073313782
1.672531769305963
1.775171065493646
1.8983382209188664
2.032258064516129
2.166177908113392
2.294232649071359
2.4134897360703813
2.5210166177908118
2.6158357771261
2.697947214076246
2.768328445747801
2.8289345063538613
2.870967741935484
2.900293255131965
2.9315738025415445
2.960899315738025
2.9853372434017595
3.005865102639296
3.021505376344086
3.03128054740958
3.034213098729228
3.0283479960899315
3.013685239491691
2.9902248289345064
2.9579667644183774
2.917888563049853
2.870967741935484
2.814271749755621
2.7497556207233624
2.6803519061583576
2.606060606060606
2.529814271749756
2.4545454545454546
2.3822091886608017
2.313782991202346
2.2502443792766376
2.1925708699902247
2.144672531769306
2.103616813294233
2.064516129032258
2.0283479960899315
1.9960899315738023
1.964809384164223
1.9345063538611929
1.9042033235581624
1.873900293255132
1.8435972629521016
1.812316715542522
1.7810361681329423
1.7487781036168133
1.7204301075268815
1.6930596285434996
1.6608015640273706
1.6265884652981428
1.5923753665689149
1.5591397849462365
1.5288367546432062
1.499511241446725
1.4711632453567938
1.4437927663734116
1.4173998044965788
1.3919843597262953
1.3724340175953078
1.3558162267839686
1.3362658846529814
1.3157380254154447
1.2971652003910068
1.2795698924731185
1.262952101661779
1.2473118279569892
1.2346041055718475
1.2228739002932552
1.2121212121212122
1.2023460410557183
1.1925708699902249
1.1867057673509287
1.1827956989247312
1.1779081133919844
1.1720430107526882
1.166177908113392
1.160312805474096
1.1544477028347997
1.1495601173020529
1.1456500488758554
1.142717497556207
1.1397849462365592
1.1378299120234605
1.1378299120234605
1.1397849462365592
1.1397849462365592
1.1378299120234605
1.133919843597263
1.1300097751710656
1.1251221896383188
1.1202346041055715
1.1163245356793745
1.1114369501466277
1.1065493646138806
1.1016617790811338
1.099706744868035
1.099706744868035
1.0977517106549364
1.093841642228739
1.0899315738025417
1.086021505376344
1.083088954056696
1.0821114369501466
1.0821114369501466
1.0869990224828934
1.1006842619745845
1.126099706744868
1.166177908113392
1.2140762463343109
1.273704789833822
1.356793743890518
1.4604105571847508
1.5786901270772238
1.7086999022482894
1.844574780058651
1.981427174975562
2.113391984359726
2.2355816226783967
2.345063538611926
2.439882697947214
2.5102639296187683
2.5640273704789838
2.616813294232649
2.6637341153470184
2.7038123167155423
2.73802541544477
2.7673509286412514
2.791788856304985
2.811339198435973
2.825024437927664
2.833822091886608
2.835777126099707
2.8299120234604107
2.8152492668621703
2.792766373411535
2.763440860215054
2.7253176930596283
2.679374389051808
2.624633431085044
2.563049853372434
2.496578690127077
2.4271749755620724
2.358748778103617
2.294232649071359
2.2346041055718477
2.1837732160312804
2.1407624633431084
2.1006842619745845
2.064516129032258
2.03128054740958
2.0019550342130987
1.9745845552297163
1.949169110459433
1.924731182795699
1.9012707722385145
1.87683284457478
1.8514173998044965
1.8093841642228736
1.761485826001955
1.726295210166178
1.6950146627565983
1.664711632453568
1.6334310850439884
1.6021505376344083
1.5698924731182795
1.5376344086021505
1.5063538611925709
1.4760508308895406
1.4486803519061584
1.423264907135875
1.4027370478983383
1.3851417399804498
1.3665689149560116
1.3479960899315735
1.3304007820136852
1.313782991202346
1.2981427174975562
1.2834799608993157
1.270772238514174
1.260019550342131
1.2502443792766371
1.2404692082111437
1.23069403714565
1.2258064516129032
1.2238514173998043
1.2209188660801564
1.217008797653959
1.2130987292277615
1.2082111436950147
1.2023460410557183
1.1964809384164223
1.1896383186705768
1.1837732160312806
1.1798631476050832
1.176930596285435
1.176930596285435
1.1779081133919844
1.1779081133919844
1.1779081133919844
1.1779081133919844
1.176930596285435
1.1749755620723363
1.1730205278592376
1.1710654936461389
1.1691104594330402
1.166177908113392
1.1612903225806452
1.1564027370478984
1.155425219941349
1.1564027370478984
1.155425219941349
1.1534701857282503
1.1515151515151516
1.1505376344086022
1.1495601173020529
1.1495601173020529
1.1495601173020529
1.152492668621701
1.1622678396871946
1.181818181818182
1.209188660801564
1.2482893450635386
1.3049853372434017
1.3822091886608017
1.478005865102639
1.5894428152492668
1.7126099706744868
1.8416422287390029
1.9726295210166176
2.099706744868035
2.218963831867057
2.326490713587488
2.4222873900293256
2.4946236559139785
2.5513196480938416
2.608993157380254
2.6608015640273703
2.705767350928641
2.744868035190616
2.779081133919844
2.8084066471163247
2.833822091886608
2.855327468230694
2.870967741935484
2.881720430107527
2.8826979472140764
2.873900293255132
2.860215053763441
2.838709677419355
2.8084066471163247
2.768328445747801
2.719452590420332
2.66177908113392
2.598240469208211
2.529814271749756
2.4594330400782014
2.389051808406647
2.321603128054741
2.2629521016617797
2.212121212121212
2.1622678396871944
2.1163245356793743
2.075268817204301
2.038123167155425
2.004887585532747
1.975562072336266
1.9472140762463344
1.920821114369501
1.8944281524926687
1.8670576735092863
1.842619745845552
1.8191593352883677
1.7917888563049853
1.7624633431085044
1.732160312805474
1.7008797653958945
1.6695992179863148
1.6373411534701858
1.606060606060606
1.5747800586510263
1.543499511241447
1.5141739980449658
1.4848484848484849
1.4613880742913
1.4408602150537635
1.4173998044965788
1.393939393939394
1.3714565004887584
1.348973607038123
1.327468230694037
1.3088954056695992
1.29227761485826
1.2766373411534702
1.262952101661779
1.2512218963831867
1.2434017595307918
1.238514173998045
1.2316715542521994
1.2238514173998043
1.2160312805474096
1.2082111436950147
1.2003910068426198
1.1935483870967742
1.1857282502443791
1.1788856304985338
1.1720430107526882
1.164222873900293
1.160312805474096
1.1573802541544478
1.1534701857282503
1.1495601173020529
1.1466275659824048
1.1436950146627567
1.1397849462365592
1.1358748778103618
1.130987292277615
1.1270772238514175
1.1221896383186705
1.1192570869990224
1.1173020527859236
1.118279569892473
1.1202346041055715
1.1202346041055715
1.1192570869990224
1.1163245356793745
1.1143695014662756
1.1114369501466277
1.10752688172043
1.104594330400782
1.1016617790811338
1.0987292277614855
1.0987292277614855
1.1055718475073313
1.1192570869990224
1.141739980449658
1.1779081133919844
1.2326490713587488
1.3079178885630498
1.4027370478983383
1.5151515151515151
1.6392961876832846
1.7702834799608993
1.902248289345064
2.03128054740958
2.1524926686217007
2.249266862170088
2.3274682306940373
2.4056695992179864
2.47702834799609
2.539589442815249
2.593352883675464
2.6373411534701856
2.673509286412512
2.702834799608993
2.727272727272727
2.747800586510264
2.764418377321604
2.7722385141739982
2.774193548387097
2.776148582600196
2.774193548387097
2.766373411534702
2.750733137829912
2.7253176930596283
2.6911045943304006
2.6471163245356792
2.593352883675464
2.5317693059628543
2.466275659824047
2.39980449657869
2.3391984359726297
2.283479960899316
2.2267839687194524
2.172043010752688
2.120234604105572
2.0733137829912023
2.032258064516129
1.9960899315738023
1.963831867057673
1.9345063538611929
1.9071358748778104
1.881720430107527
1.8592375366568916
1.8387096774193548
1.8162267839687196
1.790811339198436
1.7624633431085044
1.7331378299120237
1.7038123167155426
1.6735092864125125
1.643206256109482
1.6129032258064515
1.5826001955034212
1.552297165200391
1.521016617790811
1.4946236559139785
1.4711632453567938
1.444770283479961
1.4173998044965788
1.391006842619746
1.3665689149560116
1.3440860215053765
1.324535679374389
1.3069403714565004
1.2913000977517106
1.2766373411534702
1.2639296187683284
1.2551319648093842
1.2482893450635386
1.2394916911045943
1.23069403714565
1.2228739002932552
1.2150537634408602
1.1857282502443791
1.1456500488758554
1.121212121212121
1.1055718475073313
1.093841642228739
1.0840664711632453
1.0762463343108504
1.0733137829912025
1.0733137829912025
1.072336265884653
1.0703812316715542
1.0684261974584557
1.0664711632453567
1.064516129032258
1.0625610948191593
1.0606060606060606
1.0596285434995112
1.0596285434995112
1.0586510263929618
1.0596285434995112
1.0606060606060606
1.0586510263929618
1.0576735092864125
1.056695992179863
1.0557184750733135
1.0527859237536656
1.0488758553274682
1.0439882697947214
1.0391006842619743
1.0342130987292275
1.029325513196481
1.024437927663734
1.0224828934506354
1.0254154447702837
1.0303030303030305
1.0439882697947214
1.0703812316715542
1.1143695014662756
1.1788856304985338
1.2649071358748778
1.3724340175953078
1.499511241446725
1.6412512218963833
1.7917888563049853
1.9257086999022484
2.04594330400782
2.174975562072336
2.3010752688172045
2.4173998044965788
2.5210166177908118
2.608993157380254
2.6832844574780057
2.745845552297165
2.7966764418377323
2.8367546432062563
2.8670576735092865
2.8905180840664717
2.9012707722385143
2.9042033235581624
2.9071358748778104
2.906158357771261
2.898338220918866
2.8826979472140764
2.857282502443793
2.822091886608016
2.779081133919844
2.7262952101661777
2.6637341153470184
2.5943304007820136
2.527859237536657
2.463343108504399
2.393939393939394
2.324535679374389
2.2561094819159337
2.1915933528836757
2.132942326490713
2.080156402737048
2.034213098729228
1.994134897360704
1.959921798631476
1.9286412512218964
1.8993157380254155
1.873900293255132
1.8504398826979471
1.826001955034213
1.7996089931573802
1.772238514173998
1.7438905180840665
1.7145650048875856
1.686217008797654
1.6598240469208212
1.6334310850439884
1.607038123167155
1.5806451612903225
1.5581622678396871
1.5376344086021505
1.5131964809384164
1.4868035190615836
1.458455522971652
1.4301075268817205
1.3998044965786902
1.3685239491691104
1.335288367546432
1.3010752688172045
1.2658846529814272
1.23069403714565
1.195503421309873
1.166177908113392
1.142717497556207
1.1163245356793745
1.088954056695992
1.0625610948191593
1.0381231671554252
1.0166177908113392
0.9990224828934506
0.9863147605083088
0.9775171065493646
0.9726295210166178
0.9706744868035192
0.9736070381231672
0.9804496578690128
0.9872922776148584
0.9960899315738024
1.0068426197458455
1.0195503421309873
1.0332355816226784
1.04594330400782
1.056695992179863
1.0664711632453567
1.075268817204301
1.0840664711632453
1.0928641251221896
1.1006842619745845
1.1065493646138806
1.1114369501466277
1.115347018572825
1.118279569892473
1.1202346041055715
1.1202346041055715
1.1192570869990224
1.1173020527859236
1.115347018572825
1.1114369501466277
1.1055718475073313
1.1016617790811338
1.099706744868035
1.0957966764418376
1.093841642228739
1.0948191593352885
1.1016617790811338
1.1202346041055715
1.1564027370478984
1.2111436950146628
1.2864125122189638
1.3822091886608017
1.495601173020528
1.603128054740958
1.7096774193548387
1.8328445747800584
1.9608993157380252
2.0840664711632453
2.196480938416422
2.2952101661779083
2.378299120234604
2.447702834799609
2.504398826979472
2.550342130987292
2.589442815249267
2.621700879765396
2.644183773216031
2.66177908113392
2.6852394916911044
2.710654936461388
2.735092864125122
2.758553274682307
2.779081133919844
2.793743890518084
2.7996089931573804
2.7976539589442817
2.7859237536656893
2.7624633431085046
2.730205278592375
2.6911045943304006
2.6422287390029324
2.5865102639296187
2.5239491691104594
2.458455522971652
2.3919843597262958
2.3255131964809386
2.259042033235582
2.1955034213098727
2.1358748778103616
2.080156402737048
2.0303030303030303
1.988269794721408
1.951124144672532
1.913978494623656
1.8778103616813293
1.8416422287390029
1.8064516129032255
1.7712609970674489
1.737047898338221
1.7028347996089932
1.6686217008797657
1.6334310850439884
1.5962854349951123
1.5650048875855327
1.5347018572825024
1.499511241446725
1.4633431085043989
1.4291300097751711
1.3958944281524928
1.3636363636363635
1.332355816226784
1.303030303030303
1.2756598240469208
1.252199413489736
1.2326490713587488
1.2150537634408602
1.2023460410557183
1.1915933528836755
1.1788856304985338
1.166177908113392
1.1534701857282503
1.141739980449658
1.1319648093841643
1.1231671554252198
1.1143695014662756
1.1055718475073313
1.0977517106549364
1.0899315738025417
1.0840664711632453
1.0801564027370478
1.072336265884653
1.064516129032258
1.056695992179863
1.0498533724340176
1.0439882697947214
1.0381231671554252
1.032258064516129
1.0273704789833822
1.024437927663734
1.021505376344086
1.018572825024438
1.0195503421309873
1.0224828934506354
1.0224828934506354
1.0205278592375366
1.0166177908113392
1.0127077223851415
1.0087976539589445
1.0048875855327468
1.0
0.997067448680352
0.9960899315738024
0.9941348973607038
1.002932551319648
1.018572825024438
1.0254154447702837
1.0273704789833822
1.0273704789833822
1.029325513196481
1.0371456500488758
1.0557184750733135
1.088954056695992
1.1407624633431086
1.2160312805474096
1.3147605083088951
1.435972629521017
1.555229716520039
1.6774193548387095
1.823069403714565
1.9794721407624636
2.136852394916911
2.289345063538612
2.43108504398827
2.558162267839687
2.670576735092864
2.7673509286412514
2.849462365591398
2.919843597262952
2.9696969696969697
3.005865102639296
3.043010752688172
3.0772238514174
3.10752688172043
3.131964809384164
3.1515151515151514
3.1652003910068425
3.172043010752688
3.1700879765395893
3.158357771260997
3.136852394916911
3.103616813294233
3.0625610948191597
3.0127077223851417
2.951124144672532
2.8797653958944283
2.801564027370479
2.718475073313783
2.633431085043988
2.549364613880743
2.4682306940371457
2.391006842619746
2.318670576735093
2.254154447702835
2.20039100684262
2.1544477028347995
2.110459433040078
2.070381231671554
2.034213098729228
2.0009775171065494
1.9696969696969695
1.9403714565004888
1.911045943304008
1.8807429130009776
1.8494623655913975
1.8162267839687196
1.7810361681329423
1.7487781036168133
1.7194525904203324
1.686217008797654
1.6520039100684265
1.616813294232649
1.5806451612903225
1.5454545454545454
1.5112414467253177
1.47702834799609
1.4437927663734116
1.412512218963832
1.383186705767351
1.3607038123167154
1.343108504398827
1.324535679374389
1.3049853372434017
1.2864125122189638
1.2688172043010753
1.252199413489736
1.2365591397849462
1.2209188660801564
1.2052785923753666
1.1906158357771262
1.176930596285435
1.166177908113392
1.1593352883675463
1.155425219941349
1.1495601173020529
1.142717497556207
1.1358748778103618
1.1300097751710656
1.1241446725317692
1.1192570869990224
1.1143695014662756
1.1094819159335287
1.104594330400782
1.1006842619745845
1.0987292277614855
1.0977517106549364
1.093841642228739
1.0899315738025417
1.0850439882697946
1.0791788856304985
1.0742913000977516
1.0703812316715542
1.067448680351906
1.064516129032258
1.06158357771261
1.0586510263929618
1.0586510263929618
1.0606060606060606
1.0606060606060606
1.0596285434995112
1.0576735092864125
1.0547409579667644
1.0527859237536656
1.0518084066471165
1.0527859237536656
1.0596285434995112
1.0772238514173995
1.1094819159335287
1.160312805474096
1.2218963831867058
1.2971652003910068
1.3998044965786902
1.525904203323558
1.6705767350928642
1.825024437927664
1.9833822091886608
2.1388074291300097
2.286412512218964
2.4222873900293256
2.5434995112414467
2.6480938416422286
2.7253176930596283
2.782991202346041
2.838709677419355
2.8885630498533725
2.930596285434995
2.964809384164223
2.9931573802541545
3.0146627565982405
3.0303030303030303
3.0391006842619745
3.0410557184750733
3.037145650048876
3.0254154447702835
3.003910068426197
2.973607038123167
2.9345063538611926
2.8856304985337244
2.8269794721407626
2.758553274682307
2.6823069403714563
2.601173020527859
2.517106549364614
2.4349951124144678
2.355816226783969
2.283479960899316
2.2238514173998043
2.1739980449657867
2.1270772238514173
2.0840664711632453
2.04594330400782
2.0117302052785924
1.9804496578690127
1.9521016617790807
1.9237536656891496
1.895405669599218
1.866080156402737
1.8347996089931573
1.801564027370479
1.7712609970674489
1.7419354838709675
1.70772238514174
1.6705767350928642
1.6314760508308896
1.5933528836754642
1.5562072336265884
1.5190615835777126
1.482893450635386
1.447702834799609
1.4115347018572826
1.3763440860215057
1.3470185728250244
1.3206256109481915
1.2903225806451613
1.2590420332355816
1.2267839687194526
1.1945259042033236
1.164222873900293
1.1358748778103618
1.1114369501466277
1.0909090909090908
1.0733137829912025
1.0576735092864125
1.043010752688172
1.0342130987292275
1.0283479960899315
1.0205278592375366
1.013685239491691
1.0097751710654936
1.0087976539589445
1.0087976539589445
1.0087976539589445
1.0087976539589445
1.0087976539589445
1.0097751710654936
1.013685239491691
1.0205278592375366
1.0273704789833822
1.0312805474095796
1.035190615835777
1.0371456500488758
1.0381231671554252
1.0381231671554252
1.040078201368524
1.0420332355816226
1.043010752688172
1.0449657869012707
1.0478983382209188
1.0518084066471165
1.0586510263929618
1.0654936461388074
1.0703812316715542
1.0733137829912025
1.075268817204301
1.0762463343108504
1.0762463343108504
1.0742913000977516
1.0713587487781036
1.072336265884653
1.0791788856304985
1.0977517106549364
1.1270772238514175
1.1691104594330402
1.2336265884652982
1.3206256109481915
1.4291300097751711
1.5562072336265884
1.699902248289345
1.8533724340175952
2.010752688172043
2.1652003910068425
2.310850439882698
2.442815249266862
2.560117302052786
2.649071358748778
2.716520039100684
2.780058651026393
2.835777126099707
2.8826979472140764
2.920821114369501
2.909090909090909
2.8699902248289346
2.8563049853372435
2.8533724340175954
2.8533724340175954
2.850439882697948
2.8396871945259043
2.8211143695014664
2.798631476050831
2.768328445747801
2.727272727272727
2.677419354838709
2.619745845552297
2.557184750733138
2.489736070381232
2.420332355816227
2.350928641251222
2.2825024437927666
2.217986314760508
2.163245356793744
2.1163245356793743
2.072336265884653
2.032258064516129
1.9960899315738023
1.964809384164223
1.9374389051808407
1.911045943304008
1.884652981427175
1.858260019550342
1.83088954056696
1.8025415444770283
1.7771260997067448
1.7517106549364614
1.7233626588465298
1.6930596285434996
1.6608015640273706
1.6285434995112416
1.5962854349951123
1.564027370478983
1.530791788856305
1.498533724340176
1.4672531769305963
1.436950146627566
1.4086021505376345
1.3851417399804498
1.364613880742913
1.3421309872922775
1.3206256109481915
1.300097751710655
1.281524926686217
1.2639296187683284
1.2482893450635386
1.2346041055718475
1.2218963831867058
1.209188660801564
1.1974584555229717
1.1896383186705768
1.1837732160312806
1.1759530791788857
1.1681329423264908
1.160312805474096
1.152492668621701
1.144672531769306
1.1368523949169111
1.1290322580645162
1.121212121212121
1.1143695014662756
1.1094819159335287
1.1085043988269794
1.1085043988269794
1.10752688172043
1.1055718475073313
1.1036168132942326
1.1016617790811338
1.0987292277614855
1.0957966764418376
1.0909090909090908
1.0850439882697946
1.0801564027370478
1.0762463343108504
1.072336265884653
1.0713587487781036
1.0733137829912025
1.0742913000977516
1.075268817204301
1.075268817204301
1.0742913000977516
1.0713587487781036
1.0684261974584557
1.064516129032258
1.0606060606060606
1.0586510263929618
1.0625610948191593
1.0742913000977516
1.093841642228739
1.1280547409579669
1.1798631476050832
1.252199413489736
1.3450635386119256
1.456500488758553
1.5835777126099706
1.7223851417399805
1.866080156402737
2.010752688172043
2.1495601173020527
2.2795698924731185
2.3822091886608017
2.4652981427174976
2.548387096774193
2.624633431085044
2.69208211143695
2.748778103616813
2.795698924731183
2.834799608993157
2.868035190615836
2.895405669599218
2.916911045943304
2.932551319648094
2.9374389051808407
2.9345063538611926
2.929618768328446
2.918866080156403
2.900293255131965
2.8729227761485827
2.835777126099707
2.788856304985337
2.732160312805474
2.6666666666666665
2.5943304007820136
2.517106549364614
2.4379276637341154
2.366568914956012
2.302052785923754
2.236559139784946
2.1739980449657867
2.1163245356793743
2.064516129032258
2.0205278592375366
1.981427174975562
1.948191593352884
1.9159335288367547
1.884652981427175
1.8533724340175952
1.826001955034213
1.8005865102639296
1.772238514173998
1.7419354838709675
1.710654936461388
1.6774193548387095
1.6441837732160314
1.6109481915933528
1.576735092864125
1.542521994134897
1.5083088954056696
1.474095796676442
1.4408602150537635
1.4134897360703813
1.3890518084066472
1.3616813294232648
1.3333333333333333
1.305962854349951
1.2805474095796676
1.2570869990224829
1.2365591397849462
1.2189638318670577
1.2023460410557183
1.1867057673509287
1.1720430107526882
1.1622678396871946
1.1544477028347997
1.144672531769306
1.1329423264907137
1.1221896383186705
1.110459433040078
1.0987292277614855
1.0869990224828934
1.0772238514173995
1.0694037145650048
1.0625610948191593
1.056695992179863
1.050830889540567
1.0488758553274682
1.0478983382209188
1.0449657869012707
1.0410557184750733
1.0381231671554252
1.035190615835777
1.032258064516129
1.0283479960899315
1.024437927663734
1.0195503421309873
1.0156402737047898
1.0117302052785924
1.010752688172043
1.0127077223851415
1.0127077223851415
1.0117302052785924
1.0097751710654936
1.007820136852395
1.0058651026392962
1.0039100684261977
1.002932551319648
1.0009775171065494
0.9990224828934506
0.997067448680352
0.997067448680352
1.0
1.0039100684261977
1.0097751710654936
1.0234604105571847
1.0498533724340176
1.0909090909090908
1.1505376344086022
1.2316715542521994
1.3333333333333333
1.4545454545454546
1.5894428152492668
1.732160312805474
1.858260019550342
1.9736070381231672
2.0987292277614857
2.220918866080156
2.332355816226784
2.43108504398827
2.517106549364614
2.590420332355816
