ppg
1.0557184750733135
1.0518084066471165
1.050830889540567
1.050830889540567
1.0488758553274682
1.04594330400782
1.0420332355816226
1.0391006842619743
1.0361681329423265
1.0332355816226784
1.0312805474095796
1.0312805474095796
1.032258064516129
1.0342130987292275
1.0361681329423265
1.040078201368524
1.0439882697947214
1.04594330400782
1.04594330400782
1.04594330400782
1.04594330400782
1.0478983382209188
1.0527859237536656
1.0654936461388074
1.0899315738025417
1.1300097751710656
1.1915933528836755
1.2609970674486803
1.3450635386119256
1.4594330400782014
1.5972629521016617
1.7517106549364614
1.9149560117302051
2.0791788856304985
2.2385141739980448
2.3851417399804498
2.517106549364614
2.632453567937439
2.730205278592375
2.809384164222874
2.863147605083089
2.898338220918866
2.9315738025415445
2.9579667644183774
2.975562072336266
2.98435972629521
2.983382209188661
2.972629521016618
2.9501466275659824
2.917888563049853
2.873900293255132
2.8181818181818183
2.758553274682307
2.695014662756598
2.6236559139784945
2.547409579667644
2.469208211143695
2.3929618768328447
2.3196480938416424
2.2521994134897363
2.1925708699902247
2.1407624633431084
2.0957966764418376
2.056695992179863
2.0234604105571847
1.9951124144672527
1.9696969696969695
1.9442815249266865
1.9188660801564028
1.89247311827957
1.865102639296188
1.836754643206256
1.8064516129032255
1.775171065493646
1.7438905180840665
1.710654936461388
1.6774193548387095
1.6471163245356797
1.6187683284457477
1.5923753665689149
1.5679374389051808
1.5386119257087
1.5083088954056696
1.478983382209189
1.4506353861192571
1.4252199413489737
1.401759530791789
1.380254154447703
1.3616813294232648
1.348973607038123
1.33822091886608
1.3255131964809383
1.3118279569892473
1.2991202346041055
1.2864125122189638
1.273704789833822
1.2609970674486803
1.2482893450635386
1.2365591397849462
1.224828934506354
1.2150537634408602
1.2072336265884651
1.2023460410557183
1.1994134897360704
1.1935483870967742
1.1857282502443791
1.176930596285435
1.1681329423264908
1.1593352883675463
1.152492668621701
1.1456500488758554
1.13880742913001
1.1319648093841643
1.1251221896383188
1.121212121212121
1.1192570869990224
1.115347018572825
1.110459433040078
1.1055718475073313
1.1016617790811338
1.0987292277614855
1.096774193548387
1.093841642228739
1.0918866080156402
1.0899315738025417
1.088954056695992
1.0869990224828934
1.0879765395894427
1.0899315738025417
1.0899315738025417
1.088954056695992
1.0869990224828934
1.0850439882697946
1.0840664711632453
1.0840664711632453
1.088954056695992
1.1026392961876832
1.1290322580645162
1.1730205278592376
1.2267839687194526
1.2961876832844574
1.393939393939394
1.5161290322580645
1.6578690127077225
1.8142717497556209
1.9765395894428155
2.136852394916911
2.2883675464320627
2.4271749755620724
2.550342130987292
2.654936461388074
2.740957966764418
2.7996089931573804
2.8396871945259043
2.875855327468231
2.905180840664712
2.9257086999022484
2.936461388074292
2.93841642228739
2.932551319648094
2.917888563049853
2.89247311827957
2.8563049853372435
2.8084066471163247
2.7546432062561097
2.695014662756598
2.6265884652981426
2.550342130987292
2.4701857282502444
2.389051808406647
2.310850439882698
2.2385141739980448
2.172043010752688
2.112414467253177
2.06158357771261
2.018572825024438
1.981427174975562
1.951124144672532
1.9257086999022484
1.900293255131965
1.8758553274682308
1.8514173998044965
1.8269794721407624
1.7996089931573802
1.7702834799608993
1.7380254154447703
1.7038123167155426
1.6686217008797657
1.6334310850439884
1.6021505376344083
1.573802541544477
1.541544477028348
1.5083088954056696
1.4760508308895406
1.4437927663734116
1.4134897360703813
1.3851417399804498
1.359726295210166
1.335288367546432
1.3118279569892473
1.2913000977517106
1.2727272727272727
1.2590420332355816
1.2473118279569892
1.2346041055718475
1.2228739002932552
1.2121212121212122
1.2003910068426198
1.187683284457478
1.1749755620723363
1.1622678396871946
1.1495601173020529
1.13880742913001
1.1290322580645162
1.1231671554252198
1.1192570869990224
1.1133919843597262
1.1065493646138806
1.0987292277614855
1.0899315738025417
1.0811339198435972
1.072336265884653
1.0635386119257086
1.0547409579667644
1.0469208211143697
1.0391006842619743
1.032258064516129
1.0303030303030305
1.0303030303030305
1.0283479960899315
1.0254154447702837
1.0234604105571847
1.0224828934506354
1.021505376344086
1.021505376344086
1.021505376344086
1.0205278592375366
1.0195503421309873
1.0175953079178883
1.0175953079178883
1.0195503421309873
1.0205278592375366
1.0205278592375366
1.0205278592375366
1.0195503421309873
1.018572825024438
1.0175953079178883
1.0175953079178883
1.0205278592375366
1.0312805474095796
1.0527859237536656
1.0909090909090908
1.1397849462365592
1.203323558162268
1.2942326490713587
1.409579667644184
1.5464320625610948
1.6979472140762464
1.8592375366568916
2.022482893450636
2.179863147605083
2.324535679374389
2.4545454545454546
2.5669599217986314
2.649071358748778
2.7096774193548385
2.764418377321604
2.809384164222874
2.8426197458455524
2.866080156402737
2.8797653958944283
2.884652981427175
2.8797653958944283
2.8641251221896384
2.8377321603128056
2.80058651026393
2.7517106549364616
2.6989247311827955
2.6402737047898337
2.5718475073313782
2.496578690127077
2.418377321603128
2.340175953079179
2.2639296187683287
2.193548387096774
2.1300097751710654
2.074291300097752
2.027370478983382
1.988269794721408
1.956989247311828
1.9315738025415443
1.906158357771261
1.881720430107527
1.8563049853372435
1.8299120234604105
1.8025415444770283
1.7741935483870968
1.7448680351906158
1.7145650048875856
1.683284457478006
1.651026392961877
1.6177908113391983
1.5884652981427174
1.5610948191593352
1.5298142717497556
1.4975562072336266
1.466275659824047
1.435972629521017
1.4066471163245358
1.3792766373411536
1.35386119257087
1.3304007820136852
1.3069403714565004
1.2854349951124144
1.267839687194526
1.2541544477028348
1.2394916911045943
1.2267839687194526
1.2150537634408602
1.203323558162268
1.1906158357771262
1.1788856304985338
1.1681329423264908
1.1564027370478984
1.144672531769306
1.133919843597263
1.1270772238514175
1.1221896383186705
1.115347018572825
1.1085043988269794
1.1026392961876832
1.0957966764418376
1.0899315738025417
1.083088954056696
1.0772238514173995
1.0684261974584557
1.0576735092864125
1.0488758553274682
1.0410557184750733
1.0371456500488758
1.035190615835777
1.0312805474095796
1.0263929618768328
1.021505376344086
1.0175953079178883
1.013685239491691
1.0117302052785924
1.010752688172043
1.0097751710654936
1.0097751710654936
1.0097751710654936
1.0117302052785924
1.0156402737047898
1.0175953079178883
1.018572825024438
1.0195503421309873
1.0205278592375366
1.021505376344086
1.0224828934506354
1.0234604105571847
1.0254154447702837
1.029325513196481
1.0391006842619743
1.0606060606060606
1.0909090909090908
1.1358748778103618
1.2043010752688172
1.2991202346041055
1.4193548387096775
1.563049853372434
1.7223851417399805
1.8905180840664717
2.060606060606061
2.225806451612903
2.378299120234604
2.515151515151515
2.618768328445748
2.6989247311827955
2.7751710654936463
2.841642228739003
2.895405669599218
2.936461388074292
2.9657869012707723
2.98435972629521
2.992179863147605
2.9902248289345064
2.9775171065493646
2.9530791788856305
2.916911045943304
2.8729227761485827
2.820136852394917
2.7565982404692084
2.684261974584555
2.606060606060606
2.5249266862170088
2.442815249266862
2.363636363636364
2.289345063538612
2.2238514173998043
2.167155425219941
2.118279569892473
2.080156402737048
2.048875855327468
2.0205278592375366
1.994134897360704
1.970674486803519
1.9472140762463344
1.9237536656891496
1.8983382209188664
1.870967741935484
1.8416422287390029
1.8103616813294232
1.7781036168132942
1.7448680351906158
1.715542521994135
1.6881720430107527
1.6559139784946235
1.6226783968719452
1.5894428152492668
1.5562072336265884
1.5249266862170088
1.495601173020528
1.4672531769305963
1.4408602150537635
1.4164222873900294
1.392961876832845
1.3743890518084063
1.359726295210166
1.343108504398827
1.327468230694037
1.3128054740957966
1.2991202346041055
1.2854349951124144
1.2727272727272727
1.2609970674486803
1.2512218963831867
1.241446725317693
1.2336265884652982
1.2258064516129032
1.2218963831867058
1.2189638318670577
1.2130987292277615
1.206256109481916
1.1974584555229717
1.1886608015640274
1.1798631476050832
1.1720430107526882
1.1652003910068427
1.160312805474096
1.155425219941349
1.1505376344086022
1.1485826001955035
1.1485826001955035
1.1456500488758554
1.142717497556207
1.13880742913001
1.1348973607038124
1.130987292277615
1.1280547409579669
1.126099706744868
1.1251221896383188
1.1251221896383188
1.1251221896383188
1.1251221896383188
1.1270772238514175
1.1290322580645162
1.1290322580645162
1.1280547409579669
1.1270772238514175
1.1241446725317692
1.1221896383186705
1.121212121212121
1.121212121212121
1.1270772238514175
1.141739980449658
1.1700879765395895
1.209188660801564
1.262952101661779
1.3450635386119256
1.4535679374389052
1.58455522971652
1.7350928641251222
1.8983382209188664
2.065493646138808
2.2297165200391005
2.3841642228739004
2.5249266862170088
2.649071358748778
2.7565982404692084
2.833822091886608
2.8905180840664717
2.943304007820137
2.9872922776148583
3.021505376344086
3.0449657869012707
3.058651026392962
3.0625610948191597
3.056695992179863
3.040078201368524
3.0117302052785924
2.972629521016618
2.9257086999022484
2.8719452590420333
2.807429130009776
2.735092864125122
2.6559139784946235
2.572825024437928
2.4887585532746823
2.407624633431085
2.3304007820136854
2.259042033235582
2.1955034213098727
2.139784946236559
2.0928641251221896
2.0557184750733137
2.024437927663734
1.9951124144672527
1.967741935483871
1.9403714565004888
1.9130009775171064
1.8836754643206255
1.8523949169110456
1.8201368523949168
1.7869012707722385
1.7526881720430108
1.7174975562072337
1.686217008797654
1.6578690127077225
1.6275659824046922
1.5962854349951123
1.5650048875855327
1.533724340175953
1.5034213098729228
1.4731182795698925
1.4428152492668622
1.414467253176931
1.3861192570869991
1.359726295210166
1.335288367546432
1.3157380254154447
1.300097751710655
1.2834799608993157
1.2668621700879763
1.2512218963831867
1.2365591397849462
1.2238514173998043
1.2111436950146628
1.198435972629521
1.1857282502443791
1.173998044965787
1.1622678396871946
1.1544477028347997
1.1485826001955035
1.141739980449658
1.133919843597263
1.1251221896383188
1.1173020527859236
1.1085043988269794
1.1006842619745845
1.0928641251221896
1.086021505376344
1.078201368523949
1.0703812316715542
1.0664711632453567
1.064516129032258
1.0596285434995112
1.0547409579667644
1.0488758553274682
1.0420332355816226
1.0361681329423265
1.0303030303030305
1.0254154447702837
1.0224828934506354
1.021505376344086
1.0205278592375366
1.0205278592375366
1.0224828934506354
1.0254154447702837
1.0273704789833822
1.0273704789833822
1.0263929618768328
1.024437927663734
1.0234604105571847
1.0224828934506354
1.021505376344086
1.021505376344086
1.0234604105571847
1.0332355816226784
1.050830889540567
1.0811339198435972
1.130987292277615
1.1994134897360704
1.2903225806451613
1.4066471163245358
1.5454545454545454
1.6979472140762464
1.8592375366568916
2.021505376344086
2.176930596285435
2.320625610948192
2.4486803519061584
2.5454545454545454
2.618768328445748
2.6881720430107525
2.7468230694037143
2.793743890518084
2.8299120234604107
2.855327468230694
2.870967741935484
2.875855327468231
2.870967741935484
2.855327468230694
2.8289345063538613
2.793743890518084
2.7497556207233624
2.6959921798631474
2.633431085043988
2.5620723362658846
2.484848484848485
2.403714565004888
2.3225806451612905
2.244379276637341
2.1710654936461387
2.104594330400782
2.04594330400782
1.9960899315738023
1.956989247311828
1.9257086999022484
1.8983382209188664
1.8748778103616808
1.8533724340175952
1.8318670576735088
1.8093841642228736
1.7849462365591398
1.7595307917888563
1.732160312805474
1.7018572825024438
1.6695992179863148
1.6392961876832846
1.6109481915933528
1.5786901270772238
1.544477028347996
1.509286412512219
1.4760508308895406
1.4437927663734116
1.412512218963832
1.383186705767351
1.3548387096774193
1.3284457478005864
1.3049853372434017
1.2834799608993157
1.267839687194526
1.2551319648093842
1.2404692082111437
1.224828934506354
1.2101661779081134
1.195503421309873
1.181818181818182
1.1691104594330402
1.1564027370478984
1.1456500488758554
1.1358748778103618
1.1251221896383188
1.118279569892473
1.1143695014662756
1.10752688172043
1.1006842619745845
1.0928641251221896
1.0850439882697946
1.078201368523949
1.0713587487781036
1.064516129032258
1.0586510263929618
1.0518084066471165
1.04594330400782
1.0381231671554252
1.0332355816226784
1.0312805474095796
1.0273704789833822
1.021505376344086
1.0166177908113392
1.0117302052785924
1.0068426197458455
1.002932551319648
1.0
0.9980449657869012
0.997067448680352
0.997067448680352
0.9990224828934506
1.002932551319648
1.0048875855327468
1.0058651026392962
1.0068426197458455
1.0058651026392962
1.0048875855327468
1.002932551319648
1.0009775171065494
1.0
1.0
1.0019550342130987
1.0087976539589445
1.0224828934506354
1.0469208211143697
1.0869990224828934
1.1485826001955035
1.2346041055718475
1.3450635386119256
1.47702834799609
1.6265884652981428
1.7869012707722385
1.9501466275659824
2.10850439882698
2.257086999022483
2.3743890518084068
2.4701857282502444
2.5650048875855327
2.650048875855328
2.720430107526881
2.777126099706745
2.8211143695014664
2.852394916911046
2.8719452590420333
2.881720430107527
2.881720430107527
2.870967741935484
2.8484848484848486
2.8181818181818183
2.779081133919844
2.729227761485826
2.6695992179863146
2.6021505376344085
2.5288367546432062
2.450635386119257
2.3714565004887587
2.294232649071359
2.220918866080156
2.155425219941349
2.096774193548387
2.048875855327468
2.0097751710654936
1.9736070381231672
1.9413489736070384
1.9130009775171064
1.8866080156402736
1.8621700879765395
1.8377321603128052
1.812316715542522
1.7859237536656891
1.758553274682307
1.729227761485826
1.6979472140762464
1.6695992179863148
1.643206256109482
1.6129032258064515
1.5806451612903225
1.547409579667644
1.5151515151515151
1.482893450635386
1.4516129032258065
1.4213098729227762
1.3919843597262953
1.364613880742913
1.3391984359726294
1.3186705767350928
1.3020527859237536
1.2825024437927663
1.262952101661779
1.2424242424242424
1.2238514173998043
1.2072336265884651
1.1925708699902249
1.1798631476050832
1.1681329423264908
1.1583577712609971
1.1485826001955035
1.142717497556207
1.13880742913001
1.1319648093841643
1.1241446725317692
1.1163245356793745
1.10752688172043
1.0987292277614855
1.0909090909090908
1.083088954056696
1.0762463343108504
1.0694037145650048
1.0625610948191593
1.056695992179863
1.053763440860215
1.0518084066471165
1.0478983382209188
1.043010752688172
1.0371456500488758
1.0312805474095796
1.0273704789833822
1.0224828934506354
1.0175953079178883
1.0146627565982405
1.0117302052785924
1.0097751710654936
1.010752688172043
1.0127077223851415
1.0127077223851415
1.0127077223851415
1.0127077223851415
1.0127077223851415
1.0127077223851415
1.0127077223851415
1.0127077223851415
1.0127077223851415
1.0127077223851415
1.013685239491691
1.018572825024438
1.0303030303030305
1.050830889540567
1.086021505376344
1.1407624633431086
1.2189638318670577
1.321603128054741
1.4467253176930597
1.590420332355816
1.747800586510264
1.911045943304008
2.0733137829912023
2.2277614858260018
2.3519061583577714
2.453567937438905
2.555229716520039
2.6471163245356792
2.7253176930596283
2.789833822091887
2.8396871945259043
2.87683284457478
2.9012707722385143
2.9149560117302054
2.917888563049853
2.911045943304008
2.8944281524926687
2.8690127077223853
2.834799608993157
2.790811339198436
2.736070381231672
2.6715542521994133
2.5992179863147604
2.5210166177908118
2.4408602150537635
2.360703812316716
2.2952101661779083
2.241446725317693
2.1867057673509285
2.1388074291300097
2.0987292277614857
2.06158357771261
2.0283479960899315
1.9990224828934504
1.9726295210166176
1.9472140762463344
1.921798631476051
1.8973607038123168
1.871945259042033
1.844574780058651
1.8142717497556209
1.7810361681329423
1.750733137829912
1.721407624633431
1.6871945259042034
1.6520039100684265
1.616813294232649
1.5835777126099706
1.5503421309872922
1.5180840664711632
1.487781036168133
1.458455522971652
1.43108504398827
1.404692082111437
1.3841642228739004
1.367546432062561
1.348973607038123
1.3304007820136852
1.3128054740957966
1.2971652003910068
1.2825024437927663
1.2688172043010753
1.2561094819159335
1.2424242424242424
1.23069403714565
1.2218963831867058
1.2140762463343109
1.2101661779081134
1.2072336265884651
1.2023460410557183
1.195503421309873
1.1886608015640274
1.1808406647116323
1.1730205278592376
1.164222873900293
1.1564027370478984
1.1495601173020529
1.142717497556207
1.1368523949169111
1.133919843597263
1.1319648093841643
1.1280547409579669
1.1241446725317692
1.1192570869990224
1.1143695014662756
1.1094819159335287
1.1055718475073313
1.1036168132942326
1.1026392961876832
1.1016617790811338
1.1006842619745845
1.0987292277614855
1.099706744868035
1.1026392961876832
1.1036168132942326
1.104594330400782
1.104594330400782
1.104594330400782
1.104594330400782
1.1036168132942326
1.1026392961876832
1.1036168132942326
1.1094819159335287
1.1231671554252198
1.1466275659824048
1.1827956989247312
1.241446725317693
1.324535679374389
1.4320625610948192
1.5620723362658846
1.710654936461388
1.871945259042033
2.040078201368524
2.206256109481916
2.364613880742913
2.509286412512219
2.638318670576735
2.7341153470185726
2.806451612903226
2.874877810361681
2.9335288367546437
2.981427174975562
3.018572825024438
3.0449657869012707
3.0625610948191597
3.070381231671554
3.067448680351906
3.0547409579667644
3.0332355816226784
3.0019550342130987
2.961876832844575
2.9100684261974585
2.8475073313782997
2.7751710654936463
2.695014662756598
2.6099706744868034
2.5239491691104594
2.439882697947214
2.360703812316716
2.289345063538612
2.2267839687194524
2.1730205278592374
2.129032258064516
2.09188660801564
2.0576735092864125
2.026392961876833
1.9960899315738023
1.9667644183773216
1.9374389051808407
1.90811339198436
1.878787878787879
1.847507331378299
1.81524926686217
1.7810361681329423
1.7497556207233629
1.7204301075268815
1.6871945259042034
1.6520039100684265
1.616813294232649
1.581622678396872
1.547409579667644
1.5151515151515151
1.4838709677419355
1.4545454545454546
1.4271749755620724
1.4007820136852396
1.3763440860215057
1.3577712609970674
1.3421309872922775
1.3235581622678396
1.3049853372434017
1.2873900293255132
1.2697947214076246
1.2541544477028348
1.2404692082111437
1.227761485826002
1.217008797653959
1.206256109481916
1.195503421309873
1.187683284457478
1.181818181818182
1.1730205278592376
1.164222873900293
1.155425219941349
1.147605083088954
1.1407624633431086
1.1329423264907137
1.126099706744868
1.1192570869990224
1.1124144672531768
1.1055718475073313
1.1006842619745845
1.0977517106549364
1.0928641251221896
1.0879765395894427
1.0821114369501466
1.075268817204301
1.0694037145650048
1.0625610948191593
1.0557184750733135
1.0488758553274682
1.0439882697947214
1.040078201368524
1.0371456500488758
1.0371456500488758
1.0391006842619743
1.0391006842619743
1.0381231671554252
1.0361681329423265
1.0342130987292275
1.032258064516129
1.0303030303030305
1.0283479960899315
1.0263929618768328
1.0263929618768328
1.0342130987292275
1.050830889540567
1.0801564027370478
1.1280547409579669
1.1994134897360704
1.2961876832844574
1.4173998044965788
1.560117302052786
1.7174975562072337
1.8836754643206255
2.0518084066471163
2.2140762463343107
2.3655913978494625
2.5004887585532747
2.6021505376344085
2.6803519061583576
2.7536656891495603
2.817204301075269
2.868035190615836
2.906158357771261
2.9345063538611926
2.95405669599218
2.963831867057673
2.964809384164223
2.956011730205278
2.935483870967742
2.9042033235581624
2.863147605083089
2.8103616813294234
2.7468230694037143
2.674486803519061
2.595307917888563
2.5131964809384164
2.4301075268817205
2.3489736070381237
2.272727272727273
2.203323558162268
2.1407624633431084
2.086021505376344
2.043010752688172
2.006842619745845
1.9736070381231672
1.943304007820137
1.9159335288367547
1.889540566959922
1.865102639296188
1.839687194525904
1.812316715542522
1.782991202346041
1.7517106549364614
1.7194525904203324
1.6901270772238517
1.66177908113392
1.629521016617791
1.5943304007820136
1.5581622678396871
1.521016617790811
1.4858260019550342
1.452590420332356
1.4203323558162269
1.3900293255131966
1.3626588465298142
1.3372434017595307
1.3128054740957966
1.2942326490713587
1.2795698924731185
1.262952101661779
1.2394916911045943
1.2130987292277615
1.1945259042033236
1.1788856304985338
1.164222873900293
1.1515151515151516
1.13880742913001
1.1270772238514175
1.115347018572825
1.10752688172043
1.1016617790811338
1.0928641251221896
1.0840664711632453
1.075268817204301
1.067448680351906
1.0596285434995112
1.0527859237536656
1.04594330400782
1.040078201368524
1.0332355816226784
1.0273704789833822
1.0205278592375366
1.0175953079178883
1.0156402737047898
1.0117302052785924
1.0068426197458455
1.0009775171065494
0.9951124144672532
0.989247311827957
0.9843597262952102
0.9804496578690128
0.978494623655914
0.978494623655914
0.9794721407624634
0.9824046920821116
0.9863147605083088
0.9882697947214076
0.989247311827957
0.989247311827957
0.9872922776148584
0.9853372434017597
0.9833822091886608
0.9804496578690128
0.978494623655914
0.978494623655914
0.981427174975562
0.9912023460410556
1.0087976539589445
1.0381231671554252
1.086021505376344
1.155425219941349
1.2482893450635386
1.364613880742913
1.500488758553275
1.651026392961877
1.8103616813294232
1.9716520039100685
2.1270772238514173
2.272727272727273
2.388074291300098
2.479960899315738
2.5698924731182795
2.650048875855328
2.717497556207233
2.7702834799608995
2.809384164222874
2.8377321603128056
2.8563049853372435
2.865102639296188
2.8641251221896384
2.8533724340175954
2.831867057673509
2.801564027370479
2.7614858260019552
2.7096774193548385
2.6471163245356792
2.575757575757576
2.4975562072336266
2.41544477028348
2.334310850439883
2.2551319648093844
2.1808406647116323
2.115347018572825
2.0576735092864125
2.0117302052785924
1.9736070381231672
1.9393939393939397
1.9090909090909087
1.8826979472140764
1.858260019550342
1.833822091886608
1.8093841642228736
1.7839687194525904
1.7565982404692082
1.7272727272727273
1.6959921798631477
1.6637341153470186
1.6344086021505375
1.607038123167155
1.576735092864125
1.543499511241447
1.5102639296187683
1.47702834799609
1.444770283479961
1.4134897360703813
1.383186705767351
1.35386119257087
1.327468230694037
1.3020527859237536
1.2825024437927663
1.2658846529814272
1.2482893450635386
1.23069403714565
1.2130987292277615
1.1964809384164223
1.1808406647116323
1.1652003910068427
1.1495601173020529
1.1368523949169111
1.126099706744868
1.1163245356793745
1.110459433040078
1.1065493646138806
1.099706744868035
1.0928641251221896
1.0850439882697946
1.0762463343108504
1.0684261974584557
1.06158357771261
1.0547409579667644
1.0478983382209188
1.0420332355816226
1.0342130987292275
1.0263929618768328
1.0224828934506354
1.0205278592375366
1.0166177908113392
1.0117302052785924
1.0068426197458455
1.0019550342130987
0.9980449657869012
0.9941348973607038
0.9902248289345064
0.9863147605083088
0.9833822091886608
0.9804496578690128
0.981427174975562
