ppg
1.3499511241446724
1.3284457478005864
1.3079178885630498
1.2883675464320623
1.2746823069403714
1.2639296187683284
1.249266862170088
1.2346041055718475
1.219941348973607
1.2052785923753666
1.1915933528836755
1.1788856304985338
1.166177908113392
1.155425219941349
1.1456500488758554
1.1368523949169111
1.1290322580645162
1.126099706744868
1.1241446725317692
1.1202346041055715
1.115347018572825
1.1114369501466277
1.1065493646138806
1.1026392961876832
1.0977517106549364
1.0928641251221896
1.0869990224828934
1.0811339198435972
1.0772238514173995
1.0811339198435972
1.0957966764418376
1.1251221896383188
1.176930596285435
1.2561094819159335
1.3636363636363635
1.4975562072336266
1.651026392961877
1.81524926686217
1.981427174975562
2.142717497556207
2.29227761485826
2.4271749755620724
2.530791788856305
2.6129032258064515
2.6930596285435
2.7653958944281527
2.827956989247312
2.8797653958944283
2.921798631476051
2.95405669599218
2.9765395894428157
2.991202346041056
2.9980449657869013
2.997067448680352
2.986314760508309
2.967741935483871
2.943304007820137
2.911045943304008
2.870967741935484
2.8211143695014664
2.7614858260019552
2.6930596285435
2.616813294232649
2.535679374389052
2.453567937438905
2.3714565004887587
2.291300097751711
2.2218963831867056
2.161290322580645
2.1006842619745845
2.043010752688172
1.989247311827957
1.9403714565004888
1.8944281524926687
1.8523949169110456
1.8132942326490715
1.775171065493646
1.7390029325513197
1.7028347996089932
1.672531769305963
1.6451612903225807
1.6148582600195502
1.58455522971652
1.5532746823069403
1.52297165200391
1.4926686217008798
1.4633431085043989
1.435972629521017
1.4086021505376345
1.3822091886608017
1.356793743890518
1.332355816226784
1.313782991202346
1.2981427174975562
1.2795698924731185
1.260019550342131
1.2404692082111437
1.2209188660801564
1.2023460410557183
1.1837732160312806
1.1671554252199414
1.1515151515151516
1.1368523949169111
1.1241446725317692
1.115347018572825
1.1094819159335287
1.1026392961876832
1.0948191593352885
1.0869990224828934
1.0791788856304985
1.072336265884653
1.0664711632453567
1.0606060606060606
1.0557184750733135
1.0518084066471165
1.0478983382209188
1.0469208211143697
1.0469208211143697
1.043010752688172
1.0391006842619743
1.0391006842619743
1.0498533724340176
1.078201368523949
1.1300097751710656
1.2101661779081134
1.3186705767350928
1.452590420332356
1.606060606060606
1.7702834799608993
1.9149560117302051
2.04594330400782
2.1847507331378297
2.317693059628544
2.439882697947214
2.547409579667644
2.641251221896383
2.720430107526881
2.7869012707722387
2.8406647116324537
2.8836754643206257
2.916911045943304
2.9345063538611926
2.941348973607038
2.945259042033236
2.9442815249266863
2.936461388074292
2.920821114369501
2.897360703812317
2.865102639296188
2.823069403714565
2.771260997067449
2.7096774193548385
2.6402737047898337
2.5650048875855327
2.49266862170088
2.4222873900293256
2.346041055718475
2.2688172043010755
2.193548387096774
2.12316715542522
2.0576735092864125
1.9990224828934504
1.946236559139785
1.8993157380254155
1.8563049853372435
1.8162267839687196
1.7839687194525904
1.7546432062561097
1.7223851417399805
1.689149560117302
1.6559139784946235
1.6236559139784943
1.5913978494623655
1.5591397849462365
1.5278592375366569
1.498533724340176
1.469208211143695
1.4418377321603129
1.41544477028348
1.393939393939394
1.375366568914956
1.35386119257087
1.3313782991202343
1.3088954056695992
1.2864125122189638
1.2649071358748778
1.2443792766373412
1.2238514173998043
1.2043010752688172
1.1867057673509287
1.1700879765395895
1.1583577712609971
1.1495601173020529
1.13880742913001
1.1270772238514175
1.115347018572825
1.104594330400782
1.093841642228739
1.0840664711632453
1.075268817204301
1.067448680351906
1.06158357771261
1.056695992179863
1.053763440860215
1.053763440860215
1.056695992179863
1.0576735092864125
1.056695992179863
1.053763440860215
1.0498533724340176
1.0469208211143697
1.0498533724340176
1.0654936461388074
1.099706744868035
1.1593352883675463
1.24633431085044
1.343108504398827
1.4535679374389052
1.5933528836754642
1.7497556207233629
1.9130009775171064
2.074291300097752
2.225806451612903
2.363636363636364
2.4858260019550342
2.591397849462365
2.6823069403714563
2.758553274682307
2.8211143695014664
2.863147605083089
2.8914956011730206
2.918866080156403
2.9393939393939394
2.95405669599218
2.960899315738025
2.959921798631476
2.9501466275659824
2.9315738025415445
2.9042033235581624
2.8670576735092865
2.819159335288368
2.7673509286412514
2.710654936461388
2.644183773216031
2.5698924731182795
2.490713587487781
2.409579667644184
2.329423264907136
2.2521994134897363
2.1788856304985336
2.112414467253177
2.0518084066471163
1.997067448680352
1.948191593352884
1.90811339198436
1.8729227761485825
1.836754643206256
1.801564027370479
1.7673509286412512
1.7331378299120237
1.6989247311827955
1.6656891495601174
1.632453567937439
1.6001955034213098
1.5698924731182795
1.5405669599217986
1.5161290322580645
1.4946236559139785
1.4701857282502444
1.444770283479961
1.418377321603128
1.391006842619746
1.364613880742913
1.3391984359726294
1.313782991202346
1.289345063538612
1.2668621700879763
1.2453567937438903
1.224828934506354
1.2101661779081134
1.1994134897360704
1.1857282502443791
1.1720430107526882
1.1583577712609971
1.1456500488758554
1.133919843597263
1.1231671554252198
1.1133919843597262
1.1055718475073313
1.0987292277614855
1.0928641251221896
1.0909090909090908
1.0909090909090908
1.0879765395894427
1.0840664711632453
1.0801564027370478
1.075268817204301
1.0703812316715542
1.0654936461388074
1.0596285434995112
1.053763440860215
1.050830889540567
1.0547409579667644
1.0713587487781036
1.1006842619745845
1.147605083088954
1.2238514173998043
1.3294232649071358
1.4613880742913
1.6148582600195502
1.780058651026393
1.948191593352884
2.112414467253177
2.2658846529814274
2.404692082111437
2.5268817204301075
2.6207233626588464
2.6940371456500487
2.7653958944281527
2.8289345063538613
2.8836754643206257
2.9286412512218964
2.962854349951124
2.988269794721408
3.003910068426197
3.010752688172043
3.0087976539589443
2.99902248289345
2.9804496578690127
2.9530791788856305
2.917888563049853
2.874877810361681
2.822091886608016
2.760508308895406
2.6901270772238512
2.6129032258064515
2.5317693059628543
2.447702834799609
2.363636363636364
2.2825024437927666
2.206256109481916
2.142717497556207
2.0869990224828934
2.03128054740958
1.9794721407624636
1.9305962854349952
1.8856304985337244
1.8435972629521016
1.8054740957966764
1.76930596285435
1.7331378299120237
1.6989247311827955
1.664711632453568
1.6363636363636365
1.6041055718475072
1.5650048875855327
1.5298142717497556
1.4965786901270772
1.4652981427174976
1.4349951124144673
1.4056695992179864
1.3782991202346042
1.3528836754643203
1.327468230694037
1.303030303030303
1.2795698924731185
1.2619745845552297
1.2473118279569892
1.2297165200391007
1.2121212121212122
1.1945259042033236
1.176930596285435
1.160312805474096
1.144672531769306
1.1300097751710656
1.1163245356793745
1.1036168132942326
1.0918866080156402
1.0840664711632453
1.0791788856304985
1.072336265884653
1.064516129032258
1.056695992179863
1.0488758553274682
1.0420332355816226
1.0361681329423265
1.0312805474095796
1.0273704789833822
1.0234604105571847
1.0195503421309873
1.0156402737047898
1.0146627565982405
1.0146627565982405
1.0127077223851415
1.013685239491691
1.024437927663734
1.050830889540567
1.099706744868035
1.1759530791788857
1.2825024437927663
1.4164222873900294
1.56891495601173
1.7341153470185728
1.881720430107527
2.016617790811339
2.1593352883675463
2.2981427174975564
2.4242424242424243
2.5376344086021505
2.636363636363636
2.720430107526881
2.789833822091887
2.8475073313782997
2.89345063538612
2.927663734115347
2.952101661779081
2.960899315738025
2.9589442815249267
2.9530791788856305
2.941348973607038
2.919843597262952
2.889540566959922
2.849462365591398
2.7996089931573804
2.740957966764418
2.6725317693059627
2.5972629521016617
2.517106549364614
2.442815249266862
2.372434017595308
2.2961876832844577
2.220918866080156
2.1495601173020527
2.083088954056696
2.022482893450636
1.9687194525904204
1.919843597262952
1.8748778103616808
1.833822091886608
1.7956989247311828
1.7595307917888563
1.7282502443792769
1.699902248289345
1.667644183773216
1.635386119257087
1.6021505376344083
1.5698924731182795
1.5386119257087
1.5083088954056696
1.478005865102639
1.4486803519061584
1.4203323558162269
1.392961876832845
1.3714565004887584
1.3528836754643203
1.3313782991202343
1.3088954056695992
1.2864125122189638
1.2649071358748778
1.2443792766373412
1.224828934506354
1.206256109481916
1.187683284457478
1.1700879765395895
1.1534701857282503
1.1378299120234605
1.126099706744868
1.118279569892473
1.1085043988269794
1.0977517106549364
1.0879765395894427
1.078201368523949
1.0694037145650048
1.06158357771261
1.053763440860215
1.0469208211143697
1.0410557184750733
1.0361681329423265
1.035190615835777
1.0371456500488758
1.0361681329423265
1.035190615835777
1.0332355816226784
1.0303030303030305
1.0263929618768328
1.021505376344086
1.0175953079178883
1.018572825024438
1.029325513196481
1.0576735092864125
1.1094819159335287
1.1749755620723363
1.2590420332355816
1.3763440860215057
1.5190615835777126
1.6774193548387095
1.8435972629521016
2.007820136852395
2.164222873900293
2.30791788856305
2.436950146627566
2.549364613880743
2.6451612903225805
2.7145650048875853
2.766373411534702
2.814271749755621
2.855327468230694
2.887585532746823
2.9100684261974585
2.9227761485826003
2.9257086999022484
2.918866080156403
2.9012707722385143
2.873900293255132
2.835777126099707
2.787878787878788
2.735092864125122
2.677419354838709
2.6099706744868034
2.535679374389052
2.458455522971652
2.380254154447703
2.304007820136853
2.231671554252199
2.1652003910068425
2.104594330400782
2.0498533724340176
2.0009775171065494
1.9608993157380252
1.9257086999022484
1.889540566959922
1.8543499511241448
1.8191593352883677
1.7859237536656891
1.75366568914956
1.721407624633431
1.689149560117302
1.6578690127077225
1.6265884652981428
1.595307917888563
1.5650048875855327
1.5405669599217986
1.5190615835777126
1.4946236559139785
1.469208211143695
1.4437927663734116
1.4203323558162269
1.3978494623655917
1.3763440860215057
1.3548387096774193
1.3343108504398826
1.3147605083088951
1.2961876832844574
1.2825024437927663
1.270772238514174
1.2570869990224829
1.2424242424242424
1.2287390029325511
1.2160312805474096
1.2043010752688172
1.1935483870967742
1.1837732160312806
1.173998044965787
1.164222873900293
1.1564027370478984
1.152492668621701
1.1505376344086022
1.1466275659824048
1.142717497556207
1.1397849462365592
1.1368523949169111
1.133919843597263
1.130987292277615
1.1280547409579669
1.1251221896383188
1.121212121212121
1.1163245356793745
1.1114369501466277
1.1114369501466277
1.1173020527859236
1.130987292277615
1.160312805474096
1.2130987292277615
1.2932551319648091
1.4027370478983383
1.5376344086021505
1.6911045943304008
1.8563049853372435
2.024437927663734
2.1867057673509285
2.318670576735093
2.429130009775171
2.5405669599217986
2.644183773216031
2.735092864125122
2.8132942326490715
2.877810361681329
2.929618768328446
2.9687194525904204
2.9980449657869013
3.0175953079178885
3.026392961876833
3.024437927663734
3.0117302052785924
2.9902248289345064
2.961876832844575
2.9237536656891496
2.87683284457478
2.819159335288368
2.752688172043011
2.6725317693059627
2.5835777126099706
2.4975562072336266
2.41544477028348
2.3382209188660803
2.271749755620724
2.2140762463343107
2.156402737047898
2.101661779081134
2.050830889540567
2.004887585532747
1.9618768328445748
1.921798631476051
1.8836754643206255
1.8465298142717497
1.8103616813294232
1.775171065493646
1.7409579667644184
1.7116324535679377
1.6852394916911049
1.656891495601173
1.6265884652981428
1.5972629521016617
1.5679374389051808
1.5386119257087
1.5102639296187683
1.482893450635386
1.456500488758553
1.4320625610948192
1.4086021505376345
1.3890518084066472
1.3724340175953078
1.3528836754643203
1.332355816226784
1.3118279569892473
1.29227761485826
1.2727272727272727
1.2551319648093842
1.238514173998045
1.2218963831867058
1.206256109481916
1.1925708699902249
1.1798631476050832
1.1720430107526882
1.1671554252199414
1.160312805474096
1.152492668621701
1.144672531769306
1.1368523949169111
1.130987292277615
1.1251221896383188
1.1202346041055715
1.1143695014662756
1.1094819159335287
1.104594330400782
1.1036168132942326
1.1026392961876832
1.0977517106549364
1.0918866080156402
1.0869990224828934
1.0869990224828934
1.099706744868035
1.1300097751710656
1.18475073313783
1.267839687194526
1.380254154447703
1.5180840664711632
1.6744868035190617
1.8201368523949168
1.956989247311828
2.10752688172043
2.2561094819159337
2.3949169110459434
2.5190615835777126
2.627565982404692
2.720430107526881
2.7976539589442817
2.86217008797654
2.9149560117302054
2.956011730205278
2.979472140762464
2.991202346041056
3.0009775171065494
3.004887585532747
3.0019550342130987
2.992179863147605
2.972629521016618
2.9442815249266863
2.9071358748778104
2.860215053763441
2.803519061583578
2.7370478983382207
2.6637341153470184
2.593352883675464
2.52297165200391
2.44672531769306
2.3685239491691106
2.291300097751711
2.218963831867057
2.1524926686217007
2.090909090909091
2.035190615835777
1.9853372434017595
1.9393939393939397
1.8963831867057677
1.8602150537634408
1.827956989247312
1.793743890518084
1.7595307917888563
1.7253176930596286
1.6911045943304008
1.6578690127077225
1.6256109481915937
1.5933528836754642
1.5620723362658846
1.5317693059628543
1.5024437927663734
1.474095796676442
1.4506353861192571
1.4301075268817205
1.4066471163245358
1.3822091886608017
1.356793743890518
1.332355816226784
1.3088954056695992
1.2873900293255132
1.2668621700879763
1.2473118279569892
1.227761485826002
1.209188660801564
1.195503421309873
1.1857282502443791
1.173998044965787
1.160312805474096
1.147605083088954
1.1358748778103618
1.1251221896383188
1.1143695014662756
1.104594330400782
1.0957966764418376
1.0879765395894427
1.0801564027370478
1.0733137829912025
1.0713587487781036
1.0713587487781036
1.0694037145650048
1.0664711632453567
1.06158357771261
1.0557184750733135
1.0488758553274682
1.0439882697947214
1.0449657869012707
1.0586510263929618
1.0918866080156402
1.1495601173020529
1.2209188660801564
1.310850439882698
1.434017595307918
1.581622678396872
1.7438905180840665
1.911045943304008
2.075268817204301
2.228739002932551
2.3685239491691106
2.4916911045943304
2.598240469208211
2.689149560117302
2.7546432062561097
2.803519061583578
2.850439882697948
2.8914956011730206
2.9237536656891496
2.9472140762463344
2.961876832844575
2.967741935483871
2.9657869012707723
2.95405669599218
2.9335288367546437
2.9042033235581624
2.865102639296188
2.820136852394917
2.76930596285435
2.70772238514174
2.6373411534701856
2.5610948191593352
2.479960899315738
2.3978494623655915
2.3167155425219943
2.239491691104594
2.167155425219941
2.101661779081134
2.042033235581622
1.9931573802541545
1.951124144672532
1.9100684261974583
1.870967741935484
1.8318670576735088
1.793743890518084
1.7565982404692082
1.7194525904203324
1.683284457478006
1.6490713587487782
1.6148582600195502
1.581622678396872
1.5493646138807429
1.521994134897361
1.4965786901270772
1.4682306940371457
1.439882697947214
1.4115347018572826
1.3841642228739004
1.3577712609970674
1.332355816226784
1.3079178885630498
1.2854349951124144
1.2639296187683284
1.2424242424242424
1.2267839687194526
1.2140762463343109
1.198435972629521
1.181818181818182
1.1652003910068427
1.1495601173020529
1.1348973607038124
1.121212121212121
1.1085043988269794
1.0977517106549364
1.0879765395894427
1.078201368523949
1.0694037145650048
1.064516129032258
1.0625610948191593
1.0586510263929618
1.053763440860215
1.0488758553274682
1.0449657869012707
1.0410557184750733
1.0371456500488758
1.032258064516129
1.0263929618768328
1.0205278592375366
1.0146627565982405
1.0146627565982405
1.0224828934506354
1.0410557184750733
1.078201368523949
1.1407624633431086
1.2316715542521994
1.3499511241446724
1.4926686217008798
1.6520039100684265
1.818181818181818
1.9833822091886608
2.1407624633431084
2.2844574780058653
2.396871945259042
2.484848484848485
2.570869990224829
2.649071358748778
2.717497556207233
2.776148582600196
2.8240469208211145
2.86217008797654
2.889540566959922
2.906158357771261
2.913978494623656
2.913000977517106
2.902248289345064
2.8826979472140764
2.857282502443793
2.823069403714565
2.7810361681329425
2.729227761485826
2.667644183773216
2.5972629521016617
2.520039100684262
2.4379276637341154
2.35386119257087
2.271749755620724
2.1925708699902247
2.126099706744868
2.0684261974584555
2.010752688172043
1.9560117302052784
1.906158357771261
1.86119257086999
1.8201368523949168
1.7820136852394917
1.7458455522971652
1.7116324535679377
1.6774193548387095
1.6451612903225807
1.616813294232649
1.5913978494623655
1.563049853372434
1.533724340175953
1.5034213098729228
1.474095796676442
1.4457478005865103
1.4193548387096775
1.393939393939394
1.3685239491691104
1.3440860215053765
1.3206256109481915
1.2971652003910068
1.2795698924731185
1.2639296187683284
1.24633431085044
1.227761485826002
1.209188660801564
1.1915933528836755
1.173998044965787
1.1573802541544478
1.141739980449658
1.1270772238514175
1.1133919843597262
1.099706744868035
1.0918866080156402
1.0869990224828934
1.0801564027370478
1.0733137829912025
1.0654936461388074
1.0586510263929618
1.0527859237536656
1.0469208211143697
1.0410557184750733
1.0361681329423265
1.0312805474095796
1.0263929618768328
1.021505376344086
1.0205278592375366
1.0205278592375366
1.0166177908113392
1.010752688172043
1.007820136852395
1.0117302052785924
1.029325513196481
1.067448680351906
1.130987292277615
1.2228739002932552
1.343108504398827
1.4858260019550342
1.6217008797653958
1.7546432062561097
1.905180840664712
2.0576735092864125
2.2023460410557183
2.334310850439883
2.450635386119257
2.5513196480938416
2.6373411534701856
2.70772238514174
2.7653958944281527
2.8103616813294234
2.8455522971652005
2.8641251221896384
2.8719452590420333
2.874877810361681
2.870967741935484
2.860215053763441
2.8396871945259043
2.8103616813294234
2.771260997067449
2.721407624633431
2.66177908113392
2.5943304007820136
2.5190615835777126
2.44672531769306
2.377321603128055
2.3010752688172045
2.2248289345063537
2.1515151515151514
2.083088954056696
2.0205278592375366
1.964809384164223
1.9149560117302051
1.8699902248289344
1.828934506353861
1.790811339198436
1.7546432062561097
1.7233626588465298
1.6959921798631477
1.6656891495601174
1.6344086021505375
1.6041055718475072
1.5728250244379276
1.541544477028348
1.5112414467253177
1.4809384164222874
1.452590420332356
1.4252199413489737
1.3988269794721409
1.3773216031280548
1.359726295210166
1.3391984359726294
1.3176930596285434
1.2961876832844574
1.2756598240469208
1.2561094819159335
1.2365591397849462
1.2179863147605083
1.1994134897360704
1.181818181818182
1.166177908113392
1.155425219941349
1.147605083088954
1.1368523949169111
1.1251221896383188
1.1133919843597262
1.1026392961876832
1.0928641251221896
1.0840664711632453
1.0762463343108504
1.0694037145650048
1.064516129032258
1.0596285434995112
1.0557184750733135
1.0547409579667644
1.0557184750733135
1.0547409579667644
1.0527859237536656
1.050830889540567
1.0498533724340176
1.0478983382209188
1.04594330400782
1.043010752688172
1.0410557184750733
1.0439882697947214
1.0576735092864125
1.0821114369501466
1.1221896383186705
1.1886608015640274
1.2825024437927663
1.4037145650048877
1.5464320625610948
1.7038123167155426
1.868035190615836
2.0303030303030303
2.1837732160312804
2.3225806451612905
2.4457478005865103
2.5532746823069403
2.632453567937439
2.69208211143695
2.750733137829912
2.8025415444770285
2.8455522971652005
2.878787878787879
2.903225806451613
2.917888563049853
2.9237536656891496
2.920821114369501
2.9071358748778104
2.8836754643206257
2.852394916911046
2.8132942326490715
2.7653958944281527
2.70772238514174
2.641251221896383
2.56891495601173
2.49266862170088
2.41544477028348
2.3391984359726297
2.2668621700879767
2.19941348973607
2.1378299120234603
2.081133919843597
2.035190615835777
1.9951124144672527
1.9550342130987293
1.9159335288367547
1.8778103616813293
1.8416422287390029
1.8054740957966764
1.7712609970674489
1.737047898338221
1.7028347996089932
1.6686217008797657
1.635386119257087
1.607038123167155
1.581622678396872
1.5532746823069403
1.5249266862170088
1.495601173020528
1.466275659824047
1.4379276637341154
1.4105571847507332
1.3841642228739004
1.3587487781036167
1.335288367546432
1.313782991202346
1.2932551319648091
1.2776148582600195
1.2649071358748778
1.249266862170088
1.2326490713587488
1.2160312805474096
1.2003910068426198
1.1867057673509287
1.173998044965787
1.1622678396871946
1.1505376344086022
1.13880742913001
1.1280547409579669
1.1221896383186705
1.118279569892473
1.1124144672531768
1.1055718475073313
1.0987292277614855
1.093841642228739
1.088954056695992
1.0850439882697946
1.0821114369501466
1.0791788856304985
1.075268817204301
1.0703812316715542
1.064516129032258
1.06158357771261
1.0625610948191593
1.0684261974584557
1.086021505376344
1.1231671554252198
1.1867057673509287
1.2795698924731185
1.4007820136852396
1.547409579667644
1.7126099706744868
1.8856304985337244
2.058651026392962
2.203323558162268
2.326490713587488
2.453567937438905
2.5718475073313782
2.677419354838709
2.768328445747801
2.8455522971652005
2.909090909090909
2.960899315738025
3.0009775171065494
3.03128054740958
3.0527859237536656
3.064516129032258
3.064516129032258
3.0557184750733137
3.043010752688172
3.0234604105571847
2.995112414467253
2.9579667644183774
2.911045943304008
2.854349951124145
2.787878787878788
2.713587487781036
2.633431085043988
2.549364613880743
2.472140762463343
2.39980449657869
2.324535679374389
2.2502443792766376
2.179863147605083
2.1163245356793743
2.058651026392962
2.005865102639296
1.956989247311828
1.9120234604105573
1.8699902248289344
1.828934506353861
1.7898338220918866
1.7565982404692082
1.726295210166178
1.694037145650049
1.6598240469208212
1.6256109481915937
1.5923753665689149
1.5591397849462365
1.5268817204301075
1.495601173020528
1.4652981427174976
1.436950146627566
1.4086021505376345
1.3870967741935485
1.3685239491691104
1.3470185728250244
1.3255131964809383
1.3040078201368523
1.2825024437927663
1.2619745845552297
1.241446725317693
1.2209188660801564
1.2013685239491692
1.1827956989247312
1.1652003910068427
1.147605083088954
1.1358748778103618
1.1280547409579669
1.1173020527859236
1.1055718475073313
1.0948191593352885
1.086021505376344
1.078201368523949
1.0703812316715542
1.0635386119257086
1.0576735092864125
1.0527859237536656
1.0488758553274682
1.0488758553274682
1.0498533724340176
1.0478983382209188
1.043010752688172
1.0371456500488758
1.0303030303030305
1.0254154447702837
1.0273704789833822
1.043010752688172
1.0801564027370478
1.144672531769306
1.2394916911045943
1.364613880742913
1.4926686217008798
1.6256109481915937
1.7839687194525904
1.9521016617790807
2.118279569892473
2.274682306940372
2.4164222873900294
2.541544477028348
2.650048875855328
2.7419354838709675
2.820136852394917
2.8856304985337244
2.929618768328446
2.959921798631476
2.988269794721408
3.010752688172043
3.027370478983382
3.0361681329423265
3.037145650048876
3.0303030303030303
3.0146627565982405
2.9902248289345064
2.956989247311828
