ppg
0.9618768328445748
0.9335288367546432
0.9071358748778104
0.8826979472140762
0.8592375366568915
0.8367546432062561
0.8142717497556208
0.793743890518084
0.7761485826001955
0.7653958944281525
0.7565982404692082
0.7429130009775171
0.7272727272727273
0.7096774193548387
0.6911045943304008
0.6735092864125122
0.656891495601173
0.6412512218963832
0.6265884652981427
0.6109481915933529
0.5953079178885631
0.5855327468230694
0.5786901270772239
0.5689149560117303
0.5591397849462365
0.552297165200391
0.5513196480938416
0.5591397849462365
0.5806451612903226
0.6158357771260997
0.667644183773216
0.7350928641251222
0.8162267839687195
0.9100684261974584
1.0009775171065494
1.0909090909090908
1.1935483870967742
1.3010752688172045
1.4086021505376345
1.5102639296187683
1.6041055718475072
1.6871945259042034
1.758553274682307
1.8201368523949168
1.870967741935484
1.9120234604105573
1.9413489736070384
1.9608993157380252
1.9765395894428155
1.986314760508309
1.989247311827957
1.9833822091886608
1.967741935483871
1.943304007820137
1.9100684261974583
1.8699902248289344
1.825024437927664
1.7761485826001957
1.7243401759530792
1.6793743890518085
1.6412512218963833
1.6021505376344083
1.563049853372434
1.5239491691104594
1.4887585532746823
1.456500488758553
1.4271749755620724
1.401759530791789
1.3782991202346042
1.3577712609970674
1.33822091886608
1.3225806451612905
1.3098729227761483
1.295210166177908
1.278592375366569
1.2619745845552297
1.24633431085044
1.2287390029325511
1.2101661779081134
1.1906158357771262
1.1710654936461389
1.1515151515151516
1.1329423264907137
1.1202346041055715
1.110459433040078
1.096774193548387
1.0821114369501466
1.0664711632453567
1.0488758553274682
1.032258064516129
1.0156402737047898
1.0
0.9853372434017597
0.9706744868035192
0.9560117302052786
0.9403714565004888
0.9305962854349952
0.9227761485826002
0.9110459433040078
0.8983382209188661
0.8856304985337243
0.8709677419354839
0.8543499511241447
0.8367546432062561
0.8211143695014663
0.8064516129032258
0.793743890518084
0.782991202346041
0.7781036168132942
0.7751710654936461
0.7702834799608993
0.7653958944281525
0.761485826001955
0.761485826001955
0.7663734115347018
0.7790811339198436
0.804496578690127
0.8426197458455523
0.8973607038123167
0.9687194525904204
1.0576735092864125
1.147605083088954
1.241446725317693
1.3519061583577712
1.4721407624633431
1.5962854349951123
1.7204301075268815
1.839687194525904
1.9530791788856303
2.058651026392962
2.15347018572825
2.236559139784946
2.3088954056695994
2.3626588465298144
2.404692082111437
2.4457478005865103
2.4838709677419355
2.515151515151515
2.541544477028348
2.5620723362658846
2.575757575757576
2.582600195503421
2.581622678396872
2.570869990224829
2.550342130987292
2.52297165200391
2.490713587487781
2.452590420332356
2.4086021505376345
2.360703812316716
2.3118279569892475
2.2629521016617797
2.2160312805474094
2.1730205278592374
2.132942326490713
2.0957966764418376
2.059628543499511
2.0254154447702835
1.9951124144672527
1.9687194525904204
1.943304007820137
1.919843597262952
1.8963831867057677
1.871945259042033
1.8455522971652003
1.8191593352883677
1.793743890518084
1.7673509286412512
1.7409579667644184
1.715542521994135
1.689149560117302
1.6666666666666667
1.64613880742913
1.6236559139784943
1.603128054740958
1.5826001955034212
1.5620723362658846
1.541544477028348
1.521016617790811
1.501466275659824
1.4819159335288368
1.4643206256109482
1.447702834799609
1.4349951124144673
1.4242424242424243
1.4115347018572826
1.3978494623655917
1.383186705767351
1.370478983382209
1.3587487781036167
1.3479960899315735
1.3372434017595307
1.3255131964809383
1.3147605083088951
1.303030303030303
1.29227761485826
1.284457478005865
1.278592375366569
1.270772238514174
1.2609970674486803
1.2512218963831867
1.2424242424242424
1.2346041055718475
1.33822091886608
1.500488758553275
1.5826001955034212
1.6275659824046922
1.66177908113392
1.6920821114369502
1.7272727272727273
1.7781036168132942
1.8435972629521016
1.924731182795699
2.018572825024438
2.12316715542522
2.2355816226783967
2.3528836754643208
2.472140762463343
2.589442815249267
2.7008797653958942
2.803519061583578
2.8836754643206257
2.949169110459433
3.016617790811339
3.081133919843597
3.139784946236559
3.1915933528836757
3.2375366568914954
3.278592375366569
3.314760508308896
3.3440860215053765
3.366568914956012
3.3822091886608017
3.386119257086999
3.3812316715542523
3.3743890518084068
3.364613880742913
3.347996089931574
3.32355816226784
3.291300097751711
3.2521994134897363
3.206256109481916
3.1544477028347995
3.099706744868035
3.043010752688172
2.986314760508309
2.9345063538611926
2.884652981427175
2.833822091886608
2.782991202346041
2.7341153470185726
2.6901270772238512
2.6480938416422286
2.6080156402737047
2.5698924731182795
2.5347018572825024
2.5034213098729228
2.4731182795698925
2.443792766373412
2.41544477028348
2.3841642228739004
2.3499511241446727
2.314760508308896
2.278592375366569
2.242424242424242
2.207233626588465
2.1730205278592374
2.1378299120234603
2.103616813294233
2.069403714565005
2.0361681329423265
2.007820136852395
1.9824046920821117
1.9560117302052784
1.9315738025415443
1.90811339198436
1.8856304985337244
1.8631476050830889
1.8406647116324533
1.8201368523949168
1.8005865102639296
1.7810361681329423
1.7624633431085044
1.747800586510264
1.7360703812316716
1.7223851417399805
1.7057673509286413
1.689149560117302
1.672531769305963
1.656891495601173
1.6412512218963833
1.6265884652981428
1.611925708699902
1.598240469208211
1.58455522971652
1.5718475073313782
1.564027370478983
1.5610948191593352
1.560117302052786
1.563049853372434
1.573802541544477
1.595307917888563
1.6304985337243405
1.6823069403714566
1.7497556207233629
1.8318670576735088
1.924731182795699
2.027370478983382
2.120234604105572
2.2082111436950145
2.3088954056695994
2.4134897360703813
2.517106549364614
2.613880742913001
2.702834799608993
2.7839687194525906
2.8563049853372435
2.919843597262952
2.973607038123167
3.0195503421309877
3.050830889540567
3.0733137829912023
3.0977517106549364
3.120234604105572
3.136852394916911
3.147605083088954
3.1515151515151514
3.1485826001955037
3.1388074291300097
3.120234604105572
3.09188660801564
3.0547409579667644
3.0117302052785924
2.9667644183773216
2.920821114369501
2.8699902248289346
2.8152492668621703
2.7595307917888565
2.704789833822092
2.6529814271749754
2.6050830889540566
2.5591397849462365
2.515151515151515
2.4750733137829912
2.4389051808406648
2.406647116324536
2.378299120234604
2.3489736070381237
2.3196480938416424
2.291300097751711
2.260997067448681
2.2297165200391005
2.1974584555229715
2.166177908113392
2.1358748778103616
2.1065493646138806
2.075268817204301
2.042033235581622
2.013685239491691
1.988269794721408
1.9589442815249267
1.9286412512218964
1.8993157380254155
1.8699902248289344
1.8416422287390029
1.81524926686217
1.7888563049853372
1.7634408602150538
1.7380254154447703
1.7126099706744868
1.6950146627565983
1.6823069403714566
1.6686217008797657
1.6549364613880744
1.640273704789834
1.6236559139784943
1.606060606060606
1.5884652981427174
1.5718475073313782
1.5562072336265884
1.542521994134897
1.530791788856305
1.5190615835777126
1.5112414467253177
1.5053763440860215
1.4975562072336266
1.4868035190615836
1.474095796676442
1.4623655913978495
1.4535679374389052
1.4457478005865103
1.4437927663734116
1.4516129032258065
1.469208211143695
1.500488758553275
1.5376344086021505
1.58455522971652
1.6490713587487782
1.7272727272727273
1.818181818181818
1.916911045943304
2.0195503421309877
2.12316715542522
2.225806451612903
2.324535679374389
2.418377321603128
2.505376344086021
2.582600195503421
2.641251221896383
2.687194525904203
2.732160312805474
2.773216031280548
2.807429130009776
2.833822091886608
2.855327468230694
2.8729227761485827
2.884652981427175
2.8905180840664717
2.889540566959922
2.8797653958944283
2.86217008797654
2.8377321603128056
2.8054740957966766
2.764418377321604
2.7155425219941347
2.66177908113392
2.6050830889540566
2.547409579667644
2.4916911045943304
2.4359726295210167
2.3822091886608017
2.3304007820136854
2.2825024437927666
2.243401759530792
2.2082111436950145
2.172043010752688
2.136852394916911
2.101661779081134
2.067448680351906
2.0332355816226784
1.9990224828934504
1.962854349951124
1.9257086999022484
1.8875855327468232
1.8484848484848484
1.81524926686217
1.7849462365591398
1.7497556207233629
1.7135874877810362
1.6774193548387095
1.640273704789834
1.6050830889540566
1.5698924731182795
1.5347018572825024
1.501466275659824
1.469208211143695
1.4389051808406648
1.4086021505376345
1.3851417399804498
1.2766373411534702
1.1202346041055715
1.0312805474095796
0.9775171065493646
0.9423264907135877
0.9149560117302052
0.8934506353861192
0.8758553274682307
0.8602150537634409
0.844574780058651
0.8299120234604106
0.8211143695014663
0.8132942326490714
0.7986314760508308
0.7810361681329423
0.7634408602150538
0.7458455522971652
0.7282502443792767
0.7116324535679375
0.696969696969697
0.6813294232649071
0.6666666666666666
0.6549364613880743
0.64613880742913
0.6432062561094819
0.6451612903225806
0.6500488758553274
0.6627565982404692
0.6871945259042033
0.7253176930596286
0.7781036168132942
0.844574780058651
0.9237536656891496
1.0127077223851415
1.110459433040078
1.2121212121212122
1.3040078201368523
1.3900293255131966
1.4819159335288368
1.5728250244379276
1.656891495601173
2.144672531769306
2.24633431085044
2.3391984359726297
2.4222873900293256
2.496578690127077
2.552297165200391
2.5972629521016617
2.641251221896383
2.6823069403714563
2.719452590420332
2.7497556207233624
2.774193548387097
2.793743890518084
2.8054740957966766
2.809384164222874
2.8054740957966766
2.793743890518084
2.7751710654936463
2.750733137829912
2.720430107526881
2.6852394916911044
2.6471163245356792
2.606060606060606
2.5640273704789838
2.5210166177908118
2.4789833822091887
2.4379276637341154
2.398826979472141
2.363636363636364
2.3304007820136854
2.302052785923754
2.275659824046921
2.249266862170088
2.222873900293255
2.1974584555229715
2.1730205278592374
2.1495601173020527
2.1270772238514173
2.103616813294233
2.080156402737048
2.0576735092864125
2.0361681329423265
2.01564027370479
1.9980449657869013
1.981427174975562
1.964809384164223
1.948191593352884
1.9335288367546437
1.920821114369501
1.9090909090909087
1.8993157380254155
1.8934506353861196
1.8944281524926687
1.9012707722385145
1.9149560117302051
1.9315738025415443
1.9521016617790807
1.978494623655914
2.0097751710654936
2.043010752688172
2.075268817204301
2.1055718475073317
2.131964809384164
2.150537634408602
2.161290322580645
2.164222873900293
2.160312805474096
2.1495601173020527
2.134897360703812
2.115347018572825
2.0879765395894427
2.0547409579667644
2.018572825024438
1.9794721407624636
1.9403714565004888
1.903225806451613
1.8699902248289344
1.8416422287390029
1.8172043010752688
1.7956989247311828
1.780058651026393
1.7683284457478006
1.7565982404692082
1.7468230694037146
1.7409579667644184
1.7360703812316716
1.7331378299120237
1.7331378299120237
1.732160312805474
1.7302052785923754
1.7272727272727273
1.7243401759530792
1.7204301075268815
1.718475073313783
1.7174975562072337
1.715542521994135
1.7116324535679377
1.704789833822092
1.6959921798631477
1.6871945259042034
1.6774193548387095
1.667644183773216
1.6588465298142718
1.651026392961877
1.64613880742913
1.6422287390029326
1.6392961876832846
1.6363636363636365
1.6334310850439884
1.6304985337243405
1.6275659824046922
1.6226783968719452
1.6177908113391983
1.611925708699902
1.606060606060606
1.6011730205278591
1.595307917888563
1.590420332355816
1.5894428152492668
1.5894428152492668
1.587487781036168
1.58455522971652
1.5806451612903225
1.576735092864125
1.5728250244379276
1.56891495601173
1.5650048875855327
1.5620723362658846
1.5581622678396871
1.555229716520039
1.5542521994134897
1.5542521994134897
1.552297165200391
1.5493646138807429
1.547409579667644
1.5464320625610948
1.5454545454545454
1.542521994134897
1.5405669599217986
1.5395894428152492
1.5395894428152492
1.5395894428152492
1.5386119257087
1.5376344086021505
1.5366568914956011
1.533724340175953
1.530791788856305
1.5268817204301075
1.5249266862170088
1.5249266862170088
1.530791788856305
1.547409579667644
1.5777126099706744
1.6226783968719452
1.6852394916911049
1.7517106549364614
1.825024437927664
1.9188660801564028
2.027370478983382
2.145650048875855
2.269794721407625
2.3929618768328447
2.5141739980449658
2.63049853372434
2.739980449657869
2.841642228739003
2.935483870967742
3.005865102639296
3.0625610948191597
3.121212121212121
3.176930596285435
3.225806451612903
3.2688172043010755
3.3059628543499517
3.337243401759531
3.361681329423265
3.378299120234604
3.386119257086999
3.386119257086999
3.377321603128055
3.3597262952101663
3.335288367546432
3.3069403714565007
3.2737047898338223
3.2346041055718477
3.190615835777126
3.142717497556207
3.09188660801564
3.0391006842619745
2.9872922776148583
2.936461388074292
2.887585532746823
2.8426197458455524
2.8025415444770285
2.764418377321604
2.7262952101661777
2.6901270772238512
2.656891495601173
2.625610948191593
2.593352883675464
2.563049853372434
2.5317693059628543
2.4995112414467253
2.466275659824047
2.4330400782013686
2.401759530791789
2.36950146627566
2.335288367546432
2.3010752688172045
2.267839687194526
2.236559139784946
2.204301075268817
2.1730205278592374
2.1417399804496577
2.113391984359726
2.086021505376344
2.059628543499511
2.038123167155425
2.018572825024438
1.9951124144672527
1.9716520039100685
1.948191593352884
1.924731182795699
1.9012707722385145
1.8778103616813293
1.8563049853372435
1.836754643206256
1.818181818181818
1.8005865102639296
1.7849462365591398
1.7732160312805474
1.7624633431085044
1.7517106549364614
1.7409579667644184
1.7282502443792769
1.715542521994135
1.7008797653958945
1.6852394916911049
1.6695992179863148
1.5943304007820136
1.490713587487781
1.4349951124144673
1.4056695992179864
1.3919843597262953
1.3870967741935485
1.3919843597262953
1.4076246334310851
1.435972629521017
1.478005865102639
1.533724340175953
1.6001955034213098
1.6764418377321604
1.7605083088954057
1.8504398826979471
1.9403714565004888
2.016617790811339
2.085043988269794
2.158357771260997
2.23069403714565
2.2991202346041058
2.361681329423265
2.4173998044965788
2.4652981427174976
2.506353861192571
2.541544477028348
2.570869990224829
2.595307917888563
2.6099706744868034
2.616813294232649
2.622678396871945
2.624633431085044
2.621700879765396
2.613880742913001
2.5972629521016617
2.572825024437928
2.5405669599217986
2.501466275659824
2.4565004887585533
2.409579667644184
2.361681329423265
2.315738025415445
2.271749755620724
2.225806451612903
2.179863147605083
2.134897360703812
2.09188660801564
2.0527859237536656
2.016617790811339
1.9824046920821117
1.949169110459433
1.9178885630498532
1.8875855327468232
1.8621700879765395
1.8387096774193548
1.8132942326490715
1.7859237536656891
1.7565982404692082
1.7272727272727273
1.6979472140762464
1.6686217008797657
1.6373411534701858
1.6050830889540566
1.573802541544477
1.542521994134897
1.5102639296187683
1.4838709677419355
1.4613880742913
1.435972629521017
1.409579667644184
1.383186705767351
1.356793743890518
1.3313782991202343
1.305962854349951
1.2825024437927663
1.260019550342131
1.2375366568914956
1.217008797653959
1.2023460410557183
1.1896383186705768
1.173998044965787
1.1544477028347997
1.133919843597263
1.1133919843597262
1.093841642228739
1.0742913000977516
1.0547409579667644
1.035190615835777
1.0175953079178883
1.0009775171065494
0.9843597262952102
0.9726295210166178
0.9648093841642228
0.9530791788856304
0.9393939393939394
0.9266862170087976
0.9159335288367546
0.906158357771261
0.9002932551319648
0.9002932551319648
0.9090909090909092
0.9286412512218964
0.959921798631476
0.9990224828934506
1.04594330400782
1.1065493646138806
1.1788856304985338
1.260019550342131
1.3470185728250244
1.4379276637341154
1.5278592375366569
1.6148582600195502
1.6950146627565983
1.7683284457478006
1.833822091886608
1.89247311827957
1.935483870967742
1.9696969696969695
2.0019550342130987
2.0303030303030303
2.0527859237536656
2.070381231671554
2.083088954056696
2.089931573802541
2.090909090909091
2.085043988269794
2.074291300097752
2.056695992179863
2.035190615835777
2.0087976539589443
1.975562072336266
1.9374389051808407
1.895405669599218
1.8523949169110456
1.8084066471163245
1.7653958944281525
1.7233626588465298
1.6842619745845553
1.6480938416422288
1.6148582600195502
1.58455522971652
1.5610948191593352
1.541544477028348
1.520039100684262
1.498533724340176
1.4760508308895406
1.4506353861192571
1.4252199413489737
1.3998044965786902
1.375366568914956
1.3509286412512218
1.327468230694037
1.3049853372434017
1.2873900293255132
1.2727272727272727
1.2551319648093842
1.2355816226783969
1.2160312805474096
1.1964809384164223
1.1779081133919844
1.1593352883675463
1.1407624633431086
1.1251221896383188
1.1124144672531768
1.1016617790811338
1.0957966764418376
1.0928641251221896
1.0869990224828934
1.0811339198435972
1.0762463343108504
1.072336265884653
1.0694037145650048
1.0664711632453567
1.064516129032258
1.0625610948191593
1.0596285434995112
1.056695992179863
1.053763440860215
1.053763440860215
1.0557184750733135
1.0547409579667644
1.0518084066471165
1.0478983382209188
1.0420332355816226
1.035190615835777
1.029325513196481
1.0254154447702837
1.0254154447702837
1.0312805474095796
1.0469208211143697
1.0713587487781036
1.1036168132942326
1.1485826001955035
1.2043010752688172
1.270772238514174
1.3470185728250244
1.4301075268817205
1.517106549364614
1.6041055718475072
1.6901270772238517
1.772238514173998
1.8494623655913975
1.9188660801564028
1.9745845552297163
2.0205278592375366
2.0664711632453567
2.10850439882698
2.145650048875855
2.177908113391984
2.2052785923753664
2.2267839687194524
2.244379276637341
2.257086999022483
2.264907135874878
2.267839687194526
2.2639296187683287
2.2551319648093844
2.242424242424242
2.225806451612903
2.203323558162268
2.175953079178885
2.145650048875855
2.112414467253177
2.078201368523949
2.0439882697947214
2.0117302052785924
1.9824046920821117
1.9560117302052784
1.9335288367546437
1.9130009775171064
1.89247311827957
1.873900293255132
1.8543499511241448
1.835777126099707
1.8162267839687196
1.796676441837732
1.7771260997067448
1.758553274682307
1.739980449657869
1.7204301075268815
1.7018572825024438
1.6842619745845553
1.664711632453568
1.6451612903225807
1.6256109481915937
1.607038123167155
1.5884652981427174
1.5698924731182795
1.552297165200391
1.533724340175953
1.5151515151515151
1.4975562072336266
1.4819159335288368
1.4711632453567938
1.4633431085043989
1.455522971652004
1.4936461388074291
1.555229716520039
1.5796676441837731
1.585532746823069
1.5835777126099706
1.5777126099706744
1.5718475073313782
1.5650048875855327
1.5581622678396871
1.5542521994134897
1.5513196480938416
1.5483870967741935
1.5464320625610948
1.543499511241447
1.5395894428152492
1.5347018572825024
1.5288367546432062
1.52297165200391
1.5161290322580645
1.509286412512219
1.5034213098729228
1.500488758553275
1.5034213098729228
1.5141739980449658
1.5356793743890518
1.5679374389051808
1.6138807429130009
1.6744868035190617
1.7497556207233629
1.839687194525904
1.9413489736070384
2.0527859237536656
2.16911045943304
2.2854349951124147
2.3851417399804498
2.474095796676442
2.570869990224829
2.665689149560117
2.7546432062561097
2.835777126099707
2.90811339198436
2.9716520039100685
3.026392961876833
3.074291300097752
3.1163245356793743
3.1515151515151514
3.1818181818181817
3.198435972629521
3.206256109481916
3.2140762463343107
3.218963831867057
3.217986314760508
3.2111436950146626
3.19941348973607
3.179863147605083
3.150537634408602
3.113391984359726
3.069403714565005
3.0195503421309877
2.9687194525904204
2.917888563049853
2.865102639296188
2.811339198435973
2.757575757575758
2.7067448680351904
2.658846529814272
2.6148582600195502
2.573802541544477
2.533724340175953
2.496578690127077
2.4613880742913
2.426197458455523
2.3929618768328447
2.3626588465298144
2.3313782991202348
2.300097751710655
2.269794721407625
2.2404692082111435
2.212121212121212
2.1837732160312804
2.1544477028347995
2.124144672531769
2.0928641251221896
2.060606060606061
2.032258064516129
2.006842619745845
1.978494623655914
1.949169110459433
1.920821114369501
1.89247311827957
1.865102639296188
1.8387096774193548
1.8142717497556209
1.7869012707722385
1.7624633431085044
1.7448680351906158
1.7253176930596286
1.7086999022482894
1.6950146627565983
1.6803519061583578
1.664711632453568
1.6480938416422288
1.6304985337243405
1.6129032258064515
1.5962854349951123
1.5806451612903225
1.565982404692082
1.552297165200391
1.5395894428152492
1.5317693059628543
1.525904203323558
1.5190615835777126
1.512218963831867
1.5053763440860215
1.500488758553275
1.500488758553275
1.509286412512219
1.5317693059628543
1.5679374389051808
1.6187683284457477
1.6842619745845553
1.7634408602150538
1.8406647116324533
1.919843597262952
2.0146627565982405
2.118279569892473
2.2248289345063537
2.3313782991202348
2.4330400782013686
2.527859237536657
2.6148582600195502
2.6940371456500487
2.763440860215054
2.8240469208211145
2.8690127077223853
2.902248289345064
2.936461388074292
2.9687194525904204
2.997067448680352
3.0205278592375366
3.037145650048876
3.047898338220919
3.050830889540567
3.046920821114369
3.0361681329423265
3.018572825024438
2.995112414467253
2.964809384164223
2.927663734115347
2.884652981427175
2.8367546432062563
2.7859237536656893
2.732160312805474
2.677419354838709
2.624633431085044
2.5747800586510263
2.5268817204301075
2.4819159335288368
2.441837732160313
2.406647116324536
2.3743890518084068
2.343108504398827
2.3118279569892475
2.2795698924731185
2.2482893450635384
2.218963831867057
2.189638318670577
2.1593352883675463
2.1280547409579667
2.096774193548387
2.065493646138808
2.037145650048876
2.010752688172043
1.981427174975562
1.9501466275659824
1.919843597262952
1.889540566959922
1.8592375366568916
1.83088954056696
1.804496578690127
1.780058651026393
1.7575757575757576
1.7350928641251222
1.7145650048875856
1.6989247311827955
1.686217008797654
1.6705767350928642
1.653958944281525
1.6373411534701858
1.619745845552297
1.6021505376344083
1.585532746823069
1.5708699902248289
1.5562072336265884
1.5405669599217986
1.5239491691104594
1.5112414467253177
1.499511241446725
1.4858260019550342
1.474095796676442
1.4623655913978495
1.4486803519061584
1.436950146627566
1.4281524926686218
1.418377321603128
1.409579667644184
1.4027370478983383
1.3998044965786902
1.4056695992179864
1.4193548387096775
1.4437927663734116
1.4809384164222874
1.5317693059628543
1.5972629521016617
1.675464320625611
1.7634408602150538
1.8875855327468232
2.003910068426197
2.0879765395894427
2.179863147605083
2.272727272727273
2.36950146627566
2.44672531769306
2.5004887585532747
2.5698924731182795
2.641251221896383
2.6881720430107525
2.719452590420332
2.752688172043011
2.779081133919844
2.7947214076246336
2.8054740957966766
2.806451612903226
2.803519061583578
2.7966764418377323
2.7839687194525906
2.7673509286412514
2.744868035190616
2.7145650048875853
2.677419354838709
2.621700879765396
2.567937438905181
2.525904203323558
2.4760508308895406
2.409579667644184
2.3489736070381237
2.310850439882698
2.272727272727273
2.222873900293255
2.176930596285435
2.1436950146627565
2.1094819159335287
2.0772238514174
2.0439882697947214
2.010752688172043
