ppg
1.1827956989247312
1.1593352883675463
1.1368523949169111
1.121212121212121
1.1094819159335287
1.0948191593352885
1.078201368523949
1.06158357771261
1.0439882697947214
1.0263929618768328
1.0097751710654936
0.9941348973607038
0.9804496578690128
0.9696969696969696
0.959921798631476
0.9501466275659824
0.9433040078201368
0.9374389051808406
0.927663734115347
0.9178885630498532
0.9090909090909092
0.9032258064516128
0.8973607038123167
0.8934506353861192
0.8914956011730205
0.8895405669599218
0.8866080156402737
0.8826979472140762
0.8817204301075269
0.8826979472140762
0.8826979472140762
0.8856304985337243
0.8885630498533724
0.8924731182795699
0.8963831867057673
0.9012707722385142
0.9051808406647116
0.9090909090909092
0.9110459433040078
0.9130009775171064
0.9159335288367546
0.9217986314760508
0.9286412512218964
0.9345063538611924
0.9393939393939394
0.9442815249266864
0.9491691104594332
0.9511241446725318
0.9521016617790812
0.956989247311828
0.9706744868035192
1.0009775171065494
1.0557184750733135
1.1251221896383188
1.2140762463343109
1.3411534701857282
1.500488758553275
1.6813294232649072
1.871945259042033
2.06158357771261
2.239491691104594
2.398826979472141
2.5386119257087
2.6578690127077222
2.755620723362659
2.832844574780059
2.8826979472140764
2.9120234604105573
2.935483870967742
2.952101661779081
2.959921798631476
2.960899315738025
2.9550342130987293
2.941348973607038
2.9227761485826003
2.900293255131965
2.873900293255132
2.8406647116324537
2.801564027370479
2.757575757575758
2.704789833822092
2.643206256109482
2.573802541544477
2.4975562072336266
2.4134897360703813
2.3255131964809386
2.2355816226783967
2.145650048875855
2.0576735092864125
1.9765395894428155
1.903225806451613
1.844574780058651
1.7976539589442817
1.75366568914956
1.7145650048875856
1.6803519061583578
1.6520039100684265
1.629521016617791
1.608993157380254
1.590420332355816
1.5718475073313782
1.5542521994134897
1.5376344086021505
1.5249266862170088
1.5141739980449658
1.500488758553275
1.4838709677419355
1.466275659824047
1.447702834799609
1.4271749755620724
1.4076246334310851
1.3890518084066472
1.370478983382209
1.3528836754643203
1.335288367546432
1.3176930596285434
1.3040078201368523
1.2932551319648091
1.2805474095796676
1.267839687194526
1.2561094819159335
1.2482893450635386
1.241446725317693
1.2346041055718475
1.2267839687194526
1.219941348973607
1.2130987292277615
1.2052785923753666
1.2003910068426198
1.1964809384164223
1.1906158357771262
1.1827956989247312
1.173998044965787
1.163245356793744
1.1515151515151516
1.142717497556207
1.13880742913001
1.1436950146627567
1.1652003910068427
1.2082111436950147
1.2639296187683284
1.3372434017595307
1.4437927663734116
1.5747800586510263
1.721407624633431
1.8748778103616808
2.027370478983382
2.172043010752688
2.300097751710655
2.4086021505376345
2.496578690127077
2.565982404692082
2.619745845552297
2.652003910068426
2.6666666666666665
2.674486803519061
2.674486803519061
2.667644183773216
2.652003910068426
2.6295210166177907
2.6021505376344085
2.567937438905181
2.5288367546432062
2.4858260019550342
2.434017595307918
2.3812316715542523
2.324535679374389
2.257086999022483
2.1808406647116323
2.096774193548387
2.0097751710654936
1.9227761485826005
1.836754643206256
1.7575757575757576
1.6871945259042034
1.624633431085044
1.5708699902248289
1.525904203323558
1.4926686217008798
1.4652981427174976
1.4379276637341154
1.4134897360703813
1.3919843597262953
1.3724340175953078
1.35386119257087
1.335288367546432
1.3176930596285434
1.300097751710655
1.2795698924731185
1.2570869990224829
1.2394916911045943
1.2258064516129032
1.2101661779081134
1.1915933528836755
1.1720430107526882
1.1505376344086022
1.1300097751710656
1.1114369501466277
1.0918866080156402
1.072336265884653
1.053763440860215
1.0361681329423265
1.018572825024438
1.0048875855327468
0.9941348973607038
0.978494623655914
0.9618768328445748
0.9472140762463344
0.9325513196480938
0.919843597262952
0.9090909090909092
0.8993157380254154
0.9208211143695014
0.9579667644183774
0.9726295210166178
0.9794721407624634
0.9843597262952102
0.9843597262952102
0.9824046920821116
0.9794721407624634
0.9765395894428152
0.9726295210166178
0.9687194525904204
0.9648093841642228
0.9618768328445748
0.959921798631476
0.9589442815249268
0.9589442815249268
0.9608993157380256
0.9638318670576737
0.9657869012707724
0.9696969696969696
0.9736070381231672
0.975562072336266
0.975562072336266
0.9745845552297164
0.9716520039100685
0.9716520039100685
0.9716520039100685
0.9716520039100685
0.9716520039100685
0.9716520039100685
0.9716520039100685
0.9716520039100685
0.9716520039100685
0.9843597262952102
1.018572825024438
1.0811339198435972
1.1759530791788857
1.303030303030303
1.5620723362658846
1.608993157380254
1.6480938416422288
1.6774193548387095
1.6959921798631477
1.7028347996089932
1.6979472140762464
1.6823069403714566
1.6559139784946235
1.6217008797653958
1.5865102639296187
1.5503421309872922
1.5053763440860215
1.4535679374389052
1.3998044965786902
1.346041055718475
1.2942326490713587
1.2473118279569892
1.2052785923753666
1.1691104594330402
1.1407624633431086
1.1202346041055715
1.110459433040078
1.1085043988269794
1.1094819159335287
1.1133919843597262
1.1192570869990224
1.1251221896383188
1.1290322580645162
1.130987292277615
1.1319648093841643
1.1329423264907137
1.1319648093841643
1.1290322580645162
1.1251221896383188
1.1221896383186705
1.1202346041055715
1.1173020527859236
1.1143695014662756
1.1114369501466277
1.1085043988269794
1.1065493646138806
1.104594330400782
1.1016617790811338
1.0977517106549364
1.093841642228739
1.0899315738025417
1.0879765395894427
1.0869990224828934
1.0840664711632453
1.0811339198435972
1.0772238514173995
1.072336265884653
1.0664711632453567
1.06158357771261
1.056695992179863
1.0527859237536656
1.0488758553274682
1.04594330400782
1.04594330400782
1.0478983382209188
1.0488758553274682
1.0498533724340176
1.0498533724340176
1.0498533724340176
1.0498533724340176
1.0498533724340176
1.0488758553274682
1.0478983382209188
1.0469208211143697
1.0478983382209188
1.0478983382209188
1.0498533724340176
1.0557184750733135
1.0596285434995112
1.06158357771261
1.06158357771261
1.0606060606060606
1.0596285434995112
1.0606060606060606
1.06158357771261
1.0625610948191593
1.0635386119257086
1.0664711632453567
1.0713587487781036
1.078201368523949
1.0840664711632453
1.088954056695992
1.093841642228739
1.0977517106549364
1.1016617790811338
1.1065493646138806
1.1094819159335287
1.1114369501466277
1.1133919843597262
1.1163245356793745
1.1192570869990224
1.1241446725317692
1.130987292277615
1.1358748778103618
1.13880742913001
1.1397849462365592
1.141739980449658
1.144672531769306
1.1485826001955035
1.1534701857282503
1.160312805474096
1.1671554252199414
1.1749755620723363
1.1837732160312806
1.1935483870967742
1.2013685239491692
1.2082111436950147
1.2140762463343109
1.2209188660801564
1.2287390029325511
1.2355816226783969
1.241446725317693
1.24633431085044
1.2512218963831867
1.2551319648093842
1.2590420332355816
1.2649071358748778
1.270772238514174
1.2746823069403714
1.2756598240469208
1.273704789833822
1.2717497556207231
1.273704789833822
1.2873900293255132
1.321603128054741
1.383186705767351
1.478983382209189
1.5669599217986314
1.5503421309872922
1.5327468230694037
1.517106549364614
1.500488758553275
1.482893450635386
1.4633431085043989
1.4408602150537635
1.4164222873900294
1.392961876832845
1.370478983382209
1.3479960899315735
1.3304007820136852
1.3157380254154447
1.2971652003910068
1.2766373411534702
1.2580645161290325
1.2424242424242424
1.2267839687194526
1.2111436950146628
1.198435972629521
1.187683284457478
1.1788856304985338
1.1759530791788857
1.1827956989247312
1.2003910068426198
1.2297165200391007
1.2746823069403714
1.332355816226784
1.4007820136852396
1.47702834799609
1.555229716520039
1.6314760508308896
1.7028347996089932
1.7634408602150538
1.8103616813294232
1.842619745845552
1.8602150537634408
1.8641251221896384
1.858260019550342
1.8416422287390029
1.8162267839687196
1.782991202346041
1.7429130009775171
1.6959921798631477
1.643206256109482
1.587487781036168
1.5288367546432062
1.469208211143695
1.4193548387096775
1.3773216031280548
1.3343108504398826
1.295210166177908
1.262952101661779
1.2375366568914956
1.2189638318670577
1.209188660801564
1.2052785923753666
1.206256109481916
1.2111436950146628
1.2179863147605083
1.2238514173998043
1.2287390029325511
1.2336265884652982
1.2355816226783969
1.2365591397849462
1.2375366568914956
1.2375366568914956
1.2375366568914956
1.2365591397849462
1.2326490713587488
1.227761485826002
1.2218963831867058
1.2140762463343109
1.209188660801564
1.206256109481916
1.2013685239491692
1.195503421309873
1.1896383186705768
1.1827956989247312
1.1759530791788857
1.1681329423264908
1.1593352883675463
1.1505376344086022
1.1436950146627567
1.1378299120234605
1.133919843597263
1.1329423264907137
1.1319648093841643
1.130987292277615
1.1300097751710656
1.1300097751710656
1.1300097751710656
1.1300097751710656
1.1300097751710656
1.130987292277615
1.133919843597263
1.1368523949169111
1.141739980449658
1.1485826001955035
1.155425219941349
1.1612903225806452
1.1652003910068427
1.273704789833822
1.2776148582600195
1.2805474095796676
1.2825024437927663
1.2834799608993157
1.2854349951124144
1.2873900293255132
1.289345063538612
1.2913000977517106
1.29227761485826
1.2932551319648091
1.2932551319648091
1.2932551319648091
1.295210166177908
1.2991202346041055
1.3020527859237536
1.3040078201368523
1.305962854349951
1.3098729227761483
1.313782991202346
1.3176930596285434
1.321603128054741
1.3255131964809383
1.3304007820136852
1.3343108504398826
1.3401759530791788
1.346041055718475
1.3509286412512218
1.3558162267839686
1.3607038123167154
1.3655913978494625
1.370478983382209
1.3734115347018572
1.3734115347018572
1.3714565004887584
1.3695014662756595
1.3714565004887584
1.3841642228739004
1.4076246334310851
1.4516129032258065
1.530791788856305
1.6480938416422288
1.801564027370479
1.9833822091886608
2.1837732160312804
2.391006842619746
2.5943304007820136
2.7839687194525906
2.952101661779081
3.096774193548387
3.201368523949169
3.27761485826002
3.350928641251222
3.4134897360703813
3.4604105571847508
3.49266862170088
3.512218963831867
3.520039100684262
3.5190615835777126
3.512218963831867
3.498533724340176
3.47702834799609
3.449657869012708
3.41544477028348
3.375366568914956
3.329423264907136
3.27761485826002
3.217986314760508
3.1495601173020527
2.963831867057673
2.719452590420332
2.555229716520039
2.4301075268817205
2.326490713587488
2.2346041055718477
2.158357771260997
2.09188660801564
2.027370478983382
1.967741935483871
1.9149560117302051
1.869012707722385
1.828934506353861
1.7927663734115349
1.7624633431085044
1.737047898338221
1.7135874877810362
1.6911045943304008
1.6695992179863148
1.651026392961877
1.632453567937439
1.6129032258064515
1.5933528836754642
1.5718475073313782
1.5493646138807429
1.5278592375366569
1.5063538611925709
1.4848484848484849
1.4623655913978495
1.4389051808406648
1.4164222873900294
1.3978494623655917
1.3812316715542523
1.364613880742913
1.346041055718475
1.327468230694037
1.3098729227761483
1.2932551319648091
1.2766373411534702
1.2609970674486803
1.2443792766373412
1.2287390029325511
1.2140762463343109
1.2013685239491692
1.1925708699902249
1.18475073313783
1.1759530791788857
1.166177908113392
1.155425219941349
1.144672531769306
1.1348973607038124
1.126099706744868
1.1173020527859236
1.1094819159335287
1.1026392961876832
1.0987292277614855
1.096774193548387
1.0948191593352885
1.0928641251221896
1.0918866080156402
1.0909090909090908
1.0899315738025417
1.0869990224828934
1.083088954056696
1.0772238514173995
1.0713587487781036
1.064516129032258
1.0606060606060606
1.0625610948191593
1.0742913000977516
1.1026392961876832
1.1534701857282503
1.23069403714565
1.332355816226784
1.4545454545454546
1.5884652981427174
1.7282502443792769
1.8670576735092863
1.997067448680352
2.112414467253177
2.2111436950146626
2.2825024437927666
2.334310850439883
2.3822091886608017
2.421309872922776
2.4516129032258065
2.474095796676442
2.487781036168133
2.493646138807429
2.49266862170088
2.4858260019550342
2.474095796676442
2.4574780058651027
2.4359726295210167
2.4115347018572826
2.383186705767351
2.3519061583577714
2.315738025415445
2.2737047898338223
2.2248289345063537
2.16911045943304
2.10752688172043
2.038123167155425
1.964809384164223
1.8905180840664717
1.8172043010752688
1.7526881720430108
1.694037145650049
1.6334310850439884
1.5747800586510263
1.52297165200391
1.479960899315738
1.4428152492668622
1.412512218963832
1.3870967741935485
1.3655913978494625
1.346041055718475
1.327468230694037
1.313782991202346
1.3020527859237536
1.289345063538612
1.2756598240469208
1.2619745845552297
1.2473118279569892
1.2316715542521994
1.2160312805474096
1.198435972629521
1.1808406647116323
1.163245356793744
1.1456500488758554
1.1280547409579669
1.1133919843597262
1.1016617790811338
1.0909090909090908
1.0801564027370478
1.0694037145650048
1.0596285434995112
1.0498533724340176
1.0371456500488758
1.024437927663734
1.0127077223851415
1.0019550342130987
0.9931573802541545
0.989247311827957
0.9902248289345064
0.997067448680352
1.0166177908113392
1.0547409579667644
1.1133919843597262
1.1964809384164223
1.300097751710655
1.4203323558162269
1.5493646138807429
1.6793743890518085
1.8035190615835777
1.916911045943304
2.003910068426197
2.070381231671554
2.1309872922776147
2.182795698924731
2.2238514173998043
2.2531769305962857
2.272727272727273
2.2844574780058653
2.2883675464320627
2.2854349951124147
2.275659824046921
2.260997067448681
2.242424242424242
2.218963831867057
2.1915933528836757
2.158357771260997
2.118279569892473
2.070381231671554
2.0175953079178885
1.959921798631476
1.8973607038123168
1.83088954056696
1.7624633431085044
1.6959921798631477
1.6334310850439884
1.581622678396872
1.5395894428152492
1.499511241446725
1.4643206256109482
1.4349951124144673
1.4115347018572826
1.393939393939394
1.380254154447703
1.370478983382209
1.364613880742913
1.3577712609970674
1.348973607038123
1.3411534701857282
1.3333333333333333
1.324535679374389
1.3157380254154447
1.3069403714565004
1.2971652003910068
1.2864125122189638
1.2756598240469208
1.2639296187683284
1.2502443792766371
1.2365591397849462
1.2238514173998043
1.2121212121212122
1.2043010752688172
1.198435972629521
1.1906158357771262
1.1837732160312806
1.1749755620723363
1.166177908113392
1.1583577712609971
1.1515151515151516
1.1436950146627567
1.1368523949169111
1.1300097751710656
1.1221896383186705
1.1173020527859236
1.1133919843597262
1.1094819159335287
1.1065493646138806
1.1026392961876832
1.0987292277614855
1.096774193548387
1.0957966764418376
1.0948191593352885
1.0948191593352885
1.0957966764418376
1.096774193548387
1.0957966764418376
1.096774193548387
1.0987292277614855
1.0987292277614855
1.096774193548387
1.0957966764418376
1.0957966764418376
1.0957966764418376
1.0948191593352885
1.0948191593352885
1.0948191593352885
1.0948191593352885
1.0948191593352885
1.0948191593352885
1.0948191593352885
1.0948191593352885
1.0948191593352885
1.0977517106549364
1.110459433040078
1.141739980449658
1.1974584555229717
1.281524926686217
1.3919843597262953
1.5249266862170088
1.6735092864125125
1.828934506353861
2.0527859237536656
2.313782991202346
2.5210166177908118
2.687194525904203
2.8181818181818183
2.917888563049853
2.9902248289345064
3.0410557184750733
3.075268817204301
3.0948191593352883
3.101661779081134
3.099706744868035
3.0869990224828934
3.0664711632453567
3.042033235581622
3.010752688172043
2.973607038123167
2.929618768328446
2.8797653958944283
2.823069403714565
2.758553274682307
2.684261974584555
2.60019550342131
2.5083088954056696
2.412512218963832
2.32355816226784
2.239491691104594
2.1495601173020527
2.059628543499511
1.9745845552297163
1.8973607038123168
1.828934506353861
1.7712609970674489
1.7243401759530792
1.6852394916911049
1.651026392961877
1.6217008797653958
1.5992179863147604
1.5796676441837731
1.5581622678396871
1.5356793743890518
1.5131964809384164
1.487781036168133
1.4613880742913
1.436950146627566
1.4115347018572826
1.3870967741935485
1.3626588465298142
1.3362658846529814
1.3147605083088951
1.2971652003910068
1.2766373411534702
1.2541544477028348
1.2336265884652982
1.2140762463343109
1.1925708699902249
1.1710654936461389
1.1515151515151516
1.1319648093841643
1.1114369501466277
1.0909090909090908
1.0713587487781036
1.056695992179863
1.04594330400782
1.0332355816226784
1.021505376344086
1.010752688172043
1.0019550342130987
0.9951124144672532
0.989247311827957
0.9843597262952102
0.9794721407624634
0.9745845552297164
0.9696969696969696
0.9667644183773216
0.9657869012707724
0.9618768328445748
0.9560117302052786
0.9511241446725318
0.9472140762463344
0.946236559139785
0.9481915933528836
0.9521016617790812
0.9560117302052786
0.959921798631476
0.9618768328445748
0.9618768328445748
0.9648093841642228
0.9667644183773216
0.9657869012707724
0.9628543499511242
0.9608993157380256
0.9628543499511242
0.975562072336266
1.007820136852395
1.0684261974584557
1.1622678396871946
1.2913000977517106
1.4535679374389052
1.6129032258064515
1.7712609970674489
1.95405669599218
2.139784946236559
2.315738025415445
2.4731182795698925
2.606060606060606
2.7155425219941347
2.803519061583578
2.8690127077223853
2.917888563049853
2.951124144672532
2.972629521016618
2.978494623655914
2.9745845552297165
2.967741935483871
2.9550342130987293
2.9374389051808407
2.9149560117302054
2.8885630498533725
2.8563049853372435
2.817204301075269
2.771260997067449
2.716520039100684
2.652003910068426
2.587487781036168
2.5190615835777126
2.4389051808406648
2.3499511241446727
2.254154447702835
2.158357771260997
2.064516129032258
1.9716520039100685
1.8836754643206255
1.8054740957966764
1.7390029325513197
1.6823069403714566
1.6363636363636365
1.6041055718475072
1.5796676441837731
1.5571847507331378
1.5376344086021505
1.521016617790811
1.5034213098729228
1.4848484848484849
1.466275659824047
1.4467253176930597
1.4271749755620724
1.4076246334310851
1.3890518084066472
1.3734115347018572
1.359726295210166
1.3440860215053765
1.3264907135874875
1.3098729227761483
1.2942326490713587
1.2795698924731185
1.2649071358748778
1.2512218963831867
1.2365591397849462
1.2228739002932552
1.209188660801564
1.1945259042033236
1.1837732160312806
1.1749755620723363
1.163245356793744
1.1544477028347997
1.147605083088954
1.141739980449658
1.13880742913001
1.1378299120234605
1.1368523949169111
1.1368523949169111
1.1368523949169111
1.1368523949169111
1.13880742913001
1.141739980449658
1.1407624633431086
1.13880742913001
1.1397849462365592
1.1485826001955035
1.1710654936461389
1.217008797653959
1.29227761485826
1.3988269794721409
1.5347018572825024
1.694037145650049
1.866080156402737
2.0175953079178885
2.1524926686217007
2.294232649071359
2.4271749755620724
2.5425219941348973
2.638318670576735
2.7145650048875853
2.7722385141739982
2.814271749755621
2.841642228739003
2.8582600195503423
2.865102639296188
2.8611925708699903
2.8484848484848486
2.831867057673509
2.809384164222874
2.782013685239492
2.7497556207233624
2.7096774193548385
2.66177908113392
2.6050830889540566
2.5405669599217986
2.4682306940371457
2.389051808406647
2.304007820136853
2.2248289345063537
2.1495601173020527
2.069403714565005
1.988269794721408
1.9100684261974583
1.8377321603128052
1.775171065493646
1.7223851417399805
1.678396871945259
1.643206256109482
1.616813294232649
1.595307917888563
1.581622678396872
1.5708699902248289
1.5581622678396871
1.5454545454545454
1.530791788856305
1.5151515151515151
1.4975562072336266
1.478005865102639
1.4594330400782014
1.4408602150537635
1.4222873900293256
1.4027370478983383
1.3822091886608017
1.3655913978494625
1.3519061583577712
1.335288367546432
1.3176930596285434
1.3010752688172045
1.2834799608993157
1.2649071358748778
1.24633431085044
1.2258064516129032
1.206256109481916
1.1886608015640274
1.1730205278592376
1.1612903225806452
1.1534701857282503
1.144672531769306
1.1358748778103618
1.126099706744868
1.1173020527859236
1.10752688172043
1.1094819159335287
1.1173020527859236
1.1173020527859236
1.1124144672531768
1.10752688172043
1.1036168132942326
1.1036168132942326
1.104594330400782
1.1036168132942326
1.099706744868035
1.093841642228739
1.088954056695992
1.086021505376344
1.0840664711632453
1.083088954056696
1.083088954056696
1.083088954056696
1.083088954056696
1.0840664711632453
1.083088954056696
1.078201368523949
1.0713587487781036
1.064516129032258
1.0606060606060606
1.06158357771261
1.0733137829912025
1.1026392961876832
1.1583577712609971
1.2473118279569892
1.370478983382209
1.498533724340176
1.6344086021505375
1.8025415444770283
1.9833822091886608
2.1622678396871944
2.3284457478005867
2.4760508308895406
2.601173020527859
2.7038123167155423
2.78494623655914
2.8484848484848486
2.895405669599218
2.927663734115347
2.9423264907135875
2.946236559139785
2.945259042033236
2.9393939393939394
2.930596285434995
2.916911045943304
2.897360703812317
2.870967741935484
2.8396871945259043
2.8025415444770285
2.757575757575758
2.705767350928641
2.650048875855328
2.591397849462365
2.5219941348973607
2.443792766373412
2.358748778103617
2.2688172043010755
2.175953079178885
2.080156402737048
1.988269794721408
1.9012707722385145
1.8201368523949168
1.747800586510264
1.686217008797654
1.6392961876832846
1.603128054740958
1.56891495601173
1.5386119257087
1.512218963831867
1.4887585532746823
1.4672531769305963
1.4457478005865103
1.4222873900293256
1.396871945259042
1.3714565004887584
1.3470185728250244
1.3284457478005864
1.3128054740957966
1.2942326490713587
1.2727272727272727
1.2502443792766371
1.227761485826002
1.2072336265884651
1.187683284457478
1.1700879765395895
1.152492668621701
1.1348973607038124
1.1173020527859236
1.099706744868035
1.0869990224828934
1.0762463343108504
1.0625610948191593
1.050830889540567
1.0391006842619743
1.0273704789833822
1.0146627565982405
1.0019550342130987
0.9902248289345064
0.9824046920821116
0.9824046920821116
0.997067448680352
1.0234604105571847
1.0684261974584557
1.141739980449658
1.241446725317693
1.364613880742913
1.5053763440860215
1.6559139784946235
1.8074291300097751
1.951124144672532
2.080156402737048
2.1925708699902247
2.286412512218964
2.361681329423265
2.4134897360703813
2.4486803519061584
2.47702834799609
2.495601173020528
2.505376344086021
2.504398826979472
2.495601173020528
2.479960899315738
2.458455522971652
2.432062561094819
2.401759530791789
2.3655913978494625
2.3255131964809386
2.281524926686217
2.228739002932551
2.166177908113392
2.096774193548387
2.021505376344086
1.9413489736070384
1.8602150537634408
1.780058651026393
1.7018572825024438
1.6304985337243405
1.56891495601173
1.5180840664711632
1.4819159335288368
1.456500488758553
1.4349951124144673
1.418377321603128
1.4056695992179864
1.3949169110459434
1.3851417399804498
1.3763440860215057
1.367546432062561
1.3587487781036167
1.348973607038123
1.33822091886608
1.3294232649071358
1.321603128054741
1.310850439882698
1.2991202346041055
1.2854349951124144
1.270772238514174
1.2541544477028348
1.2375366568914956
1.2218963831867058
1.2072336265884651
1.1945259042033236
1.1837732160312806
1.173998044965787
1.1681329423264908
1.164222873900293
1.1593352883675463
1.1544477028347997
1.1485826001955035
1.142717497556207
1.1358748778103618
1.1280547409579669
1.1202346041055715
1.1133919843597262
1.1065493646138806
1.1006842619745845
1.099706744868035
1.099706744868035
1.0977517106549364
