ppg
1.418377321603128
1.396871945259042
1.375366568914956
1.35386119257087
1.33822091886608
1.3255131964809383
1.310850439882698
1.2961876832844574
1.281524926686217
1.2658846529814272
1.249266862170088
1.2326490713587488
1.2160312805474096
1.1994134897360704
1.18475073313783
1.173998044965787
1.1710654936461389
1.173998044965787
1.1837732160312806
1.2072336265884651
1.2473118279569892
1.3069403714565004
1.3861192570869991
1.4848484848484849
1.5992179863147604
1.726295210166178
1.86119257086999
1.9990224828934504
2.1192570869990224
2.2267839687194524
2.3411534701857284
2.4545454545454546
2.5620723362658846
2.66177908113392
2.748778103616813
2.825024437927664
2.89345063538612
2.952101661779081
3.0009775171065494
3.043010752688172
3.0791788856304985
3.102639296187683
3.1163245356793743
3.129032258064516
3.1378299120234603
3.142717497556207
3.1417399804496577
3.058651026392962
2.9315738025415445
2.8563049853372435
2.803519061583578
2.757575757575758
2.710654936461388
2.664711632453568
2.618768328445748
2.5669599217986314
2.512218963831867
2.455522971652004
2.398826979472141
2.343108504398827
2.289345063538612
2.2404692082111435
2.1945259042033234
2.150537634408602
2.110459433040078
2.0733137829912023
2.0410557184750733
2.0127077223851417
1.9824046920821117
1.9501466275659824
1.9159335288367547
1.8826979472140764
1.8504398826979471
1.8172043010752688
1.782991202346041
1.7487781036168133
1.7135874877810362
1.678396871945259
1.6480938416422288
1.6217008797653958
1.5923753665689149
1.560117302052786
1.5278592375366569
1.4965786901270772
1.4652981427174976
1.4349951124144673
1.4056695992179864
1.375366568914956
1.346041055718475
1.3176930596285434
1.289345063538612
1.267839687194526
1.2512218963831867
1.2326490713587488
1.2130987292277615
1.1935483870967742
1.173998044965787
1.155425219941349
1.1397849462365592
1.1251221896383188
1.110459433040078
1.096774193548387
1.083088954056696
1.0742913000977516
1.067448680351906
1.0576735092864125
1.04594330400782
1.0332355816226784
1.0195503421309873
1.0068426197458455
0.9960899315738024
0.9872922776148584
0.9843597262952102
0.989247311827957
1.0048875855327468
1.0332355816226784
1.0694037145650048
1.1173020527859236
1.1837732160312806
1.267839687194526
1.367546432062561
1.478983382209189
1.5972629521016617
1.718475073313783
1.8387096774193548
1.95405669599218
2.0625610948191597
2.164222873900293
2.2453567937438903
2.310850439882698
2.377321603128055
2.4389051808406648
2.493646138807429
2.541544477028348
2.581622678396872
2.6129032258064515
2.638318670576735
2.658846529814272
2.674486803519061
2.6852394916911044
2.6901270772238512
2.687194525904203
2.67644183773216
2.662756598240469
2.643206256109482
2.6177908113391983
2.587487781036168
2.5513196480938416
2.512218963831867
2.469208211143695
2.4222873900293256
2.3734115347018574
2.32355816226784
2.27761485826002
2.2355816226783967
2.1915933528836757
2.1495601173020527
2.110459433040078
2.075268817204301
2.042033235581622
2.010752688172043
1.9804496578690127
1.951124144672532
1.920821114369501
1.8905180840664717
1.8621700879765395
1.835777126099707
1.8113391984359728
1.782991202346041
1.7546432062561097
1.7243401759530792
1.6920821114369502
1.6588465298142718
1.6265884652981428
1.595307917888563
1.564027370478983
1.5327468230694037
1.500488758553275
1.4721407624633431
1.4467253176930597
1.418377321603128
1.3890518084066472
1.359726295210166
1.332355816226784
1.3069403714565004
1.2825024437927663
1.260019550342131
1.238514173998045
1.2179863147605083
1.198435972629521
1.1788856304985338
1.164222873900293
1.1534701857282503
1.141739980449658
1.1300097751710656
1.1202346041055715
1.1114369501466277
1.1006842619745845
1.0879765395894427
1.0733137829912025
1.0586510263929618
1.0439882697947214
1.0312805474095796
1.0224828934506354
1.0166177908113392
1.007820136852395
0.9990224828934506
0.9931573802541545
0.9912023460410556
0.9951124144672532
1.0068426197458455
1.032258064516129
1.0733137829912025
1.130987292277615
1.2052785923753666
1.295210166177908
1.3841642228739004
1.4760508308895406
1.58455522971652
1.7008797653958945
1.8201368523949168
1.9364613880742916
2.046920821114369
2.1495601173020527
2.241446725317693
2.3225806451612905
2.3919843597262958
2.450635386119257
2.493646138807429
2.5249266862170088
2.5532746823069403
2.576735092864125
2.5943304007820136
2.606060606060606
2.611925708699902
2.611925708699902
2.606060606060606
2.595307917888563
2.579667644183773
2.558162267839687
2.530791788856305
2.501466275659824
2.469208211143695
2.432062561094819
2.391006842619746
2.346041055718475
2.2981427174975564
2.249266862170088
2.2023460410557183
2.158357771260997
2.117302052785924
2.078201368523949
2.042033235581622
2.010752688172043
1.9833822091886608
1.95405669599218
1.9227761485826005
1.89247311827957
1.8631476050830889
1.8328445747800584
1.801564027370479
1.7712609970674489
1.7429130009775171
1.7135874877810362
1.6823069403714566
1.653958944281525
1.6285434995112416
1.5992179863147604
1.5679374389051808
1.5356793743890518
1.501466275659824
1.4672531769305963
1.4320625610948192
1.3978494623655917
1.3655913978494625
1.3333333333333333
1.3020527859237536
1.2727272727272727
1.252199413489736
1.2346041055718475
1.2130987292277615
1.1906158357771262
1.1681329423264908
1.1456500488758554
1.126099706744868
1.1085043988269794
1.0918866080156402
1.075268817204301
1.0596285434995112
1.0439882697947214
1.0332355816226784
1.024437927663734
1.013685239491691
1.0019550342130987
0.989247311827957
0.975562072336266
0.9608993157380256
0.9442815249266864
0.9266862170087976
0.9090909090909092
0.8924731182795699
0.8778103616813294
0.8670576735092864
0.8993157380254154
0.9560117302052786
0.9872922776148584
1.010752688172043
1.0371456500488758
1.0742913000977516
1.1251221896383188
1.1906158357771262
1.2717497556207231
1.3695014662756595
1.478983382209189
1.5962854349951123
1.7038123167155426
1.8064516129032255
1.9178885630498532
2.029325513196481
2.1358748778103616
2.2355816226783967
2.3255131964809386
2.403714565004888
2.4711632453567938
2.5268817204301075
2.572825024437928
2.6080156402737047
2.633431085043988
2.64613880742913
2.650048875855328
2.650048875855328
2.6451612903225805
2.635386119257087
2.6207233626588464
2.60019550342131
2.5747800586510263
2.5464320625610948
2.5141739980449658
2.47702834799609
2.436950146627566
2.398826979472141
2.361681329423265
2.32355816226784
2.286412512218964
2.251221896383187
2.2170087976539588
2.185728250244379
2.1593352883675463
2.136852394916911
2.115347018572825
2.0948191593352883
2.074291300097752
2.0527859237536656
2.0332355816226784
2.0146627565982405
1.992179863147605
1.9657869012707725
1.93841642228739
1.911045943304008
1.8826979472140764
1.855327468230694
1.8269794721407624
1.7986314760508308
1.7683284457478006
1.737047898338221
1.710654936461388
1.6871945259042034
1.66177908113392
1.6344086021505375
1.607038123167155
1.5796676441837731
1.5532746823069403
1.5278592375366569
1.5053763440860215
1.4858260019550342
1.4682306940371457
1.4516129032258065
1.4349951124144673
1.423264907135875
1.41544477028348
1.4066471163245358
1.3988269794721409
1.3919843597262953
1.3861192570869991
1.3812316715542523
1.3773216031280548
1.3734115347018572
1.3695014662756595
1.3655913978494625
1.3616813294232648
1.3607038123167154
1.3607038123167154
1.3587487781036167
1.3558162267839686
1.3528836754643203
1.348973607038123
1.3450635386119256
1.3421309872922775
1.3421309872922775
1.3509286412512218
1.3695014662756595
1.4007820136852396
1.447702834799609
1.500488758553275
1.564027370478983
1.6490713587487782
1.7487781036168133
1.8592375366568916
1.9775171065493649
2.099706744868035
2.218963831867057
2.333333333333333
2.441837732160313
2.5405669599217986
2.63049853372434
2.697947214076246
2.7497556207233624
2.80058651026393
2.844574780058651
2.8807429130009776
2.909090909090909
2.9286412512218964
2.943304007820137
2.952101661779081
2.956989247311828
2.956011730205278
2.948191593352884
2.9345063538611926
2.9149560117302054
2.8914956011730206
2.863147605083089
2.8299120234604107
2.793743890518084
2.7546432062561097
2.7116324535679373
2.667644183773216
2.6236559139784945
2.579667644183773
2.5376344086021505
2.4975562072336266
2.462365591397849
2.43108504398827
2.401759530791789
2.3734115347018574
2.3440860215053765
2.313782991202346
2.2825024437927666
2.251221896383187
2.218963831867057
2.187683284457478
2.158357771260997
2.1300097751710654
2.099706744868035
2.070381231671554
2.043010752688172
2.013685239491691
1.9824046920821117
1.949169110459433
1.913978494623656
1.878787878787879
1.842619745845552
1.8084066471163245
1.775171065493646
1.7419354838709675
1.7096774193548387
1.683284457478006
1.6598240469208212
1.6334310850439884
1.607038123167155
1.5796676441837731
1.5532746823069403
1.5278592375366569
1.5034213098729228
1.479960899315738
1.458455522971652
1.436950146627566
1.41544477028348
1.396871945259042
1.3851417399804498
1.375366568914956
1.3616813294232648
1.348973607038123
1.3372434017595307
1.3255131964809383
1.3128054740957966
1.300097751710655
1.2873900293255132
1.2776148582600195
1.2668621700879763
1.2531769305962854
1.2434017595307918
1.2365591397849462
1.227761485826002
1.2209188660801564
1.217008797653959
1.2218963831867058
1.2404692082111437
1.273704789833822
1.3235581622678396
1.3919843597262953
1.478983382209189
1.5826001955034212
1.683284457478006
1.7849462365591398
1.905180840664712
2.0361681329423265
2.1700879765395893
2.3010752688172045
2.4252199413489737
2.5405669599217986
2.6451612903225805
2.7390029325513194
2.822091886608016
2.8944281524926687
2.956011730205278
2.99902248289345
3.03128054740958
3.065493646138808
3.096774193548387
3.1221896383186705
3.1436950146627565
3.160312805474096
3.172043010752688
3.1808406647116323
3.1847507331378297
3.1818181818181817
3.172043010752688
3.1544477028347995
3.129032258064516
3.0987292277614857
3.0625610948191597
3.0195503421309877
2.9696969696969697
2.913978494623656
2.855327468230694
2.7947214076246336
2.7331378299120237
2.674486803519061
2.618768328445748
2.565982404692082
2.520039100684262
2.47702834799609
2.4330400782013686
2.3900293255131966
2.347018572825025
2.3059628543499517
2.267839687194526
2.2297165200391005
2.193548387096774
2.1593352883675463
2.124144672531769
2.088954056695992
2.058651026392962
2.03128054740958
2.0009775171065494
1.9667644183773216
1.9305962854349952
1.8944281524926687
1.8592375366568916
1.8054740957966764
1.7438905180840665
1.696969696969697
1.6578690127077225
1.6226783968719452
1.590420332355816
1.5650048875855327
1.543499511241447
1.520039100684262
1.495601173020528
1.4711632453567938
1.447702834799609
1.423264907135875
1.4007820136852396
1.3792766373411536
1.3587487781036167
1.3411534701857282
1.327468230694037
1.3176930596285434
1.3088954056695992
1.2971652003910068
1.2834799608993157
1.267839687194526
1.2531769305962854
1.238514173998045
1.2238514173998043
1.209188660801564
1.1945259042033236
1.1798631476050832
1.1671554252199414
1.1583577712609971
1.155425219941349
1.1593352883675463
1.1710654936461389
1.1945259042033236
1.2346041055718475
1.2913000977517106
1.3636363636363635
1.4516129032258065
1.552297165200391
1.6608015640273706
1.7741935483870968
1.8905180840664717
1.9902248289345064
2.0791788856304985
2.174975562072336
2.269794721407625
2.3597262952101663
2.441837732160313
2.515151515151515
2.578690127077224
2.634408602150537
2.6823069403714563
2.7233626588465296
2.757575757575758
2.7859237536656893
2.8044965786901277
2.814271749755621
2.823069403714565
2.827956989247312
2.83088954056696
2.8299120234604107
2.825024437927664
2.8152492668621703
2.7996089931573804
2.776148582600196
2.745845552297165
2.7096774193548385
2.670576735092864
2.6295210166177907
2.5835777126099706
2.533724340175953
2.4809384164222874
2.4281524926686218
2.377321603128055
2.3284457478005867
2.283479960899316
2.2404692082111435
2.20039100684262
2.1622678396871944
2.1280547409579667
2.0977517106549364
2.069403714565005
2.0391006842619745
2.006842619745845
1.9745845552297163
1.943304007820137
1.9130009775171064
1.8826979472140764
1.8543499511241448
1.8269794721407624
1.7986314760508308
1.7683284457478006
1.739980449657869
1.7126099706744868
1.6803519061583578
1.64613880742913
1.6129032258064515
1.581622678396872
1.552297165200391
1.5239491691104594
1.4965786901270772
1.4711632453567938
1.4457478005865103
1.4203323558162269
1.3949169110459434
1.3773216031280548
1.3626588465298142
1.3450635386119256
1.327468230694037
1.3098729227761483
1.2913000977517106
1.2727272727272727
1.2551319648093842
1.2394916911045943
1.224828934506354
1.2111436950146628
1.1994134897360704
1.1935483870967742
1.1886608015640274
1.1788856304985338
1.166177908113392
1.152492668621701
1.1397849462365592
1.1280547409579669
1.118279569892473
1.1124144672531768
1.1114369501466277
1.1173020527859236
1.1348973607038124
1.1671554252199414
1.2082111436950147
1.260019550342131
1.3304007820136852
1.418377321603128
1.5190615835777126
1.6285434995112416
1.7429130009775171
1.857282502443793
1.9696969696969695
2.078201368523949
2.179863147605083
2.271749755620724
2.343108504398827
2.401759530791789
2.4613880742913
2.5161290322580645
2.5640273704789838
2.6021505376344085
2.633431085043988
2.658846529814272
2.679374389051808
2.6940371456500487
2.7038123167155423
2.708699902248289
2.7067448680351904
2.699902248289345
2.689149560117302
2.673509286412512
2.6529814271749754
2.6265884652981426
2.5962854349951123
2.5610948191593352
2.5210166177908118
2.4780058651026398
2.434017595307918
2.3900293255131966
2.345063538611926
2.304985337243402
2.267839687194526
2.2297165200391005
2.190615835777126
2.155425219941349
2.12316715542522
2.09188660801564
2.0625610948191597
2.034213098729228
2.006842619745845
1.978494623655914
1.948191593352884
1.921798631476051
1.8983382209188664
1.871945259042033
1.844574780058651
1.818181818181818
1.7888563049853372
1.7575757575757576
1.7272727272727273
1.696969696969697
1.667644183773216
1.6383186705767352
1.608993157380254
1.5796676441837731
1.555229716520039
1.533724340175953
1.509286412512219
1.4838709677419355
1.458455522971652
1.4330400782013686
1.4086021505376345
1.3870967741935485
1.3665689149560116
1.3470185728250244
1.3284457478005864
1.3098729227761483
1.2961876832844574
1.284457478005865
1.270772238514174
1.2570869990224829
1.2453567937438903
1.2346041055718475
1.2238514173998043
1.2130987292277615
1.2023460410557183
1.1915933528836755
1.1808406647116323
1.1700879765395895
1.1583577712609971
1.1505376344086022
1.144672531769306
1.1358748778103618
1.1280547409579669
1.1231671554252198
1.1241446725317692
1.133919843597263
1.1544477028347997
1.1886608015640274
1.2375366568914956
1.3020527859237536
1.3822091886608017
1.4633431085043989
1.547409579667644
1.6471163245356797
1.7556207233626588
1.8670576735092863
1.978494623655914
2.086021505376344
2.185728250244379
2.275659824046921
2.356793743890518
2.4271749755620724
2.487781036168133
2.5376344086021505
2.5718475073313782
2.595307917888563
2.6177908113391983
2.636363636363636
2.6510263929618767
2.659824046920821
2.6637341153470184
2.66177908113392
2.653958944281525
2.641251221896383
2.6236559139784945
2.6021505376344085
2.576735092864125
2.575757575757576
2.581622678396872
2.560117302052786
2.5239491691104594
2.4809384164222874
2.434017595307918
2.386119257086999
2.3382209188660803
2.291300097751711
2.247311827956989
2.207233626588465
2.16911045943304
2.136852394916911
2.10752688172043
2.078201368523949
2.048875855327468
2.0195503421309877
1.991202346041056
1.9618768328445748
1.9305962854349952
1.8973607038123168
1.8641251221896384
1.8299120234604105
1.793743890518084
1.761485826001955
1.732160312805474
1.696969696969697
1.6578690127077225
1.6177908113391983
1.576735092864125
1.5376344086021505
1.498533724340176
1.4613880742913
1.426197458455523
1.391006842619746
1.3587487781036167
1.3294232649071358
1.305962854349951
1.2854349951124144
1.2609970674486803
1.2355816226783969
1.2111436950146628
1.1886608015640274
1.1691104594330402
1.1505376344086022
1.1329423264907137
1.115347018572825
1.0977517106549364
1.0811339198435972
1.0694037145650048
1.0606060606060606
1.0478983382209188
1.035190615835777
1.0224828934506354
1.0097751710654936
0.9951124144672532
0.9775171065493646
0.9579667644183774
0.9374389051808406
0.9178885630498532
0.9022482893450636
0.8895405669599218
0.8856304985337243
0.8885630498533724
0.895405669599218
0.9120234604105572
0.9433040078201368
0.9921798631476052
1.0576735092864125
1.1436950146627567
1.249266862170088
1.3685239491691104
1.4975562072336266
1.6304985337243405
1.747800586510264
1.8563049853372435
1.9726295210166176
2.0869990224828934
2.193548387096774
2.289345063538612
2.372434017595308
2.442815249266862
2.501466275659824
2.548387096774193
2.5855327468230693
2.611925708699902
2.6295210166177907
2.636363636363636
2.635386119257087
2.631476050830889
2.6236559139784945
2.611925708699902
2.598240469208211
2.5777126099706744
2.550342130987292
2.5180840664711632
2.4819159335288368
2.442815249266862
2.401759530791789
2.363636363636364
2.3255131964809386
2.2825024437927666
2.239491691104594
2.20039100684262
2.164222873900293
2.1300097751710654
2.0987292277614857
2.071358748778104
2.047898338220919
2.0254154447702835
2.002932551319648
1.9804496578690127
1.959921798631476
1.9403714565004888
1.9178885630498532
1.89247311827957
1.8641251221896384
1.833822091886608
1.804496578690127
1.772238514173998
1.7380254154447703
1.7038123167155426
1.6705767350928642
1.6363636363636365
1.6080156402737047
1.5826001955034212
1.555229716520039
1.5268817204301075
1.495601173020528
1.4643206256109482
1.434017595307918
1.4037145650048877
1.3763440860215057
1.3499511241446724
1.324535679374389
1.3010752688172045
1.284457478005865
1.270772238514174
1.2531769305962854
1.2336265884652982
1.2130987292277615
1.1935483870967742
1.1759530791788857
1.1612903225806452
1.1485826001955035
1.1378299120234605
1.1280547409579669
1.1192570869990224
1.1094819159335287
1.1026392961876832
1.0977517106549364
1.0918866080156402
1.0840664711632453
1.0762463343108504
1.0703812316715542
1.067448680351906
1.067448680351906
1.075268817204301
1.093841642228739
1.126099706744868
1.173998044965787
1.2297165200391007
1.2961876832844574
1.3861192570869991
1.4936461388074291
1.6158357771260996
1.747800586510264
1.8826979472140764
2.016617790811339
2.1485826001955037
2.275659824046921
2.3958944281524928
2.504398826979472
2.601173020527859
2.673509286412512
2.729227761485826
2.7839687194525906
2.8299120234604107
2.866080156402737
2.89345063538612
2.9120234604105573
2.9227761485826003
2.9266862170087977
2.924731182795699
2.9149560117302054
2.8993157380254155
2.87683284457478
2.849462365591398
2.8181818181818183
2.78494623655914
2.748778103616813
2.7096774193548385
2.668621700879765
2.6265884652981426
2.581622678396872
2.5376344086021505
2.495601173020528
2.455522971652004
2.418377321603128
2.386119257086999
2.357771260997068
2.3284457478005867
2.2991202346041058
2.269794721407625
2.241446725317693
2.2130987292277613
2.1837732160312804
2.15347018572825
2.1221896383186705
2.09188660801564
2.06158357771261
2.034213098729228
2.005865102639296
1.9736070381231672
1.9403714565004888
1.9071358748778104
1.8729227761485825
1.8406647116324533
1.8093841642228736
1.7781036168132942
1.7438905180840665
1.7096774193548387
1.675464320625611
1.6412512218963833
1.611925708699902
1.587487781036168
1.560117302052786
1.5317693059628543
1.5024437927663734
1.474095796676442
1.4496578690127078
1.4271749755620724
1.4056695992179864
1.3851417399804498
1.3655913978494625
1.3450635386119256
1.3294232649071358
1.3176930596285434
1.3040078201368523
1.2913000977517106
1.278592375366569
1.2658846529814272
1.2531769305962854
1.2404692082111437
1.227761485826002
1.2130987292277615
1.1945259042033236
1.176930596285435
1.1612903225806452
1.152492668621701
1.1485826001955035
1.1436950146627567
1.142717497556207
1.1495601173020529
1.1681329423264908
1.203323558162268
1.2834799608993157
1.396871945259042
1.5063538611925709
1.6207233626588464
1.7438905180840665
1.8563049853372435
1.9657869012707725
2.09188660801564
2.2238514173998043
2.356793743890518
2.4858260019550342
2.6050830889540566
2.7145650048875853
2.8103616813294234
2.89345063538612
2.9657869012707723
3.027370478983382
3.080156402737048
3.117302052785924
3.1436950146627565
3.1710654936461387
3.196480938416422
3.217986314760508
3.2355816226783967
3.24633431085044
3.2502443792766376
3.249266862170088
3.242424242424242
3.228739002932551
3.2082111436950145
3.1818181818181817
3.1495601173020527
3.1114369501466275
3.067448680351906
3.0175953079178885
2.962854349951124
2.903225806451613
2.8406647116324537
2.777126099706745
2.7155425219941347
2.6578690127077222
2.603128054740958
2.550342130987292
2.5034213098729228
2.4604105571847508
2.4173998044965788
2.3743890518084068
2.333333333333333
2.294232649071359
2.254154447702835
2.21505376344086
2.176930596285435
2.1388074291300097
2.101661779081134
2.065493646138808
2.0332355816226784
2.0019550342130987
1.9667644183773216
1.9315738025415443
1.895405669599218
1.858260019550342
1.823069403714565
1.7869012707722385
1.747800586510264
1.7096774193548387
1.6744868035190617
1.6392961876832846
1.6050830889540566
1.5777126099706744
1.5542521994134897
1.5298142717497556
1.5034213098729228
1.478005865102639
1.4535679374389052
1.4291300097751711
1.4066471163245358
1.3851417399804498
1.364613880742913
1.3450635386119256
1.3255131964809383
1.310850439882698
1.2991202346041055
1.2854349951124144
1.2717497556207231
1.2570869990224829
1.241446725317693
1.2258064516129032
1.209188660801564
1.1945259042033236
1.1808406647116323
1.1691104594330402
1.1612903225806452
1.160312805474096
1.1691104594330402
1.1886608015640274
1.2218963831867058
1.2727272727272727
1.3421309872922775
1.43108504398827
1.5347018572825024
1.6500488758553276
1.7761485826001957
1.9071358748778104
2.040078201368524
2.1710654936461387
2.283479960899316
2.383186705767351
2.486803519061584
2.587487781036168
2.6803519061583576
2.7624633431085046
2.835777126099707
2.8993157380254155
2.952101661779081
2.997067448680352
3.0332355816226784
3.06158357771261
3.0772238514174
3.085043988269794
3.093841642228739
3.099706744868035
3.102639296187683
3.101661779081134
3.0957966764418376
3.0840664711632453
3.065493646138808
3.037145650048876
3.0009775171065494
2.956989247311828
2.9071358748778104
2.857282502443793
2.806451612903226
2.7497556207233624
2.6911045943304006
2.631476050830889
2.572825024437928
2.517106549364614
2.4652981427174976
2.4173998044965788
2.3704789833822093
2.3255131964809386
2.283479960899316
2.247311827956989
2.2160312805474094
2.1837732160312804
2.1485826001955037
2.112414467253177
2.0772238514174
2.043010752688172
2.0087976539589443
1.9736070381231672
1.9364613880742916
1.900293255131965
1.8621700879765395
1.825024437927664
1.793743890518084
1.7634408602150538
1.7282502443792769
1.6920821114369502
1.656891495601173
1.6217008797653958
1.5865102639296187
1.5542521994134897
1.52297165200391
1.4946236559139785
1.4672531769305963
1.4428152492668622
1.4252199413489737
1.4115347018572826
1.393939393939394
1.375366568914956
1.3558162267839686
1.335288367546432
1.3147605083088951
1.295210166177908
1.278592375366569
1.2639296187683284
1.2502443792766371
1.2365591397849462
