ppg
1.686217008797654
1.6637341153470186
1.6363636363636365
1.608993157380254
1.5806451612903225
1.5532746823069403
1.5278592375366569
1.5024437927663734
1.478983382209189
1.456500488758553
1.4349951124144673
1.414467253176931
1.3958944281524928
1.3812316715542523
1.3685239491691104
1.356793743890518
1.3470185728250244
1.3401759530791788
1.335288367546432
1.3304007820136852
1.3255131964809383
1.321603128054741
1.3176930596285434
1.3128054740957966
1.3088954056695992
1.3069403714565004
1.305962854349951
1.303030303030303
1.2981427174975562
1.2903225806451613
1.2805474095796676
1.267839687194526
1.252199413489736
1.2355816226783969
1.219941348973607
1.209188660801564
1.2082111436950147
1.2209188660801564
1.2531769305962854
1.3157380254154447
1.4076246334310851
1.5249266862170088
1.6598240469208212
1.8005865102639296
1.9374389051808407
2.0625610948191597
2.1710654936461387
2.260019550342131
2.3284457478005867
2.376344086021505
2.401759530791789
2.412512218963832
2.4164222873900294
2.4115347018572826
2.39980449657869
2.383186705767351
2.3626588465298144
2.3382209188660803
2.3088954056695994
2.2737047898338223
2.2346041055718477
2.190615835777126
2.1495601173020527
2.10850439882698
2.06158357771261
2.010752688172043
1.9530791788856303
1.89247311827957
1.828934506353861
1.7653958944281525
1.7028347996089932
1.643206256109482
1.5865102639296187
1.5347018572825024
1.4897360703812317
1.455522971652004
1.4291300097751711
1.4056695992179864
1.3851417399804498
1.3685239491691104
1.3577712609970674
1.3499511241446724
1.3440860215053765
1.3391984359726294
1.3343108504398826
1.3294232649071358
1.3264907135874875
1.3255131964809383
1.3255131964809383
1.3235581622678396
1.3206256109481915
1.316715542521994
1.310850439882698
1.3010752688172045
1.2903225806451613
1.278592375366569
1.2658846529814272
1.2531769305962854
1.241446725317693
1.2297165200391007
1.2218963831867058
1.2160312805474096
1.2111436950146628
1.2082111436950147
1.2072336265884651
1.206256109481916
1.206256109481916
1.2072336265884651
1.209188660801564
1.2101661779081134
1.2101661779081134
1.2101661779081134
1.2111436950146628
1.2130987292277615
1.2140762463343109
1.2130987292277615
1.2101661779081134
1.2072336265884651
1.2043010752688172
1.2013685239491692
1.1974584555229717
1.195503421309873
1.1964809384164223
1.2043010752688172
1.2238514173998043
1.2531769305962854
1.2991202346041055
1.370478983382209
1.469208211143695
1.5894428152492668
1.7233626588465298
1.8602150537634408
1.9902248289345064
2.1055718475073317
2.201368523949169
2.2766373411534704
2.3284457478005867
2.355816226783969
2.3685239491691106
2.372434017595308
2.364613880742913
2.347018572825025
2.321603128054741
2.290322580645161
2.254154447702835
2.2140762463343107
2.1700879765395893
2.1221896383186705
2.070381231671554
2.013685239491691
1.959921798631476
1.906158357771261
1.8435972629521016
1.7761485826001957
1.70772238514174
1.640273704789834
1.5747800586510263
1.5131964809384164
1.455522971652004
1.404692082111437
1.3616813294232648
1.324535679374389
1.2981427174975562
1.2795698924731185
1.262952101661779
1.2502443792766371
1.241446725317693
1.2355816226783969
1.23069403714565
1.2258064516129032
1.219941348973607
1.2130987292277615
1.2052785923753666
1.1974584555229717
1.1886608015640274
1.1837732160312806
1.1798631476050832
1.1749755620723363
1.1691104594330402
1.163245356793744
1.1573802541544478
1.1505376344086022
1.142717497556207
1.133919843597263
1.1231671554252198
1.1114369501466277
1.099706744868035
1.0918866080156402
1.0869990224828934
1.0811339198435972
1.0742913000977516
1.0684261974584557
1.06158357771261
1.053763440860215
1.0469208211143697
1.0410557184750733
1.0342130987292275
1.029325513196481
1.024437927663734
1.0195503421309873
1.018572825024438
1.0205278592375366
1.0205278592375366
1.0166177908113392
1.010752688172043
1.0048875855327468
1.002932551319648
1.010752688172043
1.035190615835777
1.0850439882697946
1.163245356793744
1.270772238514174
1.383186705767351
1.4926686217008798
1.6158357771260996
1.7468230694037146
1.871945259042033
1.981427174975562
2.071358748778104
2.139784946236559
2.190615835777126
2.225806451612903
2.2482893450635384
2.2551319648093844
2.254154447702835
2.2482893450635384
2.233626588465298
2.212121212121212
2.185728250244379
2.15347018572825
2.117302052785924
2.0791788856304985
2.0254154447702835
1.9745845552297163
1.935483870967742
1.8866080156402736
1.83088954056696
1.7771260997067448
1.7233626588465298
1.6598240469208212
1.590420332355816
1.5190615835777126
1.447702834799609
1.3792766373411536
1.3176930596285434
1.2639296187683284
1.2189638318670577
1.1808406647116323
1.1515151515151516
1.1280547409579669
1.1133919843597262
1.104594330400782
1.0977517106549364
1.0928641251221896
1.0909090909090908
1.0909090909090908
1.093841642228739
1.0987292277614855
1.1055718475073313
1.110459433040078
1.1133919843597262
1.1143695014662756
1.1173020527859236
1.1202346041055715
1.1221896383186705
1.1251221896383188
1.1280547409579669
1.1319648093841643
1.1358748778103618
1.1378299120234605
1.13880742913001
1.13880742913001
1.13880742913001
1.13880742913001
1.1407624633431086
1.142717497556207
1.142717497556207
1.142717497556207
1.144672531769306
1.164222873900293
1.206256109481916
1.2668621700879763
1.3479960899315735
1.4467253176930597
1.5571847507331378
1.6715542521994136
1.7575757575757576
1.836754643206256
1.9296187683284456
2.006842619745845
2.058651026392962
2.1006842619745845
2.1417399804496577
2.164222873900293
2.172043010752688
2.16911045943304
2.157380254154448
2.145650048875855
2.1270772238514173
2.0977517106549364
2.067448680351906
2.0332355816226784
1.9960899315738023
1.956989247311828
1.913978494623656
1.868035190615836
1.8191593352883677
1.7702834799608993
1.7204301075268815
1.6715542521994136
1.624633431085044
1.5865102639296187
1.5542521994134897
1.521016617790811
1.4916911045943304
1.4682306940371457
1.4506353861192571
1.439882697947214
1.434017595307918
1.4330400782013686
1.436950146627566
1.4428152492668622
1.4486803519061584
1.452590420332356
1.4545454545454546
1.4545454545454546
1.4545454545454546
1.4545454545454546
1.4535679374389052
1.4535679374389052
1.4535679374389052
1.4535679374389052
1.452590420332356
1.4486803519061584
1.4428152492668622
1.435972629521017
1.4301075268817205
1.4252199413489737
1.418377321603128
1.4076246334310851
1.3958944281524928
1.3841642228739004
1.370478983382209
1.356793743890518
1.3450635386119256
1.3343108504398826
1.3255131964809383
1.316715542521994
1.310850439882698
1.3079178885630498
1.3040078201368523
1.300097751710655
1.2961876832844574
1.29227761485826
1.2873900293255132
1.2795698924731185
1.2697947214076246
1.260019550342131
1.2502443792766371
1.241446725317693
1.2355816226783969
1.2326490713587488
1.2287390029325511
1.2209188660801564
1.2121212121212122
1.2043010752688172
1.1994134897360704
1.2003910068426198
1.2121212121212122
1.2443792766373412
1.3010752688172045
1.3851417399804498
1.495601173020528
1.607038123167155
1.721407624633431
1.8563049853372435
1.994134897360704
2.12316715542522
2.2375366568914954
2.332355816226784
2.4056695992179864
2.458455522971652
2.495601173020528
2.517106549364614
2.5249266862170088
2.5190615835777126
2.5034213098729228
2.4809384164222874
2.4516129032258065
2.4173998044965788
2.3792766373411536
2.3382209188660803
2.294232649071359
2.247311827956989
2.198435972629521
2.144672531769306
2.086021505376344
2.0234604105571847
1.9657869012707725
1.9090909090909087
1.8435972629521016
1.7732160312805474
1.699902248289345
1.6256109481915937
1.555229716520039
1.4887585532746823
1.4271749755620724
1.3714565004887584
1.3225806451612905
1.2795698924731185
1.2424242424242424
1.2160312805474096
1.1964809384164223
1.1779081133919844
1.160312805474096
1.144672531769306
1.1319648093841643
1.1221896383186705
1.1133919843597262
1.104594330400782
1.096774193548387
1.0899315738025417
1.0840664711632453
1.0821114369501466
1.0821114369501466
1.0811339198435972
1.0821114369501466
1.083088954056696
1.0840664711632453
1.0840664711632453
1.0840664711632453
1.0840664711632453
1.0840664711632453
1.0840664711632453
1.0840664711632453
1.0840664711632453
1.086021505376344
1.0869990224828934
1.086021505376344
1.0850439882697946
1.0850439882697946
1.0850439882697946
1.0850439882697946
1.086021505376344
1.0879765395894427
1.0918866080156402
1.096774193548387
1.1026392961876832
1.1094819159335287
1.1163245356793745
1.1221896383186705
1.1270772238514175
1.1329423264907137
1.142717497556207
1.163245356793744
1.1974584555229717
1.2512218963831867
1.3294232649071358
1.4301075268817205
1.5503421309872922
1.6813294232649072
1.7986314760508308
1.903225806451613
2.0127077223851417
2.112414467253177
2.1974584555229715
2.2658846529814274
2.317693059628544
2.458455522971652
2.6402737047898337
2.7341153470185726
2.777126099706745
2.788856304985337
2.782991202346041
2.764418377321604
2.73802541544477
2.705767350928641
2.667644183773216
2.624633431085044
2.576735092864125
2.5249266862170088
2.4672531769305963
2.4056695992179864
2.3411534701857284
2.272727272727273
2.20039100684262
2.133919843597263
2.072336265884653
2.006842619745845
1.9393939393939397
1.8758553274682308
1.8172043010752688
1.7634408602150538
1.718475073313783
1.6823069403714566
1.6549364613880744
1.632453567937439
1.6158357771260996
1.6050830889540566
1.5972629521016617
1.611925708699902
1.607038123167155
1.6011730205278591
1.5923753665689149
1.581622678396872
1.5698924731182795
1.5542521994134897
1.5376344086021505
1.520039100684262
1.501466275659824
1.482893450635386
1.4643206256109482
1.447702834799609
1.43108504398827
1.41544477028348
1.4007820136852396
1.391006842619746
1.3822091886608017
1.3724340175953078
1.3607038123167154
1.348973607038123
1.3362658846529814
1.324535679374389
1.310850439882698
1.2942326490713587
1.2776148582600195
1.2639296187683284
1.2502443792766371
1.2394916911045943
1.2336265884652982
1.23069403714565
1.2258064516129032
1.2209188660801564
1.2150537634408602
1.209188660801564
1.2013685239491692
1.1915933528836755
1.1798631476050832
1.1681329423264908
1.1544477028347997
1.1378299120234605
1.1270772238514175
1.1192570869990224
1.1094819159335287
1.099706744868035
1.0918866080156402
1.0850439882697946
1.078201368523949
1.072336265884653
1.0654936461388074
1.0606060606060606
1.0586510263929618
1.0576735092864125
1.0586510263929618
1.0635386119257086
1.0694037145650048
1.0733137829912025
1.0772238514173995
1.0791788856304985
1.078201368523949
1.075268817204301
1.072336265884653
1.0703812316715542
1.0694037145650048
1.0694037145650048
1.067448680351906
1.0664711632453567
1.064516129032258
1.0557184750733135
1.0449657869012707
1.040078201368524
1.0469208211143697
1.078201368523949
1.1466275659824048
1.2590420332355816
1.4173998044965788
1.619745845552297
1.8523949169110456
2.0977517106549364
2.310850439882698
2.498533724340176
2.6901270772238512
2.8670576735092865
3.022482893450636
3.15347018572825
3.2561094819159337
3.3313782991202348
3.3812316715542523
3.407624633431085
3.4134897360703813
3.398826979472141
3.3685239491691106
3.326490713587488
3.272727272727273
3.2082111436950145
3.136852394916911
3.059628543499511
2.9775171065493646
2.89247311827957
2.8044965786901277
2.7145650048875853
2.6207233626588464
2.5219941348973607
2.420332355816227
2.3255131964809386
2.232649071358749
2.131964809384164
2.0283479960899315
1.9257086999022484
1.8269794721407624
1.7380254154447703
1.6578690127077225
1.5865102639296187
1.525904203323558
1.4750733137829912
1.4330400782013686
1.401759530791789
1.3782991202346042
1.3577712609970674
1.3411534701857282
1.3294232649071358
1.3235581622678396
1.3206256109481915
1.3196480938416422
1.3157380254154447
1.3079178885630498
1.2971652003910068
1.2854349951124144
1.2766373411534702
1.2688172043010753
1.2590420332355816
1.2482893450635386
1.238514173998045
1.2287390029325511
1.2189638318670577
1.2111436950146628
1.2043010752688172
1.195503421309873
1.18475073313783
1.1730205278592376
1.1612903225806452
1.152492668621701
1.144672531769306
1.1329423264907137
1.121212121212121
1.1124144672531768
1.104594330400782
1.1006842619745845
1.1016617790811338
1.1065493646138806
1.1173020527859236
1.1319648093841643
1.1485826001955035
1.166177908113392
1.18475073313783
1.203323558162268
1.219941348973607
1.2346041055718475
1.2482893450635386
1.2580645161290325
1.262952101661779
1.2688172043010753
1.281524926686217
1.3079178885630498
1.3548387096774193
1.4320625610948192
1.521016617790811
1.6275659824046922
1.7761485826001957
1.9550342130987293
2.147605083088954
2.340175953079179
2.52297165200391
2.689149560117302
2.832844574780059
2.948191593352884
3.040078201368524
3.1094819159335287
3.147605083088954
3.160312805474096
3.161290322580645
3.1524926686217007
3.132942326490713
3.102639296187683
3.0625610948191597
3.0127077223851417
2.956989247311828
2.8944281524926687
2.8240469208211145
2.7468230694037143
2.664711632453568
2.5884652981427174
2.512218963831867
2.4281524926686218
2.340175953079179
2.2561094819159337
2.175953079178885
2.1006842619745845
2.0303030303030303
1.964809384164223
1.9071358748778104
1.8602150537634408
1.823069403714565
1.7947214076246334
1.772238514173998
1.75366568914956
1.7380254154447703
1.7243401759530792
1.710654936461388
1.6979472140762464
1.6881720430107527
1.6803519061583578
1.6715542521994136
1.664711632453568
1.6559139784946235
1.6451612903225807
1.635386119257087
1.6275659824046922
1.6207233626588464
1.6148582600195502
1.6080156402737047
1.6021505376344083
1.5962854349951123
1.5884652981427174
1.5777126099706744
1.565982404692082
1.552297165200391
1.5395894428152492
1.5298142717497556
1.521016617790811
1.5102639296187683
1.498533724340176
1.4858260019550342
1.4721407624633431
1.455522971652004
1.439882697947214
1.426197458455523
1.4115347018572826
1.3958944281524928
1.380254154447703
1.3616813294232648
1.3450635386119256
1.3284457478005864
1.3079178885630498
1.2883675464320623
1.2766373411534702
1.2639296187683284
1.2697947214076246
1.3225806451612905
1.4173998044965788
1.5503421309872922
1.7116324535679377
1.889540566959922
2.048875855327468
2.190615835777126
2.337243401759531
2.472140762463343
2.5865102639296187
2.675464320625611
2.73802541544477
2.779081133919844
2.80058651026393
2.806451612903226
2.7996089931573804
2.78494623655914
2.7614858260019552
2.7311827956989245
2.6940371456500487
2.650048875855328
2.6021505376344085
2.550342130987292
2.4946236559139785
2.4349951124144678
2.3734115347018574
2.3088954056695994
2.2375366568914954
2.1593352883675463
2.074291300097752
1.994134897360704
1.9149560117302051
1.826001955034213
1.7350928641251222
1.6471163245356797
1.563049853372434
1.482893450635386
1.4076246334310851
1.3411534701857282
1.2834799608993157
1.2336265884652982
1.1925708699902249
1.1573802541544478
1.1319648093841643
1.1114369501466277
1.0879765395894427
1.064516129032258
1.043010752688172
1.0224828934506354
1.0048875855327468
0.9882697947214076
0.9736070381231672
0.9608993157380256
0.9491691104594332
0.93841642228739
0.9315738025415444
0.9266862170087976
0.9188660801564028
0.9100684261974584
0.8993157380254154
0.8866080156402737
0.8719452590420332
0.8582600195503421
0.8475073313782991
0.8396871945259042
0.8328445747800587
0.8279569892473119
0.8269794721407625
0.8318670576735093
0.8387096774193549
0.841642228739003
0.8435972629521017
0.8455522971652004
0.8475073313782991
0.8494623655913979
0.852394916911046
0.8533724340175953
0.8543499511241447
0.8543499511241447
0.8572825024437928
0.8660801564027371
0.8875855327468231
0.9286412512218964
0.9951124144672532
1.093841642228739
1.224828934506354
1.3841642228739004
1.5620723362658846
1.7458455522971652
1.9237536656891496
2.086021505376344
2.228739002932551
2.346041055718475
2.4281524926686218
2.487781036168133
2.5405669599217986
2.5806451612903225
2.6050830889540566
2.6177908113391983
2.619745845552297
2.6158357771261
2.606060606060606
2.589442815249267
2.5669599217986314
2.5376344086021505
2.5034213098729228
2.4652981427174976
2.4222873900293256
2.3734115347018574
2.318670576735093
2.2580645161290325
2.1925708699902247
2.1251221896383186
2.0576735092864125
1.992179863147605
1.9286412512218964
1.868035190615836
1.818181818181818
1.7781036168132942
1.7429130009775171
1.7135874877810362
1.6911045943304008
1.675464320625611
1.6656891495601174
1.6578690127077225
1.653958944281525
1.6520039100684265
1.6500488758553276
1.6490713587487782
1.6471163245356797
1.643206256109482
1.6373411534701858
1.629521016617791
1.6207233626588464
1.611925708699902
1.606060606060606
1.603128054740958
1.606060606060606
1.6187683284457477
1.6451612903225807
1.6852394916911049
1.739980449657869
1.7976539589442817
1.8602150537634408
1.9374389051808407
2.0205278592375366
2.099706744868035
2.1681329423264906
2.2218963831867056
2.257086999022483
2.274682306940372
2.27761485826002
2.264907135874878
2.2375366568914954
2.1974584555229715
2.15347018572825
2.103616813294233
2.0439882697947214
1.9775171065493649
1.9090909090909087
1.8416422287390029
1.7741935483870968
1.7086999022482894
1.6451612903225807
1.5865102639296187
1.5327468230694037
1.4858260019550342
1.4496578690127078
1.4193548387096775
1.3900293255131966
1.364613880742913
1.3470185728250244
1.3372434017595307
1.332355816226784
1.3294232649071358
1.3294232649071358
1.3304007820136852
1.3313782991202343
1.3313782991202343
1.3304007820136852
1.3284457478005864
1.327468230694037
1.327468230694037
1.327468230694037
1.327468230694037
1.327468230694037
1.324535679374389
1.3176930596285434
1.3069403714565004
1.29227761485826
1.2795698924731185
1.2756598240469208
1.284457478005865
1.3118279569892473
1.3695014662756595
1.4623655913978495
1.5884652981427174
1.7419354838709675
1.9120234604105573
2.0879765395894427
2.257086999022483
2.4056695992179864
2.5317693059628543
2.634408602150537
2.7096774193548385
2.7546432062561097
2.7751710654936463
2.782991202346041
2.7781036168132944
2.7624633431085046
2.736070381231672
2.7008797653958942
2.658846529814272
2.6099706744868034
2.552297165200391
2.4887585532746823
2.418377321603128
2.3489736070381237
2.2795698924731185
2.20039100684262
2.114369501466276
2.0234604105571847
1.932551319648094
1.8406647116324533
1.7487781036168133
1.66177908113392
1.5796676441837731
1.5034213098729228
1.4349951124144673
1.375366568914956
1.3313782991202343
1.2981427174975562
1.267839687194526
1.2424242424242424
1.219941348973607
1.1994134897360704
1.1837732160312806
1.173998044965787
1.166177908113392
1.1593352883675463
1.1534701857282503
1.147605083088954
1.1436950146627567
1.13880742913001
1.1329423264907137
1.1270772238514175
1.1202346041055715
1.1124144672531768
1.1016617790811338
1.088954056695992
1.0772238514173995
1.0694037145650048
1.0694037145650048
1.0840664711632453
1.164222873900293
1.2795698924731185
1.3782991202346042
1.4887585532746823
1.6129032258064515
1.7448680351906158
1.873900293255132
1.992179863147605
2.093841642228739
2.176930596285435
2.239491691104594
2.280547409579668
2.303030303030303
2.3088954056695994
2.3010752688172045
2.281524926686217
2.251221896383187
2.2111436950146626
2.164222873900293
2.1094819159335287
2.048875855327468
1.9824046920821117
1.90811339198436
1.8299120234604105
1.750733137829912
1.675464320625611
1.6129032258064515
1.5591397849462365
1.5053763440860215
1.455522971652004
1.409579667644184
1.3695014662756595
1.3362658846529814
1.3098729227761483
1.2903225806451613
1.2766373411534702
1.2697947214076246
1.2688172043010753
1.2717497556207231
1.278592375366569
1.2873900293255132
1.2981427174975562
1.3118279569892473
1.324535679374389
1.3362658846529814
1.3470185728250244
1.356793743890518
1.3636363636363635
1.3714565004887584
1.380254154447703
1.3900293255131966
1.3998044965786902
1.4086021505376345
1.41544477028348
1.4203323558162269
1.423264907135875
1.4242424242424243
1.4252199413489737
1.4252199413489737
1.4271749755620724
1.4301075268817205
1.435972629521017
1.4437927663734116
1.452590420332356
1.4623655913978495
1.4721407624633431
1.482893450635386
1.4916911045943304
1.4975562072336266
1.500488758553275
1.5024437927663734
1.5034213098729228
1.5034213098729228
1.5034213098729228
1.5034213098729228
1.5034213098729228
1.5034213098729228
1.5034213098729228
1.5034213098729228
1.5034213098729228
1.5034213098729228
1.500488758553275
1.495601173020528
1.490713587487781
1.4858260019550342
1.479960899315738
1.4760508308895406
1.4721407624633431
1.4672531769305963
1.4623655913978495
1.4535679374389052
1.4418377321603129
1.4320625610948192
1.43108504398827
1.452590420332356
1.509286412512219
1.607038123167155
1.7497556207233629
1.9305962854349952
2.139784946236559
2.329423264907136
2.5034213098729228
2.6881720430107525
2.859237536656892
3.003910068426197
3.1192570869990224
3.204301075268817
3.260019550342131
3.290322580645161
3.297165200391007
3.286412512218964
3.2629521016617797
3.2297165200391005
3.187683284457478
3.1407624633431084
3.088954056695992
3.0332355816226784
2.9745845552297165
2.909090909090909
2.835777126099707
2.7565982404692084
2.6715542521994133
2.582600195503421
2.489736070381232
2.396871945259042
2.313782991202346
2.236559139784946
2.1544477028347995
2.0733137829912023
1.9951124144672527
1.9227761485826005
1.858260019550342
1.8025415444770283
1.7546432062561097
1.715542521994135
1.686217008797654
1.6637341153470186
1.6451612903225807
1.6304985337243405
1.6158357771260996
1.598240469208211
1.5777126099706744
1.555229716520039
1.533724340175953
1.5131964809384164
1.4926686217008798
1.4721407624633431
1.4516129032258065
1.4281524926686218
1.4007820136852396
1.3773216031280548
1.3558162267839686
1.3333333333333333
1.3118279569892473
1.289345063538612
1.267839687194526
1.2473118279569892
1.2238514173998043
1.2003910068426198
1.1779081133919844
1.1564027370478984
1.1358748778103618
1.1143695014662756
1.0987292277614855
1.0869990224828934
1.0733137829912025
1.0606060606060606
1.0478983382209188
1.0342130987292275
1.0234604105571847
1.0146627565982405
1.0058651026392962
0.9990224828934506
0.9931573802541545
0.989247311827957
0.9912023460410556
0.9941348973607038
0.9951124144672532
0.9941348973607038
0.989247311827957
0.9804496578690128
0.9696969696969696
0.9618768328445748
0.9648093841642228
0.9882697947214076
1.0439882697947214
1.1407624633431086
1.2766373411534702
1.4213098729227762
1.5777126099706744
1.7653958944281525
1.963831867057673
2.15347018572825
2.32355816226784
2.466275659824047
2.5806451612903225
2.667644183773216
2.729227761485826
2.76930596285435
2.790811339198436
2.7947214076246336
2.787878787878788
2.774193548387097
2.752688172043011
2.7253176930596283
2.6911045943304006
2.6510263929618767
2.6050830889540566
2.552297165200391
2.4946236559139785
2.4330400782013686
2.3685239491691106
2.300097751710655
2.2346041055718477
2.16911045943304
2.096774193548387
2.0205278592375366
1.9423264907135875
1.865102639296188
1.7917888563049853
1.7253176930596286
1.667644183773216
1.6177908113391983
1.5777126099706744
1.547409579667644
1.5268817204301075
1.5141739980449658
1.5063538611925709
1.5024437927663734
1.501466275659824
1.5024437927663734
1.5034213098729228
1.5034213098729228
1.5034213098729228
1.5034213098729228
1.5034213098729228
1.5024437927663734
1.499511241446725
1.4975562072336266
1.495601173020528
1.4887585532746823
1.4809384164222874
1.4731182795698925
1.466275659824047
1.4594330400782014
1.4535679374389052
1.4506353861192571
1.4486803519061584
