ppg
1.520039100684262
1.5190615835777126
1.5112414467253177
1.498533724340176
1.4819159335288368
1.4633431085043989
1.4437927663734116
1.423264907135875
1.401759530791789
1.3792766373411536
1.3558162267839686
1.3294232649071358
1.3069403714565004
1.2854349951124144
1.262952101661779
1.2531769305962854
1.267839687194526
1.321603128054741
1.4222873900293256
1.5679374389051808
1.7487781036168133
1.948191593352884
2.146627565982405
2.326490713587488
2.4711632453567938
2.5669599217986314
2.622678396871945
2.649071358748778
2.64613880742913
2.6177908113391983
2.5718475073313782
2.515151515151515
2.453567937438905
2.389051808406647
2.324535679374389
2.260997067448681
2.19941348973607
2.1436950146627565
2.0928641251221896
2.040078201368524
1.986314760508309
1.9345063538611929
1.8836754643206255
1.8318670576735088
1.7790811339198436
1.726295210166178
1.675464320625611
1.6285434995112416
1.585532746823069
1.547409579667644
1.521016617790811
1.504398826979472
1.4936461388074291
1.4916911045943304
1.4975562072336266
1.5102639296187683
1.5317693059628543
1.5562072336265884
1.5806451612903225
1.6041055718475072
1.624633431085044
1.6383186705767352
1.6471163245356797
1.6490713587487782
1.6451612903225807
1.635386119257087
1.6207233626588464
1.6011730205278591
1.5777126099706744
1.552297165200391
1.5268817204301075
1.504398826979472
1.4809384164222874
1.4545454545454546
1.43108504398827
1.4086021505376345
1.3812316715542523
1.356793743890518
1.3450635386119256
1.3607038123167154
1.4134897360703813
1.5112414467253177
1.6529814271749756
1.827956989247312
2.0195503421309877
2.2052785923753664
2.3685239491691106
2.486803519061584
2.5620723362658846
2.608993157380254
2.622678396871945
2.6080156402737047
2.5718475073313782
2.5190615835777126
2.455522971652004
2.388074291300098
2.3196480938416424
2.2531769305962857
2.189638318670577
2.1358748778103616
2.0869990224828934
2.0361681329423265
1.9843597262952104
1.9335288367546437
1.8836754643206255
1.833822091886608
1.7859237536656891
1.7380254154447703
1.689149560117302
1.643206256109482
1.6001955034213098
1.5591397849462365
1.5278592375366569
1.504398826979472
1.4848484848484849
1.4721407624633431
1.4672531769305963
1.4721407624633431
1.4848484848484849
1.5024437927663734
1.52297165200391
1.543499511241447
1.5610948191593352
1.5747800586510263
1.5835777126099706
1.5865102639296187
1.5826001955034212
1.573802541544477
1.5610948191593352
1.5454545454545454
1.5268817204301075
1.5063538611925709
1.4858260019550342
1.4643206256109482
1.439882697947214
1.412512218963832
1.3822091886608017
1.3558162267839686
1.3304007820136852
1.3010752688172045
1.2746823069403714
1.262952101661779
1.2776148582600195
1.3304007820136852
1.4281524926686218
1.5679374389051808
1.737047898338221
1.921798631476051
2.103616813294233
2.249266862170088
2.356793743890518
2.4408602150537635
2.4916911045943304
2.509286412512219
2.4975562072336266
2.464320625610948
2.4164222873900294
2.3597262952101663
2.2991202346041058
2.239491691104594
2.1837732160312804
2.1300097751710654
2.0821114369501466
2.040078201368524
1.9960899315738023
1.948191593352884
1.8993157380254155
1.8504398826979471
1.8025415444770283
1.7546432062561097
1.7038123167155426
1.653958944281525
1.607038123167155
1.564027370478983
1.5288367546432062
1.500488758553275
1.4750733137829912
1.456500488758553
1.4457478005865103
1.4418377321603129
1.4467253176930597
1.4594330400782014
1.47702834799609
1.498533724340176
1.521016617790811
1.542521994134897
1.5610948191593352
1.5913978494623655
1.6256109481915937
1.640273704789834
1.6441837732160314
1.640273704789834
1.6304985337243405
1.616813294232649
1.5992179863147604
1.5806451612903225
1.5610948191593352
1.541544477028348
1.521994134897361
1.504398826979472
1.4858260019550342
1.4613880742913
1.4349951124144673
1.414467253176931
1.4076246334310851
1.4252199413489737
1.478005865102639
1.5718475073313782
1.7038123167155426
1.865102639296188
2.0410557184750733
2.212121212121212
2.347996089931574
2.450635386119257
2.533724340175953
2.5865102639296187
2.6070381231671558
2.601173020527859
2.5777126099706744
2.541544477028348
2.498533724340176
2.453567937438905
2.406647116324536
2.356793743890518
2.310850439882698
2.2658846529814274
2.2160312805474094
2.164222873900293
2.112414467253177
2.060606060606061
2.0087976539589443
1.956989247311828
1.905180840664712
1.8543499511241448
1.8035190615835777
1.7556207233626588
1.7116324535679377
1.675464320625611
1.6451612903225807
1.6158357771260996
1.5933528836754642
1.5806451612903225
1.576735092864125
1.5826001955034212
1.5962854349951123
1.6138807429130009
1.6344086021505375
1.6559139784946235
1.6735092864125125
1.686217008797654
1.6950146627565983
1.6989247311827955
1.696969696969697
1.6901270772238517
1.6774193548387095
1.6608015640273706
1.6412512218963833
1.619745845552297
1.598240469208211
1.5777126099706744
1.5581622678396871
1.5386119257087
1.521994134897361
1.5053763440860215
1.4819159335288368
1.456500488758553
1.434017595307918
1.423264907135875
1.4349951124144673
1.479960899315738
1.564027370478983
1.6881720430107527
1.8455522971652003
2.0195503421309877
2.1730205278592374
2.304007820136853
2.4281524926686218
2.525904203323558
2.587487781036168
2.6129032258064515
2.608993157380254
2.582600195503421
2.539589442815249
2.4858260019550342
2.4271749755620724
2.367546432062561
2.30791788856305
2.2551319648093844
2.206256109481916
2.155425219941349
2.103616813294233
2.0527859237536656
2.0019550342130987
1.9530791788856303
1.9042033235581624
1.855327468230694
1.8064516129032255
1.7575757575757576
1.710654936461388
1.6715542521994136
1.6383186705767352
1.6050830889540566
1.5786901270772238
1.560117302052786
1.552297165200391
1.5542521994134897
1.563049853372434
1.5786901270772238
1.5992179863147604
1.6236559139784943
1.6490713587487782
1.6705767350928642
1.6871945259042034
1.6989247311827955
1.7057673509286413
1.70772238514174
1.7028347996089932
1.6930596285434996
1.6803519061583578
1.664711632453568
1.6471163245356797
1.6285434995112416
1.607038123167155
1.5865102639296187
1.56891495601173
1.5513196480938416
1.5268817204301075
1.4975562072336266
1.4682306940371457
1.4418377321603129
1.4252199413489737
1.43108504398827
1.4701857282502444
1.5493646138807429
1.667644183773216
1.818181818181818
1.964809384164223
2.1055718475073317
2.2561094819159337
2.391006842619746
2.4946236559139785
2.563049853372434
2.5972629521016617
2.60019550342131
2.578690127077224
2.539589442815249
2.487781036168133
2.4281524926686218
2.364613880742913
2.3069403714565007
2.2521994134897363
2.1955034213098727
2.139784946236559
2.086021505376344
2.034213098729228
1.9824046920821117
1.9296187683284456
1.8758553274682308
1.8201368523949168
1.7644183773216031
1.7116324535679377
1.6686217008797657
1.6314760508308896
1.5933528836754642
1.560117302052786
1.5327468230694037
1.5131964809384164
1.5024437927663734
1.5024437927663734
1.5112414467253177
1.5288367546432062
1.5513196480938416
1.5777126099706744
1.603128054740958
1.6256109481915937
1.6451612903225807
1.6627565982404693
1.6744868035190617
1.6803519061583578
1.6813294232649072
1.6764418377321604
1.664711632453568
1.6480938416422288
1.629521016617791
1.6109481915933528
1.5923753665689149
1.5786901270772238
1.565982404692082
1.5493646138807429
1.5268817204301075
1.499511241446725
1.4711632453567938
1.447702834799609
1.439882697947214
1.458455522971652
1.5131964809384164
1.608993157380254
1.7448680351906158
1.911045943304008
2.067448680351906
2.2111436950146626
2.3597262952101663
2.4887585532746823
2.5865102639296187
2.650048875855328
2.679374389051808
2.6803519061583576
2.6578690127077222
2.619745845552297
2.570869990224829
2.515151515151515
2.4613880742913
2.410557184750733
2.356793743890518
2.303030303030303
2.2502443792766376
2.198435972629521
2.145650048875855
2.0928641251221896
2.042033235581622
1.9902248289345064
1.9364613880742916
1.8826979472140764
1.828934506353861
1.7820136852394917
1.739980449657869
1.6959921798631477
1.6520039100684265
1.6109481915933528
1.576735092864125
1.5483870967741935
1.5288367546432062
1.517106549364614
1.5131964809384164
1.5180840664711632
1.5298142717497556
1.544477028347996
1.5591397849462365
1.5747800586510263
1.590420332355816
1.6041055718475072
1.6138807429130009
1.6187683284457477
1.6001955034213098
1.5679374389051808
1.543499511241447
1.52297165200391
1.5024437927663734
1.4848484848484849
1.4721407624633431
1.4594330400782014
1.4428152492668622
1.4222873900293256
1.3978494623655917
1.3695014662756595
1.3391984359726294
1.310850439882698
1.29227761485826
1.2932551319648091
1.3264907135874875
1.3949169110459434
1.479960899315738
1.5865102639296187
1.726295210166178
1.8807429130009776
2.032258064516129
2.167155425219941
2.275659824046921
2.3519061583577714
2.3978494623655915
2.41544477028348
2.4086021505376345
2.3822091886608017
2.340175953079179
2.294232649071359
2.2453567937438903
2.187683284457478
2.124144672531769
2.056695992179863
1.989247311827957
1.9227761485826005
1.858260019550342
1.7956989247311828
1.7341153470185728
1.6735092864125125
1.6148582600195502
1.5650048875855327
1.521016617790811
1.474095796676442
1.4271749755620724
1.3861192570869991
1.3528836754643203
1.3284457478005864
1.313782991202346
1.310850439882698
1.3176930596285434
1.3362658846529814
1.3636363636363635
1.3949169110459434
1.4252199413489737
1.4545454545454546
1.482893450635386
1.5083088954056696
1.5288367546432062
1.542521994134897
1.547409579667644
1.543499511241447
1.5317693059628543
1.5151515151515151
1.4965786901270772
1.47702834799609
1.4623655913978495
1.452590420332356
1.4418377321603129
1.4301075268817205
1.4164222873900294
1.3978494623655917
1.3724340175953078
1.3411534701857282
1.3079178885630498
1.284457478005865
1.281524926686217
1.310850439882698
1.364613880742913
1.444770283479961
1.5650048875855327
1.7126099706744868
1.873900293255132
2.032258064516129
2.172043010752688
2.2825024437927666
2.360703812316716
2.4056695992179864
2.4173998044965788
2.403714565004888
2.36950146627566
2.3284457478005867
2.280547409579668
2.222873900293255
2.161290322580645
2.0977517106549364
2.0332355816226784
1.9696969696969695
1.9090909090909087
1.8504398826979471
1.7927663734115349
1.737047898338221
1.683284457478006
1.6383186705767352
1.598240469208211
1.5542521994134897
1.5112414467253177
1.4711632453567938
1.435972629521017
1.4086021505376345
1.3900293255131966
1.3812316715542523
1.3841642228739004
1.3958944281524928
1.41544477028348
1.4389051808406648
1.4623655913978495
1.4848484848484849
1.5063538611925709
1.52297165200391
1.5347018572825024
1.5405669599217986
1.5405669599217986
1.5356793743890518
1.525904203323558
1.5141739980449658
1.500488758553275
1.4838709677419355
1.469208211143695
1.455522971652004
1.4389051808406648
1.4193548387096775
1.3978494623655917
1.3734115347018572
1.346041055718475
1.3206256109481915
1.3049853372434017
1.3098729227761483
1.346041055718475
1.4222873900293256
1.5405669599217986
1.6705767350928642
1.8132942326490715
1.9853372434017595
2.160312805474096
2.3196480938416424
2.4486803519061584
2.5386119257087
2.591397849462365
2.610948191593353
2.603128054740958
2.573802541544477
2.530791788856305
2.482893450635386
2.432062561094819
2.375366568914956
2.314760508308896
2.2531769305962857
2.1915933528836757
2.1300097751710654
2.070381231671554
2.0146627565982405
1.9589442815249267
1.9042033235581624
1.8523949169110456
1.8035190615835777
1.761485826001955
1.721407624633431
1.678396871945259
1.6373411534701858
1.5972629521016617
1.5610948191593352
1.5327468230694037
1.5141739980449658
1.5053763440860215
1.5034213098729228
1.5102639296187683
1.5249266862170088
1.542521994134897
1.5610948191593352
1.5826001955034212
1.6021505376344083
1.6177908113391983
1.629521016617791
1.635386119257087
1.6344086021505375
1.6265884652981428
1.6148582600195502
1.5992179863147604
1.5796676441837731
1.5581622678396871
1.5395894428152492
1.52297165200391
1.504398826979472
1.482893450635386
1.458455522971652
1.4301075268817205
1.4007820136852396
1.375366568914956
1.3616813294232648
1.3714565004887584
1.414467253176931
1.498533724340176
1.6011730205278591
1.726295210166178
1.8905180840664717
2.070381231671554
2.24633431085044
2.398826979472141
2.5180840664711632
2.5992179863147604
2.643206256109482
2.6529814271749754
2.635386119257087
2.5992179863147604
2.550342130987292
2.498533724340176
2.444770283479961
2.3841642228739004
2.320625610948192
2.257086999022483
2.196480938416422
2.1378299120234603
2.081133919843597
2.0254154447702835
1.9716520039100685
1.919843597262952
1.868035190615836
1.822091886608016
1.7790811339198436
1.732160312805474
1.6842619745845553
1.640273704789834
1.6001955034213098
1.565982404692082
1.5386119257087
1.5190615835777126
1.5073313782991202
1.5034213098729228
1.5073313782991202
1.520039100684262
1.5356793743890518
1.5532746823069403
1.573802541544477
1.5923753665689149
1.6080156402737047
1.6187683284457477
1.6226783968719452
1.6207233626588464
1.6148582600195502
1.6050830889540566
1.5923753665689149
1.5777126099706744
1.5650048875855327
1.5610948191593352
1.5571847507331378
1.544477028347996
1.5239491691104594
1.4975562072336266
1.4672531769305963
1.436950146627566
1.41544477028348
1.412512218963832
1.439882697947214
1.5073313782991202
1.6177908113391983
1.7390029325513197
1.873900293255132
2.038123167155425
2.210166177908113
2.3704789833822093
2.504398826979472
2.603128054740958
2.664711632453568
2.6930596285435
2.69208211143695
2.667644183773216
2.6265884652981426
2.578690127077224
2.527859237536657
2.469208211143695
2.409579667644184
2.350928641251222
2.2952101661779083
2.2404692082111435
2.185728250244379
2.1309872922776147
2.0762463343108504
2.0195503421309877
1.959921798631476
1.900293255131965
1.8484848484848484
1.8035190615835777
1.7565982404692082
1.7096774193548387
1.667644183773216
1.6304985337243405
1.6001955034213098
1.576735092864125
1.5610948191593352
1.5542521994134897
1.5562072336265884
1.565982404692082
1.5796676441837731
1.595307917888563
1.6148582600195502
1.6334310850439884
1.6471163245356797
1.656891495601173
1.66177908113392
1.66177908113392
1.6578690127077225
1.6520039100684265
1.6451612903225807
1.6363636363636365
1.6265884652981428
1.6148582600195502
1.598240469208211
1.5777126099706744
1.5571847507331378
1.5356793743890518
1.5112414467253177
1.4858260019550342
1.4604105571847508
1.4437927663734116
1.4457478005865103
1.47702834799609
1.5483870967741935
1.640273704789834
1.7556207233626588
1.911045943304008
2.089931573802541
2.270772238514174
2.4349951124144678
2.56891495601173
2.6637341153470184
2.720430107526881
2.740957966764418
2.732160312805474
2.701857282502444
2.66177908113392
2.6148582600195502
2.5591397849462365
2.498533724340176
2.4389051808406648
2.3812316715542523
2.3255131964809386
2.272727272727273
2.2218963831867056
2.172043010752688
2.12316715542522
2.074291300097752
2.024437927663734
1.9804496578690127
1.9403714565004888
1.8963831867057677
1.8504398826979471
1.8064516129032255
1.7644183773216031
1.726295210166178
1.6950146627565983
1.672531769305963
1.6598240469208212
1.656891495601173
1.66177908113392
1.672531769305963
1.6871945259042034
1.70772238514174
1.729227761485826
1.7487781036168133
1.7624633431085044
1.7702834799608993
1.7732160312805474
1.7712609970674489
1.7634408602150538
1.7497556207233629
1.7311827956989247
1.7096774193548387
1.6911045943304008
1.6744868035190617
1.656891495601173
1.6383186705767352
1.616813294232649
1.5933528836754642
1.565982404692082
1.5366568914956011
1.509286412512219
1.490713587487781
1.4936461388074291
1.5288367546432062
1.58455522971652
1.667644183773216
1.793743890518084
1.9530791788856303
2.1300097751710654
2.304007820136853
2.4604105571847508
2.5865102639296187
2.674486803519061
2.7233626588465296
2.73802541544477
2.7262952101661777
2.695014662756598
2.653958944281525
2.6080156402737047
2.5532746823069403
2.493646138807429
2.432062561094819
2.3714565004887587
2.310850439882698
2.2521994134897363
2.1955034213098727
2.139784946236559
2.086021505376344
2.034213098729228
1.989247311827957
1.949169110459433
1.906158357771261
1.86119257086999
1.8172043010752688
1.7761485826001957
1.7390029325513197
1.704789833822092
1.678396871945259
1.66177908113392
1.6529814271749756
1.6520039100684265
1.6588465298142718
1.6686217008797657
1.6813294232649072
1.696969696969697
1.7126099706744868
1.726295210166178
1.7380254154447703
1.7458455522971652
1.7487781036168133
1.7458455522971652
1.7380254154447703
1.7253176930596286
1.70772238514174
1.689149560117302
1.6715542521994136
1.651026392961877
1.629521016617791
1.607038123167155
1.5835777126099706
1.5571847507331378
1.5278592375366569
1.495601173020528
1.4652981427174976
1.4467253176930597
1.452590420332356
1.4926686217008798
1.555229716520039
1.6451612903225807
1.780058651026393
1.9442815249266865
2.121212121212121
2.29227761485826
2.439882697947214
2.5542521994134897
2.631476050830889
2.6715542521994133
2.678396871945259
2.658846529814272
2.624633431085044
2.5806451612903225
2.5268817204301075
2.466275659824047
2.403714565004888
2.3411534701857284
2.280547409579668
2.2218963831867056
2.1652003910068425
2.1114369501466275
2.058651026392962
2.007820136852395
1.9579667644183771
1.9159335288367547
1.8758553274682308
1.83088954056696
1.7839687194525904
1.7390029325513197
1.6959921798631477
1.6578690127077225
1.6265884652981428
1.6021505376344083
1.58455522971652
1.5757575757575757
1.5757575757575757
1.581622678396872
1.5913978494623655
1.607038123167155
1.6256109481915937
1.6422287390029326
1.656891495601173
1.667644183773216
1.6735092864125125
1.672531769305963
1.6656891495601174
1.6559139784946235
1.6412512218963833
1.6226783968719452
1.606060606060606
1.5894428152492668
1.5698924731182795
1.5493646138807429
1.5298142717497556
1.5083088954056696
1.4838709677419355
1.4349951124144673
1.3743890518084063
1.332355816226784
1.3118279569892473
1.3186705767350928
1.3470185728250244
1.4056695992179864
1.5073313782991202
1.6441837732160314
1.8025415444770283
1.967741935483871
2.1251221896383186
2.2580645161290325
2.357771260997068
2.420332355816227
2.449657869012708
2.450635386119257
2.4281524926686218
2.3949169110459434
2.35386119257087
2.303030303030303
2.2482893450635384
2.1925708699902247
2.139784946236559
2.0869990224828934
2.034213098729228
1.9824046920821117
1.9315738025415443
1.8826979472140764
1.8347996089931573
1.793743890518084
1.7556207233626588
1.7145650048875856
1.6705767350928642
1.6265884652981428
1.585532746823069
1.5464320625610948
1.509286412512219
1.478005865102639
1.4545454545454546
1.4428152492668622
1.4428152492668622
1.4506353861192571
1.4643206256109482
1.4858260019550342
1.512218963831867
1.5386119257087
1.5610948191593352
1.5777126099706744
1.587487781036168
1.5884652981427174
1.5835777126099706
1.573802541544477
1.5591397849462365
1.5405669599217986
1.52297165200391
1.5034213098729228
1.479960899315738
1.4545454545454546
1.4291300097751711
1.4027370478983383
1.375366568914956
1.346041055718475
1.3147605083088951
1.2805474095796676
1.2512218963831867
1.2355816226783969
1.238514173998045
1.267839687194526
1.332355816226784
1.4349951124144673
1.5708699902248289
1.7272727272727273
1.8875855327468232
2.037145650048876
2.161290322580645
2.2521994134897363
2.30791788856305
2.3313782991202348
2.3255131964809386
2.303030303030303
2.2688172043010755
2.2218963831867056
2.1681329423264906
2.1114369501466275
2.053763440860215
2.0
1.948191593352884
1.8973607038123168
1.8484848484848484
1.8005865102639296
1.75366568914956
1.7135874877810362
1.6764418377321604
1.6334310850439884
1.5894428152492668
1.544477028347996
1.500488758553275
1.458455522971652
1.4193548387096775
1.3851417399804498
1.359726295210166
1.3440860215053765
1.33822091886608
1.3401759530791788
1.3470185728250244
1.3577712609970674
1.3734115347018572
1.392961876832845
1.4134897360703813
1.4320625610948192
1.4467253176930597
1.456500488758553
1.4604105571847508
1.458455522971652
1.4506353861192571
1.436950146627566
1.423264907135875
1.4076246334310851
1.3851417399804498
1.359726295210166
1.3343108504398826
1.310850439882698
1.2873900293255132
1.2639296187683284
1.2424242424242424
1.219941348973607
1.1974584555229717
1.1808406647116323
1.1779081133919844
1.1915933528836755
1.2287390029325511
1.303030303030303
1.4134897360703813
1.555229716520039
1.7165200391006843
1.8807429130009776
2.0303030303030303
2.150537634408602
2.2346041055718477
2.281524926686217
2.294232649071359
2.2844574780058653
2.2580645161290325
2.2160312805474094
2.164222873900293
2.10850439882698
2.0527859237536656
1.9990224828934504
1.948191593352884
1.8993157380254155
1.8523949169110456
1.8074291300097751
1.7634408602150538
1.7194525904203324
1.683284457478006
1.6490713587487782
1.611925708699902
1.5747800586510263
1.5376344086021505
1.500488758553275
1.466275659824047
1.4349951124144673
1.4076246334310851
1.3861192570869991
1.3724340175953078
1.367546432062561
1.370478983382209
1.3792766373411536
1.392961876832845
1.4115347018572826
1.43108504398827
1.4486803519061584
1.4643206256109482
1.4760508308895406
1.4838709677419355
1.4858260019550342
1.4838709677419355
1.47702834799609
1.4652981427174976
1.455522971652004
1.444770283479961
1.4291300097751711
1.412512218963832
1.393939393939394
1.375366568914956
1.3577712609970674
1.3391984359726294
1.3176930596285434
1.2932551319648091
1.2697947214076246
1.2531769305962854
1.2482893450635386
1.262952101661779
1.3049853372434017
1.3822091886608017
1.495601173020528
1.6373411534701858
1.7947214076246334
1.951124144672532
2.088954056695992
2.198435972629521
2.2737047898338223
2.312805474095797
2.320625610948192
2.3069403714565007
2.2795698924731185
2.2385141739980448
2.188660801564027
2.1358748778103616
2.0821114369501466
2.0283479960899315
1.975562072336266
1.9257086999022484
1.878787878787879
1.8328445747800584
1.7878787878787878
1.747800586510264
1.7116324535679377
1.6735092864125125
1.6334310850439884
1.5933528836754642
1.5542521994134897
1.5151515151515151
1.478005865102639
1.4437927663734116
1.41544477028348
1.3949169110459434
1.383186705767351
1.3792766373411536
1.3822091886608017
1.392961876832845
1.409579667644184
1.4301075268817205
1.4516129032258065
1.4721407624633431
1.4887585532746823
1.501466275659824
1.5083088954056696
1.5102639296187683
1.5073313782991202
1.499511241446725
1.4916911045943304
1.4819159335288368
1.4672531769305963
1.4506353861192571
1.4320625610948192
1.4134897360703813
1.3949169110459434
1.3763440860215057
1.3577712609970674
1.3372434017595307
1.3157380254154447
1.2942326490713587
1.2805474095796676
1.278592375366569
1.324535679374389
1.4173998044965788
1.5317693059628543
1.6744868035190617
1.8435972629521016
2.024437927663734
2.198435972629521
2.350928641251222
2.469208211143695
2.549364613880743
2.591397849462365
2.6021505376344085
2.589442815249267
2.557184750733138
2.5112414467253177
2.4565004887585533
2.396871945259042
2.335288367546432
2.274682306940372
2.2130987292277613
2.1515151515151514
2.0928641251221896
2.037145650048876
1.9902248289345064
1.9472140762463344
1.8993157380254155
1.847507331378299
1.7947214076246334
1.7419354838709675
1.6901270772238517
1.6392961876832846
1.5923753665689149
1.5493646138807429
1.509286412512219
1.47702834799609
1.4535679374389052
1.4389051808406648
1.434017595307918
1.435972629521017
