ppg
1.747800586510264
1.721407624633431
1.6920821114369502
1.66177908113392
1.6304985337243405
1.5992179863147604
1.5679374389051808
1.5356793743890518
1.5034213098729228
1.4721407624633431
1.4457478005865103
1.4213098729227762
1.393939393939394
1.3665689149560116
1.3401759530791788
1.3147605083088951
1.2913000977517106
1.2697947214076246
1.249266862170088
1.2297165200391007
1.2111436950146628
1.1945259042033236
1.1827956989247312
1.173998044965787
1.1622678396871946
1.1495601173020529
1.1368523949169111
1.1251221896383188
1.115347018572825
1.10752688172043
1.1006842619745845
1.0948191593352885
1.0899315738025417
1.0850439882697946
1.0811339198435972
1.0791788856304985
1.0791788856304985
1.0772238514173995
1.075268817204301
1.0733137829912025
1.072336265884653
1.0713587487781036
1.0713587487781036
1.0713587487781036
1.0713587487781036
1.0713587487781036
1.0713587487781036
1.0733137829912025
1.0762463343108504
1.0762463343108504
1.075268817204301
1.075268817204301
1.0801564027370478
1.0957966764418376
1.1270772238514175
1.1788856304985338
1.2570869990224829
1.3616813294232648
1.4916911045943304
1.6412512218963833
1.7820136852394917
1.9188660801564028
2.0733137829912023
2.239491691104594
2.4027370478983383
2.5464320625610948
2.668621700879765
2.7702834799608995
2.8533724340175954
2.917888563049853
2.967741935483871
3.004887585532747
3.024437927663734
3.0332355816226784
3.0391006842619745
3.040078201368524
3.0332355816226784
3.018572825024438
2.995112414467253
2.960899315738025
2.916911045943304
2.863147605083089
2.7996089931573804
2.7282502443792764
2.6510263929618767
2.5777126099706744
2.50733137829912
2.432062561094819
2.355816226783969
2.283479960899316
2.2170087976539588
2.157380254154448
2.104594330400782
2.059628543499511
2.0195503421309877
1.9833822091886608
1.951124144672532
1.9237536656891496
1.8983382209188664
1.870967741935484
1.842619745845552
1.8142717497556209
1.7839687194525904
1.7526881720430108
1.721407624633431
1.689149560117302
1.6549364613880744
1.619745845552297
1.58455522971652
1.5483870967741935
1.5180840664711632
1.4916911045943304
1.4613880742913
1.43108504398827
1.4007820136852396
1.3714565004887584
1.343108504398827
1.3157380254154447
1.289345063538612
1.2649071358748778
1.241446725317693
1.219941348973607
1.2043010752688172
1.1906158357771262
1.1749755620723363
1.1583577712609971
1.1436950146627567
1.1319648093841643
1.121212121212121
1.1114369501466277
1.1016617790811338
1.0928641251221896
1.0840664711632453
1.0762463343108504
1.072336265884653
1.0703812316715542
1.0664711632453567
1.0625610948191593
1.0576735092864125
1.053763440860215
1.0498533724340176
1.0449657869012707
1.0410557184750733
1.0371456500488758
1.0332355816226784
1.029325513196481
1.0263929618768328
1.0263929618768328
1.0263929618768328
1.0263929618768328
1.0263929618768328
1.0263929618768328
1.0127077223851415
1.0146627565982405
1.0254154447702837
1.0498533724340176
1.0928641251221896
1.160312805474096
1.2531769305962854
1.3528836754643203
1.4652981427174976
1.6080156402737047
1.7683284457478006
1.9374389051808407
2.104594330400782
2.26197458455523
2.4027370478983383
2.525904203323558
2.6295210166177907
2.713587487781036
2.780058651026393
2.8299120234604107
2.859237536656892
2.875855327468231
2.889540566959922
2.898338220918866
2.900293255131965
2.8944281524926687
2.8807429130009776
2.8582600195503423
2.8260019550342133
2.7839687194525906
2.7311827956989245
2.6695992179863146
2.6080156402737047
2.544477028347996
2.4731182795698925
2.3978494623655915
2.321603128054741
2.247311827956989
2.1788856304985336
2.1163245356793743
2.060606060606061
2.0117302052785924
1.9687194525904204
1.932551319648094
1.900293255131965
1.873900293255132
1.8514173998044965
1.8269794721407624
1.801564027370479
1.775171065493646
1.747800586510264
1.718475073313783
1.6871945259042034
1.6549364613880744
1.6207233626588464
1.5865102639296187
1.5513196480938416
1.521994134897361
1.495601173020528
1.4652981427174976
1.434017595307918
1.4027370478983383
1.3724340175953078
1.343108504398827
1.313782991202346
1.2854349951124144
1.2580645161290325
1.2326490713587488
1.209188660801564
1.187683284457478
1.1730205278592376
1.160312805474096
1.1466275659824048
1.1329423264907137
1.1202346041055715
1.10752688172043
1.0948191593352885
1.0840664711632453
1.075268817204301
1.067448680351906
1.0596285434995112
1.0527859237536656
1.0498533724340176
1.0498533724340176
1.0469208211143697
1.043010752688172
1.0391006842619743
1.0342130987292275
1.0283479960899315
1.0234604105571847
1.0195503421309873
1.0166177908113392
1.0146627565982405
1.0127077223851415
1.010752688172043
1.0117302052785924
1.013685239491691
1.013685239491691
1.0127077223851415
1.0127077223851415
1.0156402737047898
1.0254154447702837
1.0469208211143697
1.086021505376344
1.147605083088954
1.2355816226783969
1.3499511241446724
1.4682306940371457
1.5933528836754642
1.7468230694037146
1.9149560117302051
2.085043988269794
2.249266862170088
2.39980449657869
2.5317693059628543
2.6451612903225805
2.73802541544477
2.8132942326490715
2.8719452590420333
2.916911045943304
2.943304007820137
2.956989247311828
2.9687194525904204
2.9745845552297165
2.973607038123167
2.963831867057673
2.9442815249266863
2.9149560117302054
2.87683284457478
2.827956989247312
2.76930596285435
2.702834799608993
2.6373411534701856
2.5698924731182795
2.495601173020528
2.419354838709677
2.3440860215053765
2.272727272727273
2.206256109481916
2.146627565982405
2.093841642228739
2.046920821114369
2.005865102639296
1.9696969696969695
1.9374389051808407
1.9100684261974583
1.8866080156402736
1.8621700879765395
1.8377321603128052
1.812316715542522
1.7859237536656891
1.758553274682307
1.7282502443792769
1.696969696969697
1.6637341153470186
1.629521016617791
1.5943304007820136
1.5650048875855327
1.5386119257087
1.509286412512219
1.478983382209189
1.4486803519061584
1.4193548387096775
1.3900293255131966
1.3616813294232648
1.335288367546432
1.310850439882698
1.284457478005865
1.2580645161290325
1.2346041055718475
1.2179863147605083
1.2043010752688172
1.1886608015640274
1.173998044965787
1.1593352883675463
1.1466275659824048
1.1348973607038124
1.1251221896383188
1.115347018572825
1.10752688172043
1.1006842619745845
1.0948191593352885
1.0928641251221896
1.0928641251221896
1.0909090909090908
1.0879765395894427
1.0840664711632453
1.0791788856304985
1.0742913000977516
1.0694037145650048
1.0654936461388074
1.0625610948191593
1.0596285434995112
1.0576735092864125
1.0576735092864125
1.0596285434995112
1.0586510263929618
1.0557184750733135
1.0527859237536656
1.0498533724340176
1.0498533724340176
1.056695992179863
1.0772238514173995
1.1163245356793745
1.1788856304985338
1.267839687194526
1.383186705767351
1.501466275659824
1.6265884652981428
1.7781036168132942
1.943304007820137
2.1094819159335287
2.267839687194526
2.412512218963832
2.539589442815249
2.6471163245356792
2.735092864125122
2.8054740957966766
2.859237536656892
2.89247311827957
2.9120234604105573
2.929618768328446
2.941348973607038
2.946236559139785
2.943304007820137
2.9335288367546437
2.913978494623656
2.8856304985337244
2.84652981427175
2.798631476050831
2.740957966764418
2.674486803519061
2.608993157380254
2.5425219941348973
2.4682306940371457
2.391006842619746
2.314760508308896
2.242424242424242
2.174975562072336
2.113391984359726
2.058651026392962
2.0117302052785924
1.9696969696969695
1.9335288367546437
1.905180840664712
1.8797653958944285
1.8543499511241448
1.827956989247312
1.7996089931573802
1.7712609970674489
1.7409579667644184
1.710654936461388
1.6793743890518085
1.6471163245356797
1.6138807429130009
1.5796676441837731
1.5454545454545454
1.5161290322580645
1.4897360703812317
1.4594330400782014
1.4281524926686218
1.3958944281524928
1.3655913978494625
1.3362658846529814
1.3079178885630498
1.281524926686217
1.2561094819159335
1.2326490713587488
1.2101661779081134
1.1935483870967742
1.1808406647116323
1.1652003910068427
1.1485826001955035
1.1319648093841643
1.1163245356793745
1.1016617790811338
1.0879765395894427
1.0762463343108504
1.0664711632453567
1.0586510263929618
1.0527859237536656
1.0478983382209188
1.0469208211143697
1.0469208211143697
1.0449657869012707
1.0410557184750733
1.0361681329423265
1.032258064516129
1.0273704789833822
1.0224828934506354
1.0175953079178883
1.013685239491691
1.010752688172043
1.0087976539589445
1.0087976539589445
1.010752688172043
1.010752688172043
1.0087976539589445
1.0058651026392962
1.0039100684261977
1.0039100684261977
1.0087976539589445
1.0224828934506354
1.050830889540567
1.0987292277614855
1.1700879765395895
1.2668621700879763
1.3695014662756595
1.4809384164222874
1.6207233626588464
1.7781036168132942
1.9413489736070384
2.101661779081134
2.251221896383187
2.386119257086999
2.501466275659824
2.5972629521016617
2.6725317693059627
2.7311827956989245
2.768328445747801
2.791788856304985
2.8103616813294234
2.823069403714565
2.8289345063538613
2.827956989247312
2.8181818181818183
2.7996089931573804
2.7722385141739982
2.735092864125122
2.6881720430107525
2.632453567937439
2.56891495601173
2.506353861192571
2.442815249266862
2.3714565004887587
2.297165200391007
2.2248289345063537
2.156402737047898
2.093841642228739
2.038123167155425
1.989247311827957
1.948191593352884
1.9130009775171064
1.8826979472140764
1.857282502443793
1.8347996089931573
1.8113391984359728
1.7878787878787878
1.7644183773216031
1.739980449657869
1.7145650048875856
1.6871945259042034
1.6588465298142718
1.629521016617791
1.598240469208211
1.5669599217986314
1.5347018572825024
1.5073313782991202
1.482893450635386
1.455522971652004
1.4281524926686218
1.3998044965786902
1.3714565004887584
1.3440860215053765
1.3176930596285434
1.29227761485826
1.2688172043010753
1.24633431085044
1.2258064516129032
1.2111436950146628
1.1994134897360704
1.1867057673509287
1.1730205278592376
1.1593352883675463
1.1466275659824048
1.1348973607038124
1.1251221896383188
1.115347018572825
1.10752688172043
1.1006842619745845
1.0948191593352885
1.088954056695992
1.086021505376344
1.0850439882697946
1.083088954056696
1.0801564027370478
1.0762463343108504
1.072336265884653
1.0694037145650048
1.067448680351906
1.0664711632453567
1.0654936461388074
1.0654936461388074
1.0654936461388074
1.067448680351906
1.0703812316715542
1.0694037145650048
1.0664711632453567
1.064516129032258
1.064516129032258
1.0664711632453567
1.0772238514173995
1.1016617790811338
1.1456500488758554
1.2140762463343109
1.3079178885630498
1.4281524926686218
1.5483870967741935
1.6744868035190617
1.826001955034213
1.989247311827957
2.15347018572825
2.3088954056695994
2.4516129032258065
2.5777126099706744
2.6852394916911044
2.773216031280548
2.844574780058651
2.8993157380254155
2.9335288367546437
2.9530791788856305
2.9696969696969697
2.981427174975562
2.989247311827957
2.9902248289345064
2.981427174975562
2.961876832844575
2.9335288367546437
2.8944281524926687
2.84652981427175
2.788856304985337
2.7282502443792764
2.664711632453568
2.592375366568915
2.5141739980449658
2.4349951124144678
2.357771260997068
2.283479960899316
2.21505376344086
2.15347018572825
2.0987292277614857
2.050830889540567
2.0087976539589443
1.9716520039100685
1.9413489736070384
1.9149560117302051
1.8885630498533723
1.8602150537634408
1.8318670576735088
1.8035190615835777
1.7741935483870968
1.7438905180840665
1.7135874877810362
1.6813294232649072
1.6480938416422288
1.6138807429130009
1.58455522971652
1.5581622678396871
1.5278592375366569
1.4965786901270772
1.4643206256109482
1.4330400782013686
1.401759530791789
1.3724340175953078
1.3450635386119256
1.3176930596285434
1.2913000977517106
1.2668621700879763
1.2434017595307918
1.2267839687194526
1.2130987292277615
1.1974584555229717
1.181818181818182
1.1671554252199414
1.1515151515151516
1.1368523949169111
1.1241446725317692
1.1124144672531768
1.1016617790811338
1.0918866080156402
1.0821114369501466
1.0762463343108504
1.0733137829912025
1.0694037145650048
1.0654936461388074
1.06158357771261
1.0576735092864125
1.053763440860215
1.050830889540567
1.0469208211143697
1.043010752688172
1.0391006842619743
1.035190615835777
1.0312805474095796
1.0303030303030305
1.0312805474095796
1.0303030303030305
1.0273704789833822
1.0234604105571847
1.0195503421309873
1.018572825024438
1.0234604105571847
1.0381231671554252
1.0684261974584557
1.1202346041055715
1.1974584555229717
1.284457478005865
1.3861192570869991
1.5180840664711632
1.672531769305963
1.8387096774193548
2.007820136852395
2.1710654936461387
2.321603128054741
2.455522971652004
2.570869990224829
2.6666666666666665
2.7438905180840663
2.8044965786901277
2.843597262952102
2.8670576735092865
2.886608015640274
2.900293255131965
2.9071358748778104
2.906158357771261
2.8993157380254155
2.8836754643206257
2.859237536656892
2.825024437927664
2.7810361681329425
2.7282502443792764
2.6715542521994133
2.611925708699902
2.5434995112414467
2.469208211143695
2.3929618768328447
2.317693059628544
2.244379276637341
2.175953079178885
2.113391984359726
2.058651026392962
2.010752688172043
1.9687194525904204
1.9315738025415443
1.9012707722385145
1.873900293255132
1.8465298142717497
1.818181818181818
1.790811339198436
1.7624633431085044
1.7331378299120237
1.7038123167155426
1.6735092864125125
1.6412512218963833
1.608993157380254
1.5757575757575757
1.5454545454545454
1.517106549364614
1.4858260019550342
1.4535679374389052
1.4203323558162269
1.388074291300098
1.356793743890518
1.3264907135874875
1.2981427174975562
1.270772238514174
1.2453567937438903
1.2209188660801564
1.198435972629521
1.1827956989247312
1.1700879765395895
1.155425219941349
1.1397849462365592
1.1251221896383188
1.1114369501466277
1.0987292277614855
1.0879765395894427
1.078201368523949
1.0694037145650048
1.0625610948191593
1.056695992179863
1.0547409579667644
1.053763440860215
1.0498533724340176
1.0449657869012707
1.0410557184750733
1.0371456500488758
1.0332355816226784
1.029325513196481
1.0254154447702837
1.0205278592375366
1.0156402737047898
1.010752688172043
1.0068426197458455
1.0058651026392962
1.0068426197458455
1.0058651026392962
1.002932551319648
0.9990224828934506
0.9951124144672532
0.9921798631476052
0.9931573802541545
1.0019550342130987
1.024437927663734
1.064516129032258
1.1290322580645162
1.203323558162268
1.2932551319648091
1.414467253176931
1.5581622678396871
1.7174975562072337
1.8836754643206255
2.048875855327468
2.204301075268817
2.345063538611926
2.4682306940371457
2.5718475073313782
2.656891495601173
2.724340175953079
2.768328445747801
2.795698924731183
2.819159335288368
2.835777126099707
2.844574780058651
2.8455522971652005
2.838709677419355
2.823069403714565
2.7976539589442817
2.763440860215054
2.720430107526881
2.668621700879765
2.613880742913001
2.555229716520039
2.487781036168133
2.41544477028348
2.3411534701857284
2.267839687194526
2.1974584555229715
2.131964809384164
2.0733137829912023
2.022482893450636
1.978494623655914
1.9403714565004888
1.9100684261974583
1.884652981427175
1.8602150537634408
1.836754643206256
1.8132942326490715
1.790811339198436
1.7663734115347018
1.7409579667644184
1.7145650048875856
1.686217008797654
1.6578690127077225
1.6285434995112416
1.5992179863147604
1.5728250244379276
1.5483870967741935
1.520039100684262
1.4887585532746823
1.456500488758553
1.4252199413489737
1.3949169110459434
1.3655913978494625
1.3372434017595307
1.3118279569892473
1.2883675464320623
1.2658846529814272
1.2482893450635386
1.2346041055718475
1.219941348973607
1.2043010752688172
1.1896383186705768
1.173998044965787
1.1593352883675463
1.144672531769306
1.130987292277615
1.1192570869990224
1.1094819159335287
1.104594330400782
1.1026392961876832
1.1026392961876832
1.104594330400782
1.1036168132942326
1.1006842619745845
1.096774193548387
1.0928641251221896
1.0879765395894427
1.083088954056696
1.078201368523949
1.0742913000977516
1.0703812316715542
1.0684261974584557
1.0694037145650048
1.0713587487781036
1.072336265884653
1.072336265884653
1.0713587487781036
1.0684261974584557
1.0654936461388074
1.0635386119257086
1.0664711632453567
1.0791788856304985
1.10752688172043
1.155425219941349
1.2267839687194526
1.3088954056695992
1.4056695992179864
1.533724340175953
1.6852394916911049
1.8514173998044965
2.022482893450636
2.188660801564027
2.3440860215053765
2.482893450635386
2.603128054740958
2.7038123167155423
2.7869012707722387
2.843597262952102
2.8826979472140764
2.918866080156403
2.948191593352884
2.9696969696969697
2.98435972629521
2.991202346041056
2.989247311827957
2.978494623655914
2.9579667644183774
2.927663734115347
2.887585532746823
2.8377321603128056
2.782991202346041
2.724340175953079
2.6559139784946235
2.5806451612903225
2.501466275659824
2.421309872922776
2.3440860215053765
2.270772238514174
2.203323558162268
2.142717497556207
2.088954056695992
2.042033235581622
2.004887585532747
1.9736070381231672
1.943304007820137
1.913978494623656
1.8856304985337244
1.857282502443793
1.8299120234604105
1.801564027370479
1.772238514173998
1.7409579667644184
1.7086999022482894
1.675464320625611
1.6412512218963833
1.6109481915933528
1.5835777126099706
1.5532746823069403
1.521016617790811
1.4887585532746823
1.456500488758553
1.4242424242424243
1.393939393939394
1.3655913978494625
1.3372434017595307
1.310850439882698
1.284457478005865
1.2649071358748778
1.249266862170088
1.2316715542521994
1.2130987292277615
1.1945259042033236
1.1759530791788857
1.1583577712609971
1.142717497556207
1.1290322580645162
1.1163245356793745
1.104594330400782
1.0948191593352885
1.086021505376344
1.0821114369501466
1.0811339198435972
1.0772238514173995
1.0733137829912025
1.0684261974584557
1.064516129032258
1.0596285434995112
1.0547409579667644
1.050830889540567
1.04594330400782
1.0410557184750733
1.0361681329423265
1.035190615835777
1.0361681329423265
1.035190615835777
1.0332355816226784
1.029325513196481
1.024437927663734
1.0205278592375366
1.0175953079178883
1.0166177908113392
1.0205278592375366
1.035190615835777
1.0654936461388074
1.1163245356793745
1.1779081133919844
1.2561094819159335
1.364613880742913
1.498533724340176
1.6520039100684265
1.8162267839687196
1.9833822091886608
2.145650048875855
2.2961876832844577
2.43108504398827
2.547409579667644
2.644183773216031
2.7116324535679373
2.758553274682307
2.80058651026393
2.833822091886608
2.8582600195503423
2.873900293255132
2.8826979472140764
2.8836754643206257
2.87683284457478
2.8611925708699903
2.8377321603128056
2.803519061583578
2.758553274682307
2.708699902248289
2.653958944281525
2.589442815249267
2.5180840664711632
2.443792766373412
2.3685239491691106
2.2952101661779083
2.225806451612903
2.161290322580645
2.102639296187683
2.0498533724340176
2.003910068426197
1.9657869012707725
1.9345063538611929
1.9042033235581624
1.87683284457478
1.8504398826979471
1.825024437927664
1.7996089931573802
1.7741935483870968
1.7468230694037146
1.7194525904203324
1.689149560117302
1.6578690127077225
1.6256109481915937
1.5962854349951123
1.56891495601173
1.5366568914956011
1.5034213098729228
1.4701857282502444
1.436950146627566
1.4037145650048877
1.3724340175953078
1.3440860215053765
1.316715542521994
1.2913000977517106
1.2688172043010753
1.252199413489736
1.238514173998045
1.2218963831867058
1.2043010752688172
1.187683284457478
1.1720430107526882
1.1573802541544478
1.1436950146627567
1.1329423264907137
1.1231671554252198
1.1133919843597262
1.1026392961876832
1.096774193548387
1.0928641251221896
1.086021505376344
1.0791788856304985
1.0742913000977516
1.0703812316715542
1.067448680351906
1.0654936461388074
1.0635386119257086
1.0606060606060606
1.056695992179863
1.053763440860215
1.050830889540567
1.050830889540567
1.0527859237536656
1.053763440860215
1.053763440860215
1.0527859237536656
1.050830889540567
1.0478983382209188
1.04594330400782
1.0469208211143697
1.0547409579667644
1.0742913000977516
1.1094819159335287
1.1564027370478984
1.219941348973607
1.3128054740957966
1.4320625610948192
1.5747800586510263
1.7331378299120237
1.9012707722385145
2.070381231671554
2.232649071358749
2.3822091886608017
2.5141739980449658
2.627565982404692
2.721407624633431
2.7869012707722387
2.831867057673509
2.8729227761485827
2.906158357771261
2.930596285434995
2.9472140762463344
2.9550342130987293
2.9550342130987293
2.9472140762463344
2.9315738025415445
2.906158357771261
2.8719452590420333
2.832844574780059
2.7859237536656893
2.729227761485826
2.6637341153470184
2.593352883675464
2.517106549364614
2.4389051808406648
2.361681329423265
2.2873900293255134
2.218963831867057
2.156402737047898
2.1006842619745845
2.0527859237536656
2.013685239491691
1.981427174975562
1.9501466275659824
1.920821114369501
1.8914956011730208
1.8621700879765395
1.8328445747800584
1.8035190615835777
1.7741935483870968
1.7438905180840665
1.7145650048875856
1.6842619745845553
1.6578690127077225
1.632453567937439
1.603128054740958
1.5708699902248289
1.5376344086021505
1.5024437927663734
1.4682306940371457
1.435972629521017
1.4056695992179864
1.3763440860215057
1.3479960899315735
1.321603128054741
1.2971652003910068
1.278592375366569
1.262952101661779
1.2443792766373412
1.2258064516129032
1.2072336265884651
1.1896383186705768
1.1730205278592376
1.1573802541544478
1.142717497556207
1.1290322580645162
1.115347018572825
1.1036168132942326
1.096774193548387
1.0928641251221896
1.0879765395894427
1.0821114369501466
1.0762463343108504
1.0694037145650048
1.0635386119257086
1.0586510263929618
1.0547409579667644
1.0498533724340176
1.04594330400782
1.0410557184750733
1.0371456500488758
1.0361681329423265
1.035190615835777
1.0332355816226784
1.0283479960899315
1.0234604105571847
1.018572825024438
1.0146627565982405
1.013685239491691
1.018572825024438
1.035190615835777
1.0684261974584557
1.1124144672531768
1.1730205278592376
1.2639296187683284
1.3812316715542523
1.521016617790811
1.678396871945259
1.8455522971652003
2.0146627565982405
2.176930596285435
2.326490713587488
2.458455522971652
2.5718475073313782
2.665689149560117
2.7311827956989245
2.7781036168132944
2.820136852394917
2.855327468230694
2.881720430107527
2.900293255131965
2.911045943304008
2.913000977517106
2.90811339198436
2.8944281524926687
2.870967741935484
2.8377321603128056
2.7976539589442817
2.750733137829912
2.6940371456500487
2.6295210166177907
2.558162267839687
2.482893450635386
2.406647116324536
2.2932551319648096
2.2218963831867056
2.155425219941349
2.0391006842619745
1.9931573802541545
1.9550342130987293
1.889540566959922
1.8592375366568916
1.8299120234604105
1.7869012707722385
1.758553274682307
1.729227761485826
1.6989247311827955
1.667644183773216
1.6363636363636365
1.608993157380254
1.5826001955034212
1.552297165200391
1.520039100684262
1.4868035190615836
1.452590420332356
1.4193548387096775
1.3870967741935485
1.3548387096774193
1.3255131964809383
1.2981427174975562
1.2717497556207231
1.24633431085044
1.227761485826002
1.2130987292277615
1.195503421309873
1.1779081133919844
1.160312805474096
1.142717497556207
1.1270772238514175
1.1124144672531768
1.0987292277614855
1.086021505376344
1.0742913000977516
1.0654936461388074
1.0606060606060606
1.0586510263929618
1.053763440860215
1.0478983382209188
1.0420332355816226
1.0361681329423265
1.0303030303030305
1.0254154447702837
1.0205278592375366
1.0156402737047898
1.010752688172043
1.0068426197458455
1.002932551319648
1.0019550342130987
1.002932551319648
1.0
0.9960899315738024
0.9912023460410556
0.9863147605083088
0.9824046920821116
0.9804496578690128
0.9833822091886608
