ppg
1.6256109481915937
1.6041055718475072
1.5884652981427174
1.5698924731182795
1.5454545454545454
1.52297165200391
1.5063538611925709
1.4868035190615836
1.469208211143695
1.4545454545454546
1.4457478005865103
1.4418377321603129
1.4379276637341154
1.4320625610948192
1.426197458455523
1.4213098729227762
1.4115347018572826
1.396871945259042
1.3822091886608017
1.3714565004887584
1.364613880742913
1.3577712609970674
1.348973607038123
1.3372434017595307
1.2991202346041055
1.2453567937438903
1.209188660801564
1.1837732160312806
1.163245356793744
1.1456500488758554
1.130987292277615
1.1202346041055715
1.1163245356793745
1.1202346041055715
1.1300097751710656
1.1495601173020529
1.18475073313783
1.2375366568914956
1.3118279569892473
1.4086021505376345
1.5249266862170088
1.6529814271749756
1.7888563049853372
1.9266862170087975
2.0635386119257086
2.176930596285435
2.271749755620724
2.3685239491691106
2.458455522971652
2.536656891495601
2.6021505376344085
2.6578690127077222
2.702834799608993
2.7370478983382207
2.7653958944281527
2.790811339198436
2.814271749755621
2.827956989247312
2.832844574780059
2.8396871945259043
2.844574780058651
2.8455522971652005
2.8396871945259043
2.827956989247312
2.8084066471163247
2.7839687194525906
2.752688172043011
2.710654936461388
2.659824046920821
2.6041055718475072
2.549364613880743
2.493646138807429
2.4359726295210167
2.378299120234604
2.32355816226784
2.272727272727273
2.2248289345063537
2.1818181818181817
2.145650048875855
2.112414467253177
2.0821114369501466
2.0557184750733137
2.03128054740958
2.005865102639296
1.978494623655914
1.9472140762463344
1.9130009775171064
1.87683284457478
1.8416422287390029
1.8093841642228736
1.7781036168132942
1.7468230694037146
1.7165200391006843
1.686217008797654
1.6559139784946235
1.629521016617791
1.607038123167155
1.58455522971652
1.560117302052786
1.5347018572825024
1.5112414467253177
1.487781036168133
1.4643206256109482
1.4418377321603129
1.4193548387096775
1.3988269794721409
1.3822091886608017
1.370478983382209
1.3587487781036167
1.3450635386119256
1.3313782991202343
1.316715542521994
1.3020527859237536
1.2873900293255132
1.2717497556207231
1.2570869990224829
1.241446725317693
1.2267839687194526
1.2111436950146628
1.2003910068426198
1.1906158357771262
1.1779081133919844
1.164222873900293
1.1505376344086022
1.1378299120234605
1.1270772238514175
1.1221896383186705
1.1192570869990224
1.1143695014662756
1.1085043988269794
1.1016617790811338
1.093841642228739
1.0899315738025417
1.0879765395894427
1.0869990224828934
1.0948191593352885
1.1114369501466277
1.1407624633431086
1.1896383186705768
1.2609970674486803
1.3548387096774193
1.4701857282502444
1.6011730205278591
1.7438905180840665
1.871945259042033
1.9872922776148585
2.110459433040078
2.2346041055718477
2.35386119257087
2.462365591397849
2.560117302052786
2.64613880742913
2.7233626588465296
2.795698924731183
2.86217008797654
2.919843597262952
2.9716520039100685
3.0087976539589443
3.035190615835777
3.0635386119257086
3.0928641251221896
3.1221896383186705
3.1524926686217007
3.1808406647116323
3.2023460410557183
3.21505376344086
3.219941348973607
3.2160312805474094
3.2023460410557183
3.176930596285435
3.139784946236559
3.0928641251221896
3.0391006842619745
2.9804496578690127
2.916911045943304
2.8533724340175954
2.790811339198436
2.7282502443792764
2.662756598240469
2.5972629521016617
2.536656891495601
2.479960899315738
2.429130009775171
2.3841642228739004
2.343108504398827
2.3059628543499517
2.271749755620724
2.2375366568914954
2.201368523949169
2.163245356793744
2.121212121212121
2.0791788856304985
2.0391006842619745
2.0009775171065494
1.9667644183773216
1.9345063538611929
1.8973607038123168
1.8602150537634408
1.8240469208211143
1.7869012707722385
1.7497556207233629
1.7126099706744868
1.6735092864125125
1.6363636363636365
1.603128054740958
1.5718475073313782
1.5405669599217986
1.5141739980449658
1.490713587487781
1.4643206256109482
1.4379276637341154
1.4134897360703813
1.3900293255131966
1.3685239491691104
1.3499511241446724
1.3294232649071358
1.3079178885630498
1.2903225806451613
1.273704789833822
1.2619745845552297
1.252199413489736
1.2394916911045943
1.2258064516129032
1.2111436950146628
1.1964809384164223
1.1808406647116323
1.166177908113392
1.1515151515151516
1.1378299120234605
1.1270772238514175
1.118279569892473
1.110459433040078
1.1065493646138806
1.104594330400782
1.099706744868035
1.0928641251221896
1.0899315738025417
1.0957966764418376
1.1143695014662756
1.1456500488758554
1.195503421309873
1.2658846529814272
1.3558162267839686
1.4623655913978495
1.5650048875855327
1.6656891495601174
1.7839687194525904
1.911045943304008
2.037145650048876
2.158357771260997
2.271749755620724
2.3734115347018574
2.464320625610948
2.5434995112414467
2.611925708699902
2.670576735092864
2.7223851417399803
2.7595307917888565
2.787878787878788
2.8211143695014664
2.8563049853372435
2.89247311827957
2.9257086999022484
2.95405669599218
2.9775171065493646
2.9931573802541545
2.99902248289345
2.9980449657869013
2.994134897360704
2.9824046920821115
2.960899315738025
2.9335288367546437
2.897360703812317
2.8533724340175954
2.8025415444770285
2.744868035190616
2.6803519061583576
2.611925708699902
2.5434995112414467
2.4780058651026398
2.3734115347018574
2.254154447702835
2.176930596285435
2.120234604105572
2.071358748778104
2.027370478983382
1.989247311827957
1.9560117302052784
1.9257086999022484
1.8963831867057677
1.869012707722385
1.8416422287390029
1.8103616813294232
1.7771260997067448
1.7458455522971652
1.718475073313783
1.689149560117302
1.6549364613880744
1.6158357771260996
1.5757575757575757
1.5347018572825024
1.4946236559139785
1.4594330400782014
1.4271749755620724
1.3988269794721409
1.3743890518084063
1.3509286412512218
1.3304007820136852
1.3098729227761483
1.2854349951124144
1.262952101661779
1.2404692082111437
1.2189638318670577
1.2013685239491692
1.1857282502443791
1.1710654936461389
1.152492668621701
1.130987292277615
1.1094819159335287
1.0918866080156402
1.0762463343108504
1.0596285434995112
1.04594330400782
1.035190615835777
1.0263929618768328
1.018572825024438
1.0117302052785924
1.0039100684261977
0.997067448680352
0.9863147605083088
0.9736070381231672
0.967741935483871
0.9648093841642228
0.959921798631476
0.9521016617790812
0.9413489736070382
0.9305962854349952
0.9237536656891496
0.9217986314760508
0.927663734115347
0.946236559139785
0.978494623655914
1.0263929618768328
1.0948191593352885
1.1671554252199414
1.2473118279569892
1.348973607038123
1.4652981427174976
1.590420332355816
1.7165200391006843
1.8377321603128052
1.9530791788856303
2.059628543499511
2.155425219941349
2.2385141739980448
2.3098729227761488
2.363636363636364
2.403714565004888
2.4457478005865103
2.487781036168133
2.527859237536657
2.5620723362658846
2.589442815249267
2.613880742913001
2.636363636363636
2.654936461388074
2.667644183773216
2.67644183773216
2.678396871945259
2.6725317693059627
2.658846529814272
2.6402737047898337
2.6148582600195502
2.58455522971652
2.548387096774193
2.5034213098729228
2.452590420332356
2.3978494623655915
2.3382209188660803
2.278592375366569
2.220918866080156
2.16911045943304
2.1221896383186705
2.075268817204301
2.03128054740958
1.9872922776148585
1.948191593352884
1.9159335288367547
1.8875855327468232
1.8592375366568916
1.8299120234604105
1.7976539589442817
1.761485826001955
1.7243401759530792
1.6911045943304008
1.6627565982404693
1.6344086021505375
1.606060606060606
1.5777126099706744
1.5493646138807429
1.520039100684262
1.4897360703812317
1.458455522971652
1.4271749755620724
1.396871945259042
1.3665689149560116
1.3401759530791788
1.3206256109481915
1.2961876832844574
1.2717497556207231
1.249266862170088
1.2267839687194526
1.209188660801564
1.1925708699902249
1.1779081133919844
1.163245356793744
1.1485826001955035
1.1348973607038124
1.1221896383186705
1.1143695014662756
1.1065493646138806
1.099706744868035
1.0928641251221896
1.086021505376344
1.0801564027370478
1.075268817204301
1.0733137829912025
1.072336265884653
1.0713587487781036
1.0713587487781036
1.0713587487781036
1.0733137829912025
1.0762463343108504
1.0772238514173995
1.078201368523949
1.0762463343108504
1.0733137829912025
1.072336265884653
1.0713587487781036
1.0742913000977516
1.0869990224828934
1.110459433040078
1.147605083088954
1.1974584555229717
1.2502443792766371
1.3118279569892473
1.393939393939394
1.490713587487781
1.5992179863147604
1.715542521994135
1.833822091886608
1.949169110459433
2.059628543499511
2.160312805474096
2.249266862170088
2.3255131964809386
2.3812316715542523
2.423264907135875
2.4652981427174976
2.506353861192571
2.544477028347996
2.5806451612903225
2.616813294232649
2.649071358748778
2.675464320625611
2.6959921798631474
2.7096774193548385
2.718475073313783
2.720430107526881
2.7145650048875853
2.704789833822092
2.6930596285435
2.674486803519061
2.650048875855328
2.6177908113391983
2.576735092864125
2.5268817204301075
2.4682306940371457
2.4056695992179864
2.3421309872922778
2.280547409579668
2.2267839687194524
2.1788856304985336
2.129032258064516
2.075268817204301
2.0146627565982405
1.946236559139785
1.870967741935484
1.7947214076246334
1.721407624633431
1.6549364613880744
1.598240469208211
1.552297165200391
1.517106549364614
1.4926686217008798
1.474095796676442
1.452590420332356
1.426197458455523
1.3949169110459434
1.3616813294232648
1.3235581622678396
1.2854349951124144
1.252199413489736
1.219941348973607
1.187683284457478
1.1573802541544478
1.133919843597263
1.1133919843597262
1.088954056695992
1.064516129032258
1.0410557184750733
1.0195503421309873
0.9980449657869012
0.9765395894428152
0.9550342130987292
0.9335288367546432
0.9120234604105572
0.8914956011730205
0.8699902248289345
0.8543499511241447
0.8406647116324536
0.8250244379276638
0.8103616813294232
0.7947214076246334
0.7761485826001955
0.7565982404692082
0.7341153470185728
0.7086999022482894
0.6823069403714564
0.6549364613880743
0.6285434995112414
0.6119257086999023
0.6001955034213099
0.5835777126099707
0.5650048875855328
0.544477028347996
0.64613880742913
0.8093841642228738
0.8807429130009775
0.9071358748778104
0.913978494623656
0.9159335288367546
0.9217986314760508
0.93841642228739
0.9667644183773216
1.0058651026392962
1.0586510263929618
1.1251221896383188
1.203323558162268
1.2883675464320623
1.3773216031280548
1.466275659824047
1.5542521994134897
1.6373411534701858
1.715542521994135
1.7849462365591398
1.8387096774193548
1.881720430107527
1.921798631476051
1.9579667644183771
1.989247311827957
2.013685239491691
2.032258064516129
2.046920821114369
2.0576735092864125
2.064516129032258
2.0664711632453567
2.065493646138808
2.065493646138808
2.065493646138808
2.0635386119257086
2.0576735092864125
2.046920821114369
2.0283479960899315
2.0019550342130987
1.967741935483871
1.9286412512218964
1.8836754643206255
1.8328445747800584
1.7771260997067448
1.718475073313783
1.6705767350928642
1.6285434995112416
1.5835777126099706
1.5405669599217986
1.501466275659824
1.469208211143695
1.4437927663734116
1.4213098729227762
1.4007820136852396
1.3773216031280548
1.3499511241446724
1.3206256109481915
1.2981427174975562
1.2805474095796676
1.2570869990224829
1.23069403714565
1.2052785923753666
1.1798631476050832
1.1544477028347997
1.1270772238514175
1.0987292277614855
1.0703812316715542
1.040078201368524
1.0087976539589445
0.9775171065493646
0.95405669599218
0.9345063538611924
0.9120234604105572
0.8895405669599218
0.8680351906158358
0.8514173998044966
0.8367546432062561
0.823069403714565
0.8093841642228738
0.7966764418377321
0.7839687194525904
0.7712609970674487
0.7644183773216031
0.761485826001955
0.7536656891495601
0.7448680351906158
0.7390029325513197
0.7360703812316716
0.7350928641251222
0.7341153470185728
0.7302052785923754
0.7223851417399805
0.7116324535679375
0.6999022482893451
0.6891495601173021
0.6852394916911045
0.6852394916911045
0.6823069403714564
0.6774193548387096
0.6715542521994134
0.667644183773216
0.6666666666666666
0.6695992179863147
0.6744868035190615
0.6813294232649071
0.6959921798631477
0.7223851417399805
0.7595307917888563
0.8084066471163245
0.8729227761485826
0.9511241446725318
1.0410557184750733
1.1407624633431086
1.2443792766373412
1.348973607038123
1.4506353861192571
1.5464320625610948
1.6334310850439884
1.7135874877810362
1.7839687194525904
1.8387096774193548
1.8826979472140764
1.9257086999022484
1.9667644183773216
2.002932551319648
2.032258064516129
2.0547409579667644
2.070381231671554
2.0821114369501466
2.090909090909091
2.0987292277614857
2.1055718475073317
2.110459433040078
2.113391984359726
2.112414467253177
2.1094819159335287
2.102639296187683
2.089931573802541
2.071358748778104
2.046920821114369
2.0175953079178885
1.9804496578690127
1.9364613880742916
1.8905180840664717
1.8455522971652003
1.8074291300097751
1.772238514173998
1.7341153470185728
1.6989247311827955
1.6715542521994136
1.6520039100684265
1.635386119257087
1.6207233626588464
1.607038123167155
1.5923753665689149
1.5757575757575757
1.5562072336265884
1.5395894428152492
1.5249266862170088
1.5063538611925709
1.4897360703812317
1.4750733137829912
1.4613880742913
1.4496578690127078
1.4389051808406648
1.4252199413489737
1.4086021505376345
1.391006842619746
1.3743890518084063
1.3577712609970674
1.3470185728250244
1.3411534701857282
1.335288367546432
1.3294232649071358
1.324535679374389
1.3206256109481915
1.3157380254154447
1.3098729227761483
1.3040078201368523
1.2971652003910068
1.29227761485826
1.2903225806451613
1.2903225806451613
1.29227761485826
1.2932551319648091
1.295210166177908
1.2991202346041055
1.3049853372434017
1.310850439882698
1.3157380254154447
1.3176930596285434
1.316715542521994
1.313782991202346
1.3088954056695992
1.3049853372434017
1.305962854349951
1.310850439882698
1.316715542521994
1.3225806451612905
1.3294232649071358
1.335288367546432
1.3421309872922775
1.3470185728250244
1.3509286412512218
1.3558162267839686
1.364613880742913
1.380254154447703
1.4027370478983383
1.435972629521017
1.4848484848484849
1.5503421309872922
1.6344086021505375
1.732160312805474
1.839687194525904
1.7272727272727273
1.7233626588465298
1.7194525904203324
1.715542521994135
1.7126099706744868
1.7096774193548387
1.7086999022482894
1.70772238514174
1.70772238514174
1.70772238514174
1.7067448680351909
1.7057673509286413
1.7057673509286413
1.70772238514174
1.710654936461388
1.7126099706744868
1.715542521994135
1.7194525904203324
1.7233626588465298
1.7272727272727273
1.7311827956989247
1.7341153470185728
1.7350928641251222
1.737047898338221
1.7409579667644184
1.7468230694037146
1.7575757575757576
1.7790811339198436
1.8132942326490715
1.8641251221896384
1.9335288367546437
2.0195503421309877
2.1221896383186705
2.2385141739980448
2.364613880742913
2.4946236559139785
2.6236559139784945
2.748778103616813
2.8514173998044967
2.936461388074292
3.0254154447702835
3.1094819159335287
3.1847507331378297
3.2521994134897363
3.3118279569892475
3.364613880742913
3.410557184750733
3.449657869012708
3.4858260019550342
3.517106549364614
3.535679374389052
3.548387096774193
3.563049853372434
3.575757575757576
3.5835777126099706
3.5865102639296187
3.5855327468230693
3.578690127077224
3.5669599217986314
3.549364613880743
3.5249266862170088
3.496578690127077
3.463343108504399
3.4252199413489737
3.3812316715542523
3.332355816226784
3.275659824046921
3.2130987292277613
3.146627565982405
3.0772238514174
3.0087976539589443
2.941348973607038
2.877810361681329
2.817204301075269
2.7614858260019552
2.713587487781036
2.670576735092864
2.6295210166177907
2.590420332355816
2.552297165200391
2.515151515151515
2.4789833822091887
2.443792766373412
2.407624633431085
2.3734115347018574
2.3382209188660803
2.3010752688172045
2.2639296187683287
2.231671554252199
2.201368523949169
2.1681329423264906
2.134897360703812
2.102639296187683
2.0733137829912023
2.0449657869012707
2.01564027370479
1.9872922776148585
1.959921798631476
1.9315738025415443
1.902248289345064
1.8778103616813293
1.8563049853372435
1.833822091886608
1.8113391984359728
1.7878787878787878
1.7653958944281525
1.7448680351906158
1.726295210166178
1.70772238514174
1.6911045943304008
1.6735092864125125
1.6559139784946235
1.643206256109482
1.632453567937439
1.619745845552297
1.607038123167155
1.595307917888563
1.5826001955034212
1.5698924731182795
1.5581622678396871
1.5464320625610948
1.533724340175953
1.520039100684262
1.5073313782991202
1.495601173020528
1.4897360703812317
1.487781036168133
1.487781036168133
1.4946236559139785
1.512218963831867
1.542521994134897
1.5884652981427174
1.651026392961877
1.7302052785923754
1.8240469208211143
1.9286412512218964
2.042033235581622
2.142717497556207
2.2355816226783967
2.3362658846529816
2.436950146627566
2.533724340175953
2.622678396871945
2.702834799608993
2.774193548387097
2.8377321603128056
2.89345063538612
2.943304007820137
2.9872922776148583
3.0254154447702835
3.0527859237536656
3.072336265884653
3.0928641251221896
3.113391984359726
3.1309872922776147
3.145650048875855
3.157380254154448
3.164222873900293
3.166177908113392
3.163245356793744
3.1544477028347995
3.1378299120234603
3.114369501466276
3.086021505376344
3.0518084066471163
3.0127077223851417
2.967741935483871
2.9159335288367547
2.860215053763441
2.7996089931573804
2.736070381231672
2.6715542521994133
2.6099706744868034
2.552297165200391
2.4995112414467253
2.455522971652004
2.4173998044965788
2.3822091886608017
2.3489736070381237
2.3167155425219943
2.2854349951124147
2.2561094819159337
2.225806451612903
2.1925708699902247
2.1593352883675463
2.1270772238514173
2.0948191593352883
2.067448680351906
2.042033235581622
2.013685239491691
1.9833822091886608
1.9530791788856303
1.921798631476051
1.8905180840664717
1.8602150537634408
1.83088954056696
1.801564027370479
1.7732160312805474
1.7468230694037146
1.721407624633431
1.699902248289345
1.6813294232649072
1.6608015640273706
1.640273704789834
1.6217008797653958
1.6041055718475072
1.587487781036168
1.5718475073313782
1.5562072336265884
1.541544477028348
1.5278592375366569
1.5151515151515151
1.5073313782991202
1.500488758553275
1.4936461388074291
1.4858260019550342
1.47702834799609
1.469208211143695
1.4623655913978495
1.456500488758553
1.4516129032258065
1.4457478005865103
1.4389051808406648
1.43108504398827
1.4213098729227762
1.414467253176931
1.4105571847507332
1.4056695992179864
1.4027370478983383
1.4066471163245358
1.4203323558162269
1.4486803519061584
1.4936461388074291
1.5542521994134897
1.6304985337243405
1.7223851417399805
1.8269794721407624
1.9257086999022484
2.0205278592375366
2.1280547409579667
2.239491691104594
2.347018572825025
2.4486803519061584
2.541544477028348
2.495601173020528
2.3734115347018574
2.337243401759531
2.3411534701857284
2.361681329423265
2.389051808406647
2.4115347018572826
2.429130009775171
2.4486803519061584
2.4672531769305963
2.482893450635386
2.495601173020528
2.505376344086021
2.512218963831867
2.515151515151515
2.512218963831867
2.504398826979472
2.4916911045943304
2.4731182795698925
2.449657869012708
2.421309872922776
2.3870967741935485
2.346041055718475
2.300097751710655
2.2502443792766376
2.1974584555229715
2.142717497556207
2.086021505376344
2.032258064516129
1.9824046920821117
1.935483870967742
1.8963831867057677
1.8631476050830889
1.8318670576735088
1.8025415444770283
1.775171065493646
1.7487781036168133
1.7233626588465298
1.6979472140762464
1.6735092864125125
1.6500488758553276
1.624633431085044
1.5972629521016617
1.573802541544477
1.5532746823069403
1.530791788856305
1.5053763440860215
1.47702834799609
1.4486803519061584
1.4213098729227762
1.393939393939394
1.3655913978494625
1.3391984359726294
1.3147605083088951
1.29227761485826
1.2697947214076246
1.252199413489736
1.238514173998045
1.2238514173998043
1.209188660801564
1.1945259042033236
1.1798631476050832
1.163245356793744
1.1466275659824048
1.130987292277615
1.1163245356793745
1.1036168132942326
1.0918866080156402
1.0850439882697946
1.0811339198435972
1.0772238514173995
1.0733137829912025
1.0694037145650048
1.0654936461388074
1.0596285434995112
1.0527859237536656
1.0449657869012707
1.0371456500488758
1.029325513196481
1.0205278592375366
1.0146627565982405
1.0097751710654936
1.0019550342130987
0.9931573802541545
0.9843597262952102
0.9765395894428152
0.9736070381231672
0.978494623655914
0.9941348973607038
1.024437927663734
1.0703812316715542
1.1300097751710656
1.203323558162268
1.2766373411534702
1.3528836754643203
1.4437927663734116
1.541544477028348
1.6383186705767352
1.7331378299120237
1.822091886608016
1.9042033235581624
1.9775171065493649
2.042033235581622
2.0977517106549364
2.1436950146627565
2.176930596285435
2.20039100684262
2.220918866080156
2.2385141739980448
2.2531769305962857
2.2639296187683287
2.272727272727273
2.2795698924731185
2.2825024437927666
2.2825024437927666
2.2766373411534704
2.2658846529814274
2.249266862170088
2.2297165200391005
2.207233626588465
2.1788856304985336
2.144672531769306
2.104594330400782
2.059628543499511
2.0087976539589443
1.9550342130987293
1.8983382209188664
1.8406647116324533
1.782991202346041
1.7272727272727273
1.6803519061583578
1.6383186705767352
1.5943304007820136
1.5532746823069403
1.5141739980449658
1.479960899315738
1.4486803519061584
1.418377321603128
1.3890518084066472
1.359726295210166
1.3294232649071358
1.2981427174975562
1.2668621700879763
1.2404692082111437
1.2150537634408602
1.18475073313783
1.1515151515151516
1.1192570869990224
1.0869990224828934
1.0547409579667644
1.0234604105571847
0.9941348973607038
0.9648093841642228
0.935483870967742
0.906158357771261
0.884652981427175
0.8680351906158358
0.8465298142717498
0.823069403714565
0.8005865102639296
0.7800586510263929
0.7624633431085044
0.7468230694037146
0.7311827956989247
0.7165200391006843
0.7018572825024438
0.6871945259042033
0.6735092864125122
0.6656891495601173
0.6617790811339198
0.6559139784946236
0.6471163245356794
0.6373411534701857
0.6295210166177908
0.6217008797653959
0.6119257086999023
0.6021505376344086
0.5933528836754643
0.5855327468230694
0.5757575757575758
0.570869990224829
0.5689149560117303
0.5640273704789834
0.5581622678396871
0.5503421309872922
0.5454545454545454
0.5434995112414467
0.5454545454545454
0.5532746823069403
0.5718475073313783
0.6021505376344086
0.6471163245356794
0.7067448680351907
0.7702834799608993
0.8406647116324536
0.9266862170087976
1.0224828934506354
1.1231671554252198
1.2238514173998043
1.3206256109481915
1.409579667644184
1.490713587487781
1.5620723362658846
1.6226783968719452
1.675464320625611
1.7165200391006843
1.747800586510264
1.7771260997067448
1.8025415444770283
1.823069403714565
1.8387096774193548
1.8504398826979471
1.858260019550342
1.8621700879765395
1.8641251221896384
1.865102639296188
1.8631476050830889
1.857282502443793
1.847507331378299
1.833822091886608
1.812316715542522
1.7849462365591398
1.7526881720430108
1.715542521994135
1.675464320625611
1.6334310850439884
1.5943304007820136
1.5581622678396871
1.525904203323558
1.4975562072336266
1.474095796676442
1.456500488758553
1.439882697947214
1.4242424242424243
1.4105571847507332
1.3978494623655917
1.3841642228739004
1.3695014662756595
1.35386119257087
1.3362658846529814
1.3176930596285434
1.2991202346041055
1.2795698924731185
1.2649071358748778
1.252199413489736
1.2365591397849462
1.2209188660801564
1.2043010752688172
1.187683284457478
1.1691104594330402
1.1495601173020529
1.1300097751710656
1.1133919843597262
1.0977517106549364
1.0840664711632453
1.075268817204301
