ppg
1.7272727272727273
1.6774193548387095
1.6412512218963833
1.6158357771260996
1.5972629521016617
1.5835777126099706
1.5728250244379276
1.563049853372434
1.5532746823069403
1.5464320625610948
1.5405669599217986
1.5317693059628543
1.520039100684262
1.5053763440860215
1.4897360703812317
1.4750733137829912
1.4594330400782014
1.4437927663734116
1.4291300097751711
1.41544477028348
1.4027370478983383
1.393939393939394
1.3870967741935485
1.3773216031280548
1.367546432062561
1.3587487781036167
1.3509286412512218
1.3440860215053765
1.3391984359726294
1.335288367546432
1.332355816226784
1.3313782991202343
1.332355816226784
1.3343108504398826
1.33822091886608
1.343108504398827
1.3479960899315735
1.3519061583577712
1.35386119257087
1.35386119257087
1.3509286412512218
1.346041055718475
1.3401759530791788
1.3401759530791788
1.3548387096774193
1.3949169110459434
1.452590420332356
1.5366568914956011
1.6637341153470186
1.8269794721407624
2.013685239491691
2.210166177908113
2.398826979472141
2.5669599217986314
2.70772238514174
2.817204301075269
2.8963831867057674
2.9501466275659824
2.983382209188661
2.997067448680352
2.99902248289345
2.997067448680352
2.992179863147605
2.9872922776148583
2.98435972629521
2.981427174975562
2.978494623655914
2.975562072336266
2.973607038123167
2.970674486803519
2.9657869012707723
2.9550342130987293
2.940371456500489
2.9237536656891496
2.9042033235581624
2.881720430107527
2.854349951124145
2.822091886608016
2.782991202346041
2.73802541544477
2.684261974584555
2.621700879765396
2.548387096774193
2.464320625610948
2.383186705767351
2.302052785923754
2.210166177908113
2.115347018572825
2.0254154447702835
1.945259042033236
1.8778103616813293
1.826001955034213
1.7888563049853372
1.7634408602150538
1.7448680351906158
1.7311827956989247
1.7204301075268815
1.710654936461388
1.6989247311827955
1.6842619745845553
1.6666666666666667
1.6471163245356797
1.6265884652981428
1.598240469208211
1.5718475073313782
1.5542521994134897
1.5356793743890518
1.517106549364614
1.5024437927663734
1.490713587487781
1.47702834799609
1.4633431085043989
1.4506353861192571
1.4379276637341154
1.426197458455523
1.41544477028348
1.4056695992179864
1.396871945259042
1.391006842619746
1.3861192570869991
1.383186705767351
1.3822091886608017
1.383186705767351
1.3822091886608017
1.3812316715542523
1.3812316715542523
1.383186705767351
1.3851417399804498
1.388074291300098
1.391006842619746
1.3919843597262953
1.392961876832845
1.396871945259042
1.4056695992179864
1.426197458455523
1.469208211143695
1.543499511241447
1.6529814271749756
1.796676441837732
1.9442815249266865
2.099706744868035
2.275659824046921
2.447702834799609
2.5992179863147604
2.720430107526881
2.809384164222874
2.863147605083089
2.89247311827957
2.911045943304008
2.920821114369501
2.9237536656891496
2.9227761485826003
2.918866080156403
2.913978494623656
2.909090909090909
2.902248289345064
2.8944281524926687
2.8856304985337244
2.873900293255132
2.859237536656892
2.844574780058651
2.827956989247312
2.8084066471163247
2.7859237536656893
2.7595307917888565
2.729227761485826
2.6940371456500487
2.653958944281525
2.608993157380254
2.557184750733138
2.496578690127077
2.4359726295210167
2.36950146627566
2.286412512218964
2.190615835777126
2.086021505376344
1.975562072336266
1.866080156402737
1.7634408602150538
1.6744868035190617
1.6021505376344083
1.547409579667644
1.5102639296187683
1.4897360703812317
1.479960899315738
1.4750733137829912
1.4721407624633431
1.469208211143695
1.4643206256109482
1.455522971652004
1.4418377321603129
1.4252199413489737
1.404692082111437
1.3822091886608017
1.359726295210166
1.3372434017595307
1.3196480938416422
1.3049853372434017
1.2873900293255132
1.267839687194526
1.249266862170088
1.2316715542521994
1.2160312805474096
1.2013685239491692
1.1886608015640274
1.1779081133919844
1.1691104594330402
1.1612903225806452
1.1573802541544478
1.155425219941349
1.1515151515151516
1.147605083088954
1.1456500488758554
1.144672531769306
1.1466275659824048
1.1495601173020529
1.1544477028347997
1.1612903225806452
1.1691104594330402
1.1749755620723363
1.1779081133919844
1.1798631476050832
1.1808406647116323
1.181818181818182
1.1906158357771262
1.2189638318670577
1.2776148582600195
1.375366568914956
1.512218963831867
1.6852394916911049
1.8807429130009776
2.1251221896383186
2.3391984359726297
2.4604105571847508
2.563049853372434
2.658846529814272
2.736070381231672
2.791788856304985
2.8289345063538613
2.849462365591398
2.859237536656892
2.86217008797654
2.8611925708699903
2.857282502443793
2.8514173998044967
2.843597262952102
2.832844574780059
2.820136852394917
2.809384164222874
2.7996089931573804
2.789833822091887
2.779081133919844
2.768328445747801
2.7546432062561097
2.735092864125122
2.7096774193548385
2.67644183773216
2.635386119257087
2.590420332355816
2.5405669599217986
2.479960899315738
2.409579667644184
2.329423264907136
2.2404692082111435
2.1417399804496577
2.035190615835777
1.924731182795699
1.8142717497556209
1.7116324535679377
1.6217008797653958
1.5493646138807429
1.498533724340176
1.466275659824047
1.4437927663734116
1.43108504398827
1.4242424242424243
1.4213098729227762
1.418377321603128
1.4134897360703813
1.4056695992179864
1.3958944281524928
1.3841642228739004
1.3695014662756595
1.356793743890518
1.3450635386119256
1.3313782991202343
1.316715542521994
1.3040078201368523
1.29227761485826
1.281524926686217
1.2717497556207231
1.2609970674486803
1.2502443792766371
1.238514173998045
1.224828934506354
1.2101661779081134
1.1994134897360704
1.1915933528836755
1.1808406647116323
1.1700879765395895
1.1612903225806452
1.1564027370478984
1.1534701857282503
1.152492668621701
1.1515151515151516
1.1505376344086022
1.1495601173020529
1.147605083088954
1.147605083088954
1.147605083088954
1.1436950146627567
1.1368523949169111
1.1280547409579669
1.121212121212121
1.1231671554252198
1.1436950146627567
1.1935483870967742
1.281524926686217
1.409579667644184
1.573802541544477
1.7605083088954057
1.9296187683284456
2.0840664711632453
2.242424242424242
2.3822091886608017
2.493646138807429
2.573802541544477
2.625610948191593
2.654936461388074
2.665689149560117
2.6637341153470184
2.6529814271749754
2.635386119257087
2.613880742913001
2.591397849462365
2.5698924731182795
2.548387096774193
2.5288367546432062
2.5102639296187683
2.490713587487781
2.4701857282502444
2.447702834799609
2.4222873900293256
2.3929618768328447
2.360703812316716
2.3274682306940373
2.291300097751711
2.2482893450635384
2.198435972629521
2.1407624633431084
2.075268817204301
2.0009775171065494
1.9178885630498532
1.8240469208211143
1.7204301075268815
1.6099706744868034
1.4965786901270772
1.3841642228739004
1.29227761485826
1.1974584555229717
1.1124144672531768
1.0586510263929618
1.0146627565982405
0.981427174975562
0.9579667644183774
0.9423264907135877
0.9305962854349952
0.919843597262952
0.9110459433040078
0.9022482893450636
0.8983382209188661
0.8973607038123167
0.8924731182795699
0.8866080156402737
0.8797653958944281
0.8719452590420332
0.8641251221896383
0.8563049853372434
0.8484848484848485
0.8406647116324536
0.8328445747800587
0.8240469208211144
0.8142717497556208
0.8093841642228738
0.8074291300097751
0.8005865102639296
0.7927663734115347
0.782991202346041
0.7702834799608993
0.7585532746823069
0.7487781036168133
0.7409579667644184
0.7350928641251222
0.7311827956989247
0.729227761485826
0.8005865102639296
0.9090909090909092
0.9638318670576737
0.9921798631476052
1.0068426197458455
1.013685239491691
1.0146627565982405
1.0146627565982405
1.0195503421309873
1.035190615835777
1.0703812316715542
1.133919843597263
1.2326490713587488
1.3450635386119256
1.4760508308895406
1.6441837732160314
1.83088954056696
2.021505376344086
2.19941348973607
2.355816226783969
2.482893450635386
2.5806451612903225
2.6510263929618767
2.6989247311827955
2.7282502443792764
2.740957966764418
2.7438905180840663
2.742913000977517
2.739980449657869
2.7341153470185726
2.7262952101661777
2.717497556207233
2.708699902248289
2.697947214076246
2.6852394916911044
2.6715542521994133
2.656891495601173
2.6402737047898337
2.618768328445748
2.5943304007820136
2.5640273704789838
2.525904203323558
2.4809384164222874
2.4271749755620724
2.364613880742913
2.290322580645161
2.206256109481916
2.115347018572825
2.0234604105571847
1.9315738025415443
1.855327468230694
1.7917888563049853
1.732160312805474
1.6813294232649072
1.6412512218963833
1.6109481915933528
1.587487781036168
1.56891495601173
1.552297165200391
1.5366568914956011
1.521016617790811
1.504398826979472
1.4868035190615836
1.4731182795698925
1.4613880742913
1.4486803519061584
1.4349951124144673
1.4203323558162269
1.4066471163245358
1.3949169110459434
1.383186705767351
1.370478983382209
1.3577712609970674
1.3440860215053765
1.3304007820136852
1.321603128054741
1.316715542521994
1.310850439882698
1.3040078201368523
1.2981427174975562
1.2942326490713587
1.2903225806451613
1.2854349951124144
1.2795698924731185
1.2727272727272727
1.2658846529814272
1.2590420332355816
1.252199413489736
1.2482893450635386
1.2453567937438903
1.2404692082111437
1.2346041055718475
1.2258064516129032
1.217008797653959
1.2101661779081134
1.2052785923753666
1.2052785923753666
1.2189638318670577
1.2541544477028348
1.321603128054741
1.4076246334310851
1.5180840664711632
1.6735092864125125
1.8602150537634408
2.0635386119257086
2.2668621700879767
2.4545454545454546
2.6148582600195502
2.742913000977517
2.835777126099707
2.897360703812317
2.935483870967742
2.956011730205278
2.959921798631476
2.95405669599218
2.946236559139785
2.9374389051808407
2.9286412512218964
2.919843597262952
2.9120234604105573
2.9042033235581624
2.895405669599218
2.8856304985337244
2.874877810361681
2.86217008797654
2.8455522971652005
2.825024437927664
2.801564027370479
2.773216031280548
2.7390029325513194
2.6989247311827955
2.6510263929618767
2.5943304007820136
2.529814271749756
2.4574780058651027
2.377321603128055
2.2883675464320627
2.1925708699902247
2.104594330400782
2.022482893450636
1.932551319648094
1.844574780058651
1.7653958944281525
1.699902248289345
1.6490713587487782
1.611925708699902
1.5884652981427174
1.5747800586510263
1.5669599217986314
1.5610948191593352
1.5571847507331378
1.5542521994134897
1.5483870967741935
1.5405669599217986
1.5317693059628543
1.521994134897361
1.509286412512219
1.4965786901270772
1.482893450635386
1.469208211143695
1.455522971652004
1.4428152492668622
1.434017595307918
1.4271749755620724
1.4173998044965788
1.4066471163245358
1.396871945259042
1.3900293255131966
1.3841642228739004
1.3792766373411536
1.3763440860215057
1.3743890518084063
1.3734115347018572
1.3734115347018572
1.3734115347018572
1.375366568914956
1.3792766373411536
1.3822091886608017
1.3851417399804498
1.3870967741935485
1.3890518084066472
1.391006842619746
1.3919843597262953
1.3900293255131966
1.3861192570869991
1.3812316715542523
1.3812316715542523
1.391006842619746
1.418377321603128
1.474095796676442
1.5669599217986314
1.6989247311827955
1.8670576735092863
2.110459433040078
2.337243401759531
2.49266862170088
2.64613880742913
2.791788856304985
2.9012707722385143
2.963831867057673
3.0
3.018572825024438
3.0303030303030303
3.035190615835777
3.0361681329423265
3.0332355816226784
3.0283479960899315
3.022482893450636
3.018572825024438
3.016617790811339
3.01564027370479
3.010752688172043
3.004887585532747
3.0009775171065494
2.997067448680352
2.98435972629521
2.9696969696969697
2.956989247311828
2.936461388074292
2.8993157380254155
2.849462365591398
2.798631476050831
2.7419354838709675
2.677419354838709
2.6265884652981426
2.565982404692082
2.47702834799609
2.3841642228739004
2.289345063538612
2.1945259042033234
2.104594330400782
2.0234604105571847
1.95405669599218
1.8993157380254155
1.8592375366568916
1.83088954056696
1.8132942326490715
1.801564027370479
1.7927663734115349
1.782991202346041
1.7702834799608993
1.7565982404692082
1.7409579667644184
1.7243401759530792
1.7067448680351909
1.6881720430107527
1.6695992179863148
1.6500488758553276
1.6314760508308896
1.6177908113391983
1.606060606060606
1.5933528836754642
1.5806451612903225
1.5679374389051808
1.5542521994134897
1.5356793743890518
1.5151515151515151
1.499511241446725
1.4868035190615836
1.4760508308895406
1.4672531769305963
1.4623655913978495
1.4604105571847508
1.456500488758553
1.4535679374389052
1.452590420332356
1.4545454545454546
1.4604105571847508
1.4672531769305963
1.474095796676442
1.479960899315738
1.4819159335288368
1.478005865102639
1.4721407624633431
1.4672531769305963
1.469208211143695
1.4819159335288368
1.517106549364614
1.5835777126099706
1.6852394916911049
1.8211143695014664
1.9833822091886608
2.1593352883675463
2.334310850439883
2.4975562072336266
2.638318670576735
2.739980449657869
2.8103616813294234
2.868035190615836
2.9100684261974585
2.93841642228739
2.9550342130987293
2.962854349951124
2.963831867057673
2.961876832844575
2.956989247311828
2.951124144672532
2.945259042033236
2.9374389051808407
2.9266862170087977
2.913978494623656
2.9042033235581624
2.8944281524926687
2.8836754643206257
2.8719452590420333
2.859237536656892
2.843597262952102
2.8260019550342133
2.803519061583578
2.7751710654936463
2.7390029325513194
2.697947214076246
2.6510263929618767
2.592375366568915
2.52297165200391
2.443792766373412
2.355816226783969
2.2629521016617797
2.167155425219941
2.075268817204301
1.991202346041056
1.916911045943304
1.855327468230694
1.8084066471163245
1.7771260997067448
1.7565982404692082
1.7429130009775171
1.732160312805474
1.7233626588465298
1.7145650048875856
1.7028347996089932
1.6901270772238517
1.675464320625611
1.6588465298142718
1.6412512218963833
1.6226783968719452
1.606060606060606
1.4545454545454546
1.4516129032258065
1.447702834799609
1.4486803519061584
1.4633431085043989
1.500488758553275
1.5679374389051808
1.6705767350928642
1.8084066471163245
1.9726295210166176
2.1515151515151514
2.329423264907136
2.4750733137829912
2.590420332355816
2.696969696969697
2.782013685239492
2.843597262952102
2.8826979472140764
2.906158357771261
2.917888563049853
2.921798631476051
2.921798631476051
2.921798631476051
2.921798631476051
2.916911045943304
2.9100684261974585
2.906158357771261
2.903225806451613
2.900293255131965
2.895405669599218
2.887585532746823
2.875855327468231
2.859237536656892
2.838709677419355
2.814271749755621
2.7839687194525906
2.750733137829912
2.7145650048875853
2.6725317693059627
2.6236559139784945
2.5669599217986314
2.5004887585532747
2.4252199413489737
2.3411534701857284
2.247311827956989
2.146627565982405
2.0410557184750733
1.9374389051808407
1.839687194525904
1.7605083088954057
1.696969696969697
1.6383186705767352
1.590420332355816
1.5532746823069403
1.525904203323558
1.504398826979472
1.4848484848484849
1.4652981427174976
1.4457478005865103
1.4242424242424243
1.4007820136852396
1.383186705767351
1.3665689149560116
1.3450635386119256
1.3206256109481915
1.2942326490713587
1.2658846529814272
1.2365591397849462
1.206256109481916
1.1759530791788857
1.147605083088954
1.1202346041055715
1.0957966764418376
1.0742913000977516
1.0596285434995112
1.0469208211143697
1.0303030303030305
1.013685239491691
0.997067448680352
0.9804496578690128
0.9628543499511242
0.9452590420332356
0.9296187683284456
0.913978494623656
0.8993157380254154
0.8866080156402737
0.8807429130009775
0.8787878787878788
0.8758553274682307
0.8729227761485826
0.8690127077223851
0.8641251221896383
0.8582600195503421
0.8494623655913979
0.8406647116324536
0.8367546432062561
0.844574780058651
0.873900293255132
0.9335288367546432
1.013685239491691
1.1192570869990224
1.2658846529814272
1.4428152492668622
1.635386119257087
1.827956989247312
2.005865102639296
2.160312805474096
2.2873900293255134
2.3841642228739004
2.4545454545454546
2.5034213098729228
2.5317693059628543
2.5464320625610948
2.5562072336265884
2.5610948191593352
2.5620723362658846
2.5610948191593352
2.5591397849462365
2.5562072336265884
2.552297165200391
2.547409579667644
2.541544477028348
2.535679374389052
2.5288367546432062
2.517106549364614
2.501466275659824
2.4819159335288368
2.458455522971652
2.429130009775171
2.3929618768328447
2.3489736070381237
2.297165200391007
2.2355816226783967
2.164222873900293
2.083088954056696
1.9951124144672527
1.9149560117302051
1.839687194525904
1.758553274682307
1.6803519061583578
1.611925708699902
1.5581622678396871
1.5180840664711632
1.4897360703812317
1.4711632453567938
1.458455522971652
1.4486803519061584
1.439882697947214
1.43108504398827
1.458455522971652
1.5024437927663734
1.520039100684262
1.5249266862170088
1.5239491691104594
1.521016617790811
1.517106549364614
1.5131964809384164
1.5083088954056696
1.5034213098729228
1.498533724340176
1.4916911045943304
1.487781036168133
1.4838709677419355
1.47702834799609
1.4672531769305963
1.455522971652004
1.4437927663734116
1.4320625610948192
1.4203323558162269
1.409579667644184
1.3988269794721409
1.3900293255131966
1.3822091886608017
1.3743890518084063
1.3714565004887584
1.3714565004887584
1.370478983382209
1.367546432062561
1.3636363636363635
1.359726295210166
1.35386119257087
1.3470185728250244
1.3411534701857282
1.3411534701857282
1.3548387096774193
1.392961876832845
1.447702834799609
1.525904203323558
1.643206256109482
1.793743890518084
1.9657869012707725
2.145650048875855
2.3196480938416424
2.4760508308895406
2.606060606060606
2.7067448680351904
2.780058651026393
2.827956989247312
2.857282502443793
2.8690127077223853
2.8690127077223853
2.865102639296188
2.8582600195503423
2.849462365591398
2.838709677419355
2.8260019550342133
2.814271749755621
2.8025415444770285
2.790811339198436
2.777126099706745
2.7624633431085046
2.745845552297165
2.727272727272727
2.705767350928641
2.6803519061583576
2.650048875855328
2.613880742913001
2.5698924731182795
2.517106549364614
2.453567937438905
2.380254154447703
2.297165200391007
2.207233626588465
2.112414467253177
2.029325513196481
1.9550342130987293
1.878787878787879
1.8074291300097751
1.7468230694037146
1.699902248289345
1.6656891495601174
1.6422287390029326
1.6265884652981428
1.6138807429130009
1.603128054740958
1.5913978494623655
1.5806451612903225
1.5708699902248289
1.5581622678396871
1.544477028347996
1.530791788856305
1.5180840664711632
1.5073313782991202
1.4965786901270772
1.4858260019550342
1.4731182795698925
1.4604105571847508
1.447702834799609
1.435972629521017
1.4271749755620724
1.4193548387096775
1.4076246334310851
1.3949169110459434
1.383186705767351
1.3714565004887584
1.3616813294232648
1.35386119257087
1.3479960899315735
1.3440860215053765
1.3421309872922775
1.343108504398827
1.3479960899315735
1.3548387096774193
1.359726295210166
1.364613880742913
1.3685239491691104
1.3724340175953078
1.3773216031280548
1.383186705767351
1.3900293255131966
1.3949169110459434
1.3988269794721409
1.4027370478983383
1.4086021505376345
1.4193548387096775
1.4389051808406648
1.47702834799609
1.542521994134897
1.643206256109482
1.780058651026393
1.948191593352884
2.1378299120234603
2.333333333333333
2.5190615835777126
2.6832844574780057
2.8181818181818183
2.911045943304008
2.972629521016618
3.0195503421309877
3.050830889540567
3.0684261974584555
3.0762463343108504
3.078201368523949
3.0762463343108504
3.0733137829912023
3.071358748778104
3.0684261974584555
3.0664711632453567
3.06158357771261
3.053763440860215
3.048875855327468
3.0449657869012707
3.0391006842619745
3.029325513196481
3.01564027370479
2.997067448680352
2.973607038123167
2.945259042033236
2.913000977517106
2.874877810361681
2.831867057673509
2.788856304985337
2.742913000977517
2.687194525904203
2.621700879765396
2.548387096774193
2.4652981427174976
2.3743890518084068
2.280547409579668
2.187683284457478
2.101661779081134
2.026392961876833
1.963831867057673
1.919843597262952
1.8885630498533723
1.8641251221896384
1.8465298142717497
1.833822091886608
1.822091886608016
1.8103616813294232
1.7986314760508308
1.7849462365591398
1.772238514173998
1.758553274682307
1.7448680351906158
1.7302052785923754
1.7174975562072337
1.7067448680351909
1.6930596285434996
1.6774193548387095
1.66177908113392
1.64613880742913
1.6304985337243405
1.6148582600195502
1.6011730205278591
1.5884652981427174
1.5796676441837731
1.573802541544477
1.5718475073313782
1.5728250244379276
1.5728250244379276
1.5718475073313782
1.56891495601173
1.5650048875855327
1.5591397849462365
1.5513196480938416
1.544477028347996
1.5386119257087
1.5356793743890518
1.5356793743890518
1.5376344086021505
1.542521994134897
1.547409579667644
1.5503421309872922
1.552297165200391
1.5581622678396871
1.5747800586510263
1.6129032258064515
1.6813294232649072
1.7839687194525904
1.9188660801564028
2.0791788856304985
2.2521994134897363
2.403714565004888
2.5347018572825024
2.665689149560117
2.7810361681329425
2.8729227761485827
2.941348973607038
2.988269794721408
3.018572825024438
3.037145650048876
3.047898338220919
3.0527859237536656
3.053763440860215
3.050830889540567
3.043010752688172
3.0303030303030303
3.018572825024438
3.006842619745845
2.9960899315738025
2.9853372434017595
2.9745845552297165
2.962854349951124
2.9501466275659824
2.9374389051808407
2.920821114369501
2.900293255131965
2.87683284457478
2.850439882697948
2.819159335288368
2.782013685239492
2.7390029325513194
2.687194525904203
2.625610948191593
2.5102639296187683
2.3626588465298144
2.2375366568914954
2.12316715542522
2.0175953079178885
1.920821114369501
1.8435972629521016
1.7820136852394917
1.7272727272727273
1.683284457478006
1.6500488758553276
1.6256109481915937
1.606060606060606
1.590420332355816
1.5747800586510263
1.5581622678396871
1.5405669599217986
1.521994134897361
1.5063538611925709
1.4916911045943304
1.4750733137829912
1.456500488758553
1.436950146627566
1.4164222873900294
1.3949169110459434
1.3734115347018572
1.3528836754643203
1.3333333333333333
1.316715542521994
1.303030303030303
1.2913000977517106
1.2834799608993157
1.278592375366569
1.2717497556207231
1.2649071358748778
1.2580645161290325
1.2502443792766371
1.2424242424242424
1.2346041055718475
1.227761485826002
1.2228739002932552
1.2189638318670577
1.2160312805474096
1.2160312805474096
1.2179863147605083
1.2179863147605083
1.2160312805474096
1.2130987292277615
1.2082111436950147
1.2023460410557183
1.2003910068426198
1.2101661779081134
1.2424242424242424
1.3069403714565004
1.4086021505376345
1.5483870967741935
1.694037145650049
1.8465298142717497
2.027370478983382
2.212121212121212
2.3841642228739004
2.530791788856305
2.6480938416422286
2.735092864125122
2.7947214076246336
2.834799608993157
2.860215053763441
2.875855327468231
2.8797653958944283
2.877810361681329
2.87683284457478
2.877810361681329
2.877810361681329
2.87683284457478
2.874877810361681
2.8699902248289346
2.8611925708699903
2.8484848484848486
2.832844574780059
2.8132942326490715
2.788856304985337
2.760508308895406
2.729227761485826
2.6940371456500487
2.654936461388074
2.610948191593353
2.5620723362658846
2.5083088954056696
2.44672531769306
2.377321603128055
2.2981427174975564
2.210166177908113
2.114369501466276
2.027370478983382
1.945259042033236
1.858260019550342
1.7761485826001957
1.7038123167155426
1.6441837732160314
1.5992179863147604
1.5679374389051808
1.5483870967741935
1.5366568914956011
1.5288367546432062
1.52297165200391
1.5180840664711632
1.5141739980449658
1.5063538611925709
1.495601173020528
1.4819159335288368
1.4633431085043989
1.4418377321603129
1.4193548387096775
