ppg
1.0420332355816226
1.0586510263929618
1.0772238514173995
1.096774193548387
1.1163245356793745
1.1358748778103618
1.1544477028347997
1.1710654936461389
1.1857282502443791
1.198435972629521
1.2111436950146628
1.2218963831867058
1.23069403714565
1.2365591397849462
1.238514173998045
1.2365591397849462
1.2336265884652982
1.2326490713587488
1.241446725317693
1.2668621700879763
1.3176930596285434
1.3988269794721409
1.490713587487781
1.6001955034213098
1.7429130009775171
1.905180840664712
2.0733137829912023
2.2346041055718477
2.380254154447703
2.5024437927663734
2.5992179863147604
2.677419354838709
2.735092864125122
2.766373411534702
2.7751710654936463
2.7673509286412514
2.745845552297165
2.7145650048875853
2.673509286412512
2.625610948191593
2.570869990224829
2.5112414467253177
2.44672531769306
2.378299120234604
2.3069403714565007
2.233626588465298
2.1593352883675463
2.0928641251221896
2.029325513196481
1.959921798631476
1.8875855327468232
1.8132942326490715
1.7390029325513197
1.664711632453568
1.5923753665689149
1.521994134897361
1.4545454545454546
1.3890518084066472
1.327468230694037
1.2688172043010753
1.2228739002932552
1.18475073313783
1.144672531769306
1.1085043988269794
1.078201368523949
1.0547409579667644
1.0381231671554252
1.0283479960899315
1.024437927663734
1.0283479960899315
1.0371456500488758
1.050830889540567
1.0684261974584557
1.088954056695992
1.110459433040078
1.1329423264907137
1.1544477028347997
1.1759530791788857
1.1964809384164223
1.2150537634408602
1.2316715542521994
1.24633431085044
1.260019550342131
1.270772238514174
1.278592375366569
1.2854349951124144
1.2903225806451613
1.2913000977517106
1.2913000977517106
1.2971652003910068
1.3147605083088951
1.3528836754643203
1.4193548387096775
1.517106549364614
1.64613880742913
1.7996089931573802
1.9687194525904204
2.118279569892473
2.2521994134897363
2.391006842619746
2.5190615835777126
2.627565982404692
2.7126099706744866
2.774193548387097
2.814271749755621
2.832844574780059
2.833822091886608
2.8181818181818183
2.788856304985337
2.747800586510264
2.701857282502444
2.652003910068426
2.595307917888563
2.532746823069404
2.4652981427174976
2.3949169110459434
2.321603128054741
2.24633431085044
2.16911045943304
2.090909090909091
2.0117302052785924
1.932551319648094
1.8631476050830889
1.8005865102639296
1.732160312805474
1.6608015640273706
1.5894428152492668
1.520039100684262
1.4516129032258065
1.3870967741935485
1.3255131964809383
1.2688172043010753
1.217008797653959
1.1710654936461389
1.130987292277615
1.1026392961876832
1.083088954056696
1.0664711632453567
1.0547409579667644
1.0488758553274682
1.0498533724340176
1.056695992179863
1.0684261974584557
1.086021505376344
1.10752688172043
1.130987292277615
1.1544477028347997
1.1779081133919844
1.2003910068426198
1.2228739002932552
1.2443792766373412
1.2639296187683284
1.2805474095796676
1.2961876832844574
1.3098729227761483
1.3196480938416422
1.3264907135874875
1.3304007820136852
1.3313782991202343
1.3333333333333333
1.3401759530791788
1.3558162267839686
1.3900293255131966
1.4506353861192571
1.542521994134897
1.6666666666666667
1.8201368523949168
1.9931573802541545
2.1730205278592374
2.347018572825025
2.505376344086021
2.641251221896383
2.7390029325513194
2.807429130009776
2.8641251221896384
2.902248289345064
2.9227761485826003
2.9257086999022484
2.9120234604105573
2.884652981427175
2.84652981427175
2.7976539589442817
2.7419354838709675
2.6803519061583576
2.6129032258064515
2.547409579667644
2.482893450635386
2.4115347018572826
2.3362658846529816
2.259042033235582
2.179863147605083
2.099706744868035
2.0195503421309877
1.9393939393939397
1.8602150537634408
1.7839687194525904
1.7096774193548387
1.64613880742913
1.5894428152492668
1.5268817204301075
1.4643206256109482
1.4027370478983383
1.3450635386119256
1.2913000977517106
1.2424242424242424
1.198435972629521
1.163245356793744
1.1358748778103618
1.115347018572825
1.1036168132942326
1.1016617790811338
1.1065493646138806
1.115347018572825
1.1280547409579669
1.144672531769306
1.1652003910068427
1.1886608015640274
1.2130987292277615
1.238514173998045
1.2639296187683284
1.2873900293255132
1.3079178885630498
1.3255131964809383
1.3411534701857282
1.3558162267839686
1.367546432062561
1.3773216031280548
1.383186705767351
1.3851417399804498
1.3841642228739004
1.3841642228739004
1.388074291300098
1.404692082111437
1.4418377321603129
1.5083088954056696
1.587487781036168
1.686217008797654
1.823069403714565
1.9833822091886608
2.1544477028347995
2.32355816226784
2.4789833822091887
2.611925708699902
2.720430107526881
2.801564027370479
2.857282502443793
2.889540566959922
2.8993157380254155
2.8914956011730206
2.870967741935484
2.838709677419355
2.7947214076246336
2.740957966764418
2.6803519061583576
2.613880742913001
2.5425219941348973
2.4682306940371457
2.3919843597262958
2.314760508308896
2.244379276637341
2.177908113391984
2.104594330400782
2.027370478983382
1.949169110459433
1.8699902248289344
1.7917888563049853
1.7145650048875856
1.6392961876832846
1.565982404692082
1.4946236559139785
1.4252199413489737
1.3577712609970674
1.303030303030303
1.2561094819159335
1.206256109481916
1.1573802541544478
1.1133919843597262
1.0762463343108504
1.04594330400782
1.0224828934506354
1.0068426197458455
1.0
1.0009775171065494
1.007820136852395
1.0195503421309873
1.035190615835777
1.053763440860215
1.078201368523949
1.1055718475073313
1.1300097751710656
1.1534701857282503
1.173998044965787
1.1925708699902249
1.209188660801564
1.2238514173998043
1.2355816226783969
1.2443792766373412
1.252199413489736
1.2590420332355816
1.2619745845552297
1.2609970674486803
1.2590420332355816
1.2580645161290325
1.2649071358748778
1.2873900293255132
1.3333333333333333
1.409579667644184
1.5190615835777126
1.6588465298142718
1.796676441837732
1.9345063538611929
2.093841642228739
2.254154447702835
2.403714565004888
2.532746823069404
2.638318670576735
2.719452590420332
2.776148582600196
2.811339198435973
2.8260019550342133
2.823069403714565
2.8054740957966766
2.777126099706745
2.739980449657869
2.6930596285435
2.6373411534701856
2.575757575757576
2.5102639296187683
2.439882697947214
2.367546432062561
2.2932551319648096
2.217986314760508
2.1417399804496577
2.064516129032258
1.994134897360704
1.9286412512218964
1.8563049853372435
1.7820136852394917
1.7067448680351909
1.6314760508308896
1.5591397849462365
1.4897360703812317
1.423264907135875
1.3587487781036167
1.2981427174975562
1.2424242424242424
1.1906158357771262
1.1515151515151516
1.1221896383186705
1.093841642228739
1.0694037145650048
1.0527859237536656
1.0439882697947214
1.043010752688172
1.0488758553274682
1.0596285434995112
1.0762463343108504
1.0957966764418376
1.118279569892473
1.141739980449658
1.1652003910068427
1.1886608015640274
1.2111436950146628
1.2316715542521994
1.2502443792766371
1.267839687194526
1.2834799608993157
1.2961876832844574
1.3069403714565004
1.3147605083088951
1.3196480938416422
1.3206256109481915
1.321603128054741
1.324535679374389
1.3313782991202343
1.3499511241446724
1.3890518084066472
1.456500488758553
1.555229716520039
1.6852394916911049
1.839687194525904
2.0097751710654936
2.1837732160312804
2.350928641251222
2.484848484848485
2.591397849462365
2.6911045943304006
2.773216031280548
2.834799608993157
2.874877810361681
2.8944281524926687
2.895405669599218
2.8797653958944283
2.850439882697948
2.8084066471163247
2.757575757575758
2.6989247311827955
2.6392961876832843
2.578690127077224
2.5112414467253177
2.4389051808406648
2.363636363636364
2.2854349951124147
2.2052785923753664
2.124144672531769
2.042033235581622
1.959921798631476
1.878787878787879
1.7996089931573802
1.732160312805474
1.6705767350928642
1.6041055718475072
1.5366568914956011
1.4701857282502444
1.404692082111437
1.3411534701857282
1.2825024437927663
1.227761485826002
1.1798631476050832
1.1397849462365592
1.10752688172043
1.0840664711632453
1.072336265884653
1.0694037145650048
1.0713587487781036
1.078201368523949
1.0899315738025417
1.1055718475073313
1.126099706744868
1.1495601173020529
1.173998044965787
1.1994134897360704
1.2238514173998043
1.2473118279569892
1.2697947214076246
1.289345063538612
1.3079178885630498
1.3255131964809383
1.3401759530791788
1.35386119257087
1.364613880742913
1.3724340175953078
1.375366568914956
1.3763440860215057
1.3792766373411536
1.3900293255131966
1.4164222873900294
1.456500488758553
1.5180840664711632
1.6158357771260996
1.7487781036168133
1.9090909090909087
2.086021505376344
2.267839687194526
2.441837732160313
2.598240469208211
2.730205278592375
2.835777126099707
2.9149560117302054
2.961876832844575
2.98435972629521
2.995112414467253
2.9902248289345064
2.970674486803519
2.93841642228739
2.8944281524926687
2.841642228739003
2.782013685239492
2.717497556207233
2.6480938416422286
2.5747800586510263
2.506353861192571
2.4389051808406648
2.364613880742913
2.286412512218964
2.2052785923753664
2.124144672531769
2.042033235581622
1.959921798631476
1.878787878787879
1.7986314760508308
1.7194525904203324
1.643206256109482
1.56891495601173
1.5063538611925709
1.452590420332356
1.3949169110459434
1.33822091886608
1.284457478005865
1.2365591397849462
1.195503421309873
1.1612903225806452
1.1348973607038124
1.1173020527859236
1.10752688172043
1.104594330400782
1.110459433040078
1.1221896383186705
1.1378299120234605
1.1564027370478984
1.176930596285435
1.1994134897360704
1.2209188660801564
1.241446725317693
1.2609970674486803
1.278592375366569
1.2932551319648091
1.305962854349951
1.3157380254154447
1.3255131964809383
1.3343108504398826
1.3391984359726294
1.3411534701857282
1.3391984359726294
1.3343108504398826
1.3304007820136852
1.3313782991202343
1.346041055718475
1.3812316715542523
1.4457478005865103
1.543499511241447
1.6500488758553276
1.7702834799608993
1.9237536656891496
2.090909090909091
2.2580645161290325
2.4115347018572826
2.544477028347996
2.6529814271749754
2.7341153470185726
2.788856304985337
2.820136852394917
2.8299120234604107
2.8211143695014664
2.7996089931573804
2.766373411534702
2.7223851417399803
2.668621700879765
2.6070381231671558
2.539589442815249
2.4682306940371457
2.3929618768328447
2.315738025415445
2.23069403714565
2.1417399804496577
2.0557184750733137
1.9804496578690127
1.9100684261974583
1.8328445747800584
1.7526881720430108
1.672531769305963
1.5933528836754642
1.5161290322580645
1.4418377321603129
1.370478983382209
1.3020527859237536
1.2365591397849462
1.1749755620723363
1.118279569892473
1.0742913000977516
1.0391006842619743
1.0019550342130987
0.967741935483871
0.9403714565004888
0.9188660801564028
0.906158357771261
0.9012707722385142
0.9032258064516128
0.9120234604105572
0.9266862170087976
0.946236559139785
0.967741935483871
0.9912023460410556
1.0166177908113392
1.0410557184750733
1.0654936461388074
1.088954056695992
1.110459433040078
1.1290322580645162
1.144672531769306
1.1564027370478984
1.166177908113392
1.1730205278592376
1.176930596285435
1.1808406647116323
1.1837732160312806
1.1837732160312806
1.18475073313783
1.1935483870967742
1.2160312805474096
1.262952101661779
1.3391984359726294
1.4486803519061584
1.587487781036168
1.7487781036168133
1.921798631476051
2.074291300097752
2.2082111436950145
2.346041055718475
2.472140762463343
2.5777126099706744
2.659824046920821
2.718475073313783
2.7565982404692084
2.774193548387097
2.774193548387097
2.758553274682307
2.729227761485826
2.689149560117302
2.6451612903225805
2.5972629521016617
2.5405669599217986
2.4780058651026398
2.410557184750733
2.340175953079179
2.2668621700879767
2.190615835777126
2.113391984359726
2.035190615835777
1.9560117302052784
1.87683284457478
1.8084066471163245
1.7458455522971652
1.6774193548387095
1.607038123167155
1.5366568914956011
1.4672531769305963
1.4007820136852396
1.3372434017595307
1.278592375366569
1.224828934506354
1.176930596285435
1.1348973607038124
1.099706744868035
1.0772238514173995
1.0635386119257086
1.053763440860215
1.0488758553274682
1.0488758553274682
1.0547409579667644
1.0664711632453567
1.0821114369501466
1.1016617790811338
1.1221896383186705
1.1436950146627567
1.1652003910068427
1.1857282502443791
1.2043010752688172
1.2209188660801564
1.2365591397849462
1.249266862170088
1.2609970674486803
1.270772238514174
1.278592375366569
1.284457478005865
1.2873900293255132
1.2873900293255132
1.2864125122189638
1.2873900293255132
1.2942326490713587
1.3118279569892473
1.348973607038123
1.4134897360703813
1.5102639296187683
1.640273704789834
1.796676441837732
1.9696969696969695
2.1485826001955037
2.321603128054741
2.4789833822091887
2.613880742913001
2.710654936461388
2.7781036168132944
2.832844574780059
2.870967741935484
2.8905180840664717
2.89345063538612
2.8797653958944283
2.852394916911046
2.8132942326490715
2.764418377321604
2.70772238514174
2.644183773216031
2.576735092864125
2.5112414467253177
2.447702834799609
2.377321603128055
2.303030303030303
2.2267839687194524
2.1495601173020527
2.072336265884653
1.994134897360704
1.916911045943304
1.839687194525904
1.7624633431085044
1.6881720430107527
1.6236559139784943
1.5669599217986314
1.5063538611925709
1.444770283479961
1.3851417399804498
1.3294232649071358
1.278592375366569
1.2336265884652982
1.1964809384164223
1.1681329423264908
1.1485826001955035
1.13880742913001
1.1378299120234605
1.144672531769306
1.1573802541544478
1.1759530791788857
1.1994134897360704
1.224828934506354
1.252199413489736
1.2805474095796676
1.3098729227761483
1.3372434017595307
1.3626588465298142
1.3870967741935485
1.409579667644184
1.4281524926686218
1.444770283479961
1.4594330400782014
1.4721407624633431
1.4819159335288368
1.4887585532746823
1.490713587487781
1.4916911045943304
1.4936461388074291
1.504398826979472
1.5317693059628543
1.58455522971652
1.651026392961877
1.7380254154447703
1.866080156402737
2.0254154447702835
2.204301075268817
2.3870967741935485
2.5610948191593352
2.716520039100684
2.8475073313782997
2.9501466275659824
3.0234604105571847
3.070381231671554
3.09188660801564
3.09188660801564
3.0733137829912023
3.0410557184750733
2.997067448680352
2.9423264907135875
2.878787878787879
2.807429130009776
2.7311827956989245
2.652003910068426
2.5698924731182795
2.4858260019550342
2.401759530791789
2.3255131964809386
2.2531769305962857
2.174975562072336
2.093841642228739
2.010752688172043
1.9266862170087975
1.842619745845552
1.7595307917888563
1.6774193548387095
1.5972629521016617
1.5190615835777126
1.4437927663734116
1.3714565004887584
1.3128054740957966
1.262952101661779
1.2101661779081134
1.1593352883675463
1.1133919843597262
1.0742913000977516
1.0449657869012707
1.0224828934506354
1.0087976539589445
1.0039100684261977
1.0058651026392962
1.0146627565982405
1.029325513196481
1.0478983382209188
1.0694037145650048
1.0918866080156402
1.115347018572825
1.1378299120234605
1.1593352883675463
1.1788856304985338
1.1974584555229717
1.2130987292277615
1.2258064516129032
1.2365591397849462
1.2453567937438903
1.2531769305962854
1.260019550342131
1.2619745845552297
1.278592375366569
1.3020527859237536
1.313782991202346
1.3264907135874875
1.3509286412512218
1.3958944281524928
1.469208211143695
1.5718475073313782
1.7018572825024438
1.83088954056696
1.9589442815249267
2.1055718475073317
2.2531769305962857
2.389051808406647
2.504398826979472
2.5972629521016617
2.665689149560117
2.7116324535679373
2.736070381231672
2.740957966764418
2.730205278592375
2.704789833822092
2.6715542521994133
2.63049853372434
2.581622678396872
2.5249266862170088
2.464320625610948
2.39980449657869
2.332355816226784
2.2629521016617797
2.1915933528836757
2.118279569892473
2.0449657869012707
1.9716520039100685
1.9071358748778104
1.8465298142717497
1.7810361681329423
1.7126099706744868
1.643206256109482
1.5747800586510263
1.5073313782991202
1.4428152492668622
1.380254154447703
1.321603128054741
1.2668621700879763
1.2160312805474096
1.1700879765395895
1.1368523949169111
1.1133919843597262
1.0909090909090908
1.072336265884653
1.0596285434995112
1.053763440860215
1.0547409579667644
1.0635386119257086
1.0772238514173995
1.096774193548387
1.1192570869990224
1.142717497556207
1.166177908113392
1.1886608015640274
1.2111436950146628
1.2316715542521994
1.2512218963831867
1.267839687194526
1.2825024437927663
1.295210166177908
1.3069403714565004
1.3157380254154447
1.3235581622678396
1.3284457478005864
1.3304007820136852
1.332355816226784
1.3343108504398826
1.3362658846529814
1.3470185728250244
1.3724340175953078
1.4213098729227762
1.4975562072336266
1.603128054740958
1.7350928641251222
1.8866080156402736
2.047898338220919
2.206256109481916
2.335288367546432
2.4408602150537635
2.541544477028348
2.625610948191593
2.6901270772238512
2.7331378299120237
2.757575757575758
2.764418377321604
2.7565982404692084
2.735092864125122
2.701857282502444
2.658846529814272
2.6080156402737047
2.555229716520039
2.501466275659824
2.4408602150537635
2.375366568914956
2.3069403714565007
2.2355816226783967
2.163245356793744
2.089931573802541
2.01564027370479
1.9413489736070384
1.866080156402737
1.7927663734115349
1.7302052785923754
1.6735092864125125
1.6109481915933528
1.547409579667644
1.4838709677419355
1.4222873900293256
1.3636363636363635
1.3088954056695992
1.2590420332355816
1.2140762463343109
1.1749755620723363
1.142717497556207
1.121212121212121
1.1085043988269794
1.099706744868035
1.096774193548387
1.099706744868035
1.1085043988269794
1.1221896383186705
1.1407624633431086
1.1622678396871946
1.18475073313783
1.2072336265884651
1.2297165200391007
1.2512218963831867
1.270772238514174
1.2883675464320623
1.3049853372434017
1.3196480938416422
1.332355816226784
1.343108504398827
1.3528836754643203
1.359726295210166
1.364613880742913
1.3665689149560116
1.367546432062561
1.370478983382209
1.3782991202346042
1.3958944281524928
1.4320625610948192
1.4946236559139785
1.5865102639296187
1.7086999022482894
1.8533724340175952
2.013685239491691
2.177908113391984
2.335288367546432
2.47702834799609
2.5972629521016617
2.6940371456500487
2.757575757575758
2.7966764418377323
2.825024437927664
2.8377321603128056
2.834799608993157
2.8181818181818183
2.788856304985337
2.748778103616813
2.699902248289345
2.643206256109482
2.582600195503421
2.5180840664711632
2.4565004887585533
2.396871945259042
2.3304007820136854
2.260019550342131
2.187683284457478
2.114369501466276
2.040078201368524
1.9657869012707725
1.8905180840664717
1.8172043010752688
1.7448680351906158
1.6744868035190617
1.606060606060606
1.5493646138807429
1.499511241446725
1.4467253176930597
1.3949169110459434
1.3450635386119256
1.2991202346041055
1.2590420332355816
1.224828934506354
1.198435972629521
1.1798631476050832
1.1691104594330402
1.1671554252199414
1.1730205278592376
1.18475073313783
1.2013685239491692
1.2209188660801564
1.2443792766373412
1.2688172043010753
1.2942326490713587
1.3186705767350928
1.3421309872922775
1.3636363636363635
1.3841642228739004
1.401759530791789
1.4173998044965788
1.43108504398827
1.4428152492668622
1.4516129032258065
1.457478005865103
1.4604105571847508
1.4604105571847508
1.458455522971652
1.456500488758553
1.4604105571847508
1.47702834799609
1.5151515151515151
1.5796676441837731
1.656891495601173
1.7517106549364614
1.8826979472140764
2.037145650048876
2.201368523949169
2.363636363636364
2.512218963831867
2.6392961876832843
2.7419354838709675
2.8181818181818183
2.8690127077223853
2.8963831867057674
2.902248289345064
2.8914956011730206
2.868035190615836
2.832844574780059
2.7869012707722387
2.732160312805474
2.670576735092864
2.6041055718475072
2.533724340175953
2.4604105571847508
2.3851417399804498
2.3098729227761488
2.233626588465298
2.1652003910068425
2.1006842619745845
2.029325513196481
1.95405669599218
1.8778103616813293
1.801564027370479
1.726295210166178
1.6529814271749756
1.581622678396872
1.5131964809384164
1.439882697947214
1.3655913978494625
1.2991202346041055
1.2473118279569892
1.2052785923753666
1.1622678396871946
1.1221896383186705
1.0879765395894427
1.0606060606060606
1.0420332355816226
1.0312805474095796
1.0283479960899315
1.0332355816226784
1.0439882697947214
1.0596285434995112
1.0791788856304985
1.099706744868035
1.1221896383186705
1.1436950146627567
1.166177908113392
1.1867057673509287
1.206256109481916
1.2228739002932552
1.2375366568914956
1.249266862170088
1.2590420332355816
1.2658846529814272
1.270772238514174
1.2746823069403714
1.2766373411534702
1.2746823069403714
1.2697947214076246
1.2639296187683284
1.2639296187683284
1.2766373411534702
1.3098729227761483
1.3714565004887584
1.4652981427174976
1.590420332355816
1.7419354838709675
1.8856304985337244
2.024437927663734
2.177908113391984
2.326490713587488
2.4594330400782014
2.570869990224829
2.656891495601173
2.718475073313783
2.7565982404692084
2.774193548387097
2.7722385141739982
2.7546432062561097
2.7233626588465296
2.6852394916911044
2.6402737047898337
2.587487781036168
2.5288367546432062
2.464320625610948
2.3958944281524928
2.3255131964809386
2.2521994134897363
2.176930596285435
2.1006842619745845
2.0234604105571847
1.945259042033236
1.8778103616813293
1.81524926686217
1.7468230694037146
1.6764418377321604
1.606060606060606
1.5366568914956011
1.4682306940371457
1.401759530791789
1.33822091886608
1.2795698924731185
1.224828934506354
1.176930596285435
1.1348973607038124
1.104594330400782
1.0840664711632453
1.0664711632453567
1.0547409579667644
1.0488758553274682
1.050830889540567
1.0586510263929618
1.0733137829912025
1.0928641251221896
1.115347018572825
1.1397849462365592
1.1652003910068427
1.1886608015640274
1.2111436950146628
1.2326490713587488
1.252199413489736
1.2697947214076246
1.2864125122189638
1.300097751710655
1.310850439882698
1.3196480938416422
1.3255131964809383
1.3284457478005864
1.3284457478005864
1.3284457478005864
1.3284457478005864
1.3284457478005864
1.335288367546432
1.356793743890518
1.4007820136852396
1.474095796676442
1.5777126099706744
1.710654936461388
1.866080156402737
2.034213098729228
2.2023460410557183
2.360703812316716
2.484848484848485
2.581622678396872
2.6695992179863146
2.740957966764418
2.790811339198436
2.820136852394917
2.8299120234604107
2.822091886608016
2.80058651026393
2.766373411534702
2.7223851417399803
2.6695992179863146
2.6148582600195502
2.557184750733138
2.49266862170088
2.423264907135875
2.350928641251222
2.275659824046921
2.19941348973607
2.121212121212121
2.043010752688172
1.964809384164223
1.8866080156402736
1.8084066471163245
1.7311827956989247
1.6656891495601174
1.607038123167155
1.542521994134897
1.47702834799609
1.412512218963832
1.3499511241446724
1.2913000977517106
1.2365591397849462
1.1886608015640274
1.147605083088954
1.1133919843597262
1.0879765395894427
1.0733137829912025
1.0684261974584557
1.0684261974584557
1.0742913000977516
1.0869990224828934
1.1055718475073313
1.1280547409579669
1.152492668621701
1.1788856304985338
1.2052785923753666
1.23069403714565
1.2541544477028348
1.2756598240469208
1.295210166177908
1.3128054740957966
1.3284457478005864
1.3421309872922775
1.35386119257087
1.3626588465298142
1.3695014662756595
1.3724340175953078
1.3724340175953078
1.3714565004887584
1.3724340175953078
1.3822091886608017
1.401759530791789
1.436950146627566
1.500488758553275
1.5962854349951123
1.7233626588465298
1.8778103616813293
2.048875855327468
2.2238514173998043
2.3919843597262958
2.544477028347996
2.675464320625611
2.780058651026393
2.859237536656892
2.906158357771261
2.929618768328446
2.9393939393939394
2.9345063538611926
2.9159335288367547
