ppg
2.9159335288367547
2.943304007820137
2.962854349951124
2.9696969696969697
2.967741935483871
2.961876832844575
2.949169110459433
2.927663734115347
2.895405669599218
2.852394916911046
2.7996089931573804
2.7370478983382207
2.6666666666666665
2.593352883675464
2.5180840664711632
2.443792766373412
2.378299120234604
2.320625610948192
2.264907135874878
2.2130987292277613
2.167155425219941
2.126099706744868
2.088954056695992
2.053763440860215
2.018572825024438
1.9833822091886608
1.9472140762463344
1.9090909090909087
1.873900293255132
1.8406647116324533
1.8035190615835777
1.7634408602150538
1.7233626588465298
1.6842619745845553
1.64613880742913
1.6080156402737047
1.5718475073313782
1.5366568914956011
1.5034213098729228
1.4731182795698925
1.444770283479961
1.423264907135875
1.4056695992179864
1.3870967741935485
1.3665689149560116
1.3470185728250244
1.327468230694037
1.3088954056695992
1.2913000977517106
1.2746823069403714
1.2580645161290325
1.2424242424242424
1.227761485826002
1.217008797653959
1.2072336265884651
1.1964809384164223
1.1857282502443791
1.1749755620723363
1.164222873900293
1.1544477028347997
1.144672531769306
1.1348973607038124
1.126099706744868
1.118279569892473
1.110459433040078
1.1026392961876832
1.0987292277614855
1.096774193548387
1.0918866080156402
1.086021505376344
1.0791788856304985
1.0742913000977516
1.0694037145650048
1.0654936461388074
1.06158357771261
1.0586510263929618
1.0557184750733135
1.0527859237536656
1.0518084066471165
1.053763440860215
1.053763440860215
1.0527859237536656
1.0518084066471165
1.0518084066471165
1.0518084066471165
1.0518084066471165
1.0518084066471165
1.0518084066471165
1.0518084066471165
1.0527859237536656
1.0547409579667644
1.0606060606060606
1.0713587487781036
1.0909090909090908
1.1251221896383188
1.1788856304985338
1.2570869990224829
1.3616813294232648
1.490713587487781
1.640273704789834
1.8054740957966764
1.9765395894428155
2.144672531769306
2.281524926686217
2.3958944281524928
2.5102639296187683
2.613880742913001
2.701857282502444
2.774193548387097
2.832844574780059
2.8797653958944283
2.9159335288367547
2.943304007820137
2.962854349951124
2.9745845552297165
2.978494623655914
2.970674486803519
2.952101661779081
2.9266862170087977
2.89247311827957
2.8475073313782997
2.791788856304985
2.727272727272727
2.6559139784946235
2.5806451612903225
2.5034213098729228
2.4271749755620724
2.356793743890518
2.2961876832844577
2.2453567937438903
2.1974584555229715
2.15347018572825
2.115347018572825
2.080156402737048
2.046920821114369
2.0127077223851417
1.9765395894428155
1.9393939393939397
1.900293255131965
1.8602150537634408
1.8191593352883677
1.7820136852394917
1.747800586510264
1.710654936461388
1.672531769305963
1.635386119257087
1.598240469208211
1.5620723362658846
1.5288367546432062
1.4965786901270772
1.4643206256109482
1.4330400782013686
1.4056695992179864
1.3841642228739004
1.3655913978494625
1.346041055718475
1.327468230694037
1.3088954056695992
1.2913000977517106
1.2746823069403714
1.2590420332355816
1.2434017595307918
1.2297165200391007
1.2150537634408602
1.2003910068426198
1.1896383186705768
1.181818181818182
1.1720430107526882
1.1612903225806452
1.1505376344086022
1.13880742913001
1.1270772238514175
1.115347018572825
1.104594330400782
1.0948191593352885
1.0850439882697946
1.075268817204301
1.0664711632453567
1.06158357771261
1.0586510263929618
1.053763440860215
1.0469208211143697
1.040078201368524
1.0332355816226784
1.0254154447702837
1.018572825024438
1.0127077223851415
1.007820136852395
1.002932551319648
1.0
1.0009775171065494
1.002932551319648
1.002932551319648
1.0019550342130987
1.0009775171065494
1.0009775171065494
1.0009775171065494
1.0009775171065494
1.0009775171065494
1.0009775171065494
1.0009775171065494
1.0009775171065494
1.0039100684261977
1.010752688172043
1.0254154447702837
1.0498533724340176
1.0899315738025417
1.1505376344086022
1.2346041055718475
1.3440860215053765
1.4760508308895406
1.6256109481915937
1.7869012707722385
1.951124144672532
2.110459433040078
2.239491691104594
2.347018572825025
2.452590420332356
2.547409579667644
2.625610948191593
2.6881720430107525
2.736070381231672
2.7702834799608995
2.7947214076246336
2.8103616813294234
2.817204301075269
2.81622678396872
2.8054740957966766
2.78494623655914
2.755620723362659
2.717497556207233
2.668621700879765
2.608993157380254
2.5405669599217986
2.4672531769305963
2.3929618768328447
2.3196480938416424
2.2502443792766376
2.188660801564027
2.134897360703812
2.09188660801564
2.056695992179863
2.024437927663734
1.9951124144672527
1.9667644183773216
1.9393939393939397
1.911045943304008
1.8797653958944285
1.8465298142717497
1.8113391984359728
1.7741935483870968
1.7360703812316716
1.696969696969697
1.6627565982404693
1.6314760508308896
1.5972629521016617
1.5620723362658846
1.5268817204301075
1.4916911045943304
1.458455522971652
1.4281524926686218
1.4007820136852396
1.375366568914956
1.3519061583577712
1.3304007820136852
1.313782991202346
1.300097751710655
1.2854349951124144
1.2697947214076246
1.2541544477028348
1.2394916911045943
1.2267839687194526
1.2150537634408602
1.203323558162268
1.1915933528836755
1.1808406647116323
1.1710654936461389
1.1612903225806452
1.155425219941349
1.1505376344086022
1.1436950146627567
1.1358748778103618
1.1280547409579669
1.1202346041055715
1.1133919843597262
1.1065493646138806
1.0987292277614855
1.0918866080156402
1.0850439882697946
1.078201368523949
1.075268817204301
1.0742913000977516
1.0713587487781036
1.0664711632453567
1.0606060606060606
1.0547409579667644
1.0498533724340176
1.04594330400782
1.0420332355816226
1.0391006842619743
1.0371456500488758
1.035190615835777
1.035190615835777
1.0381231671554252
1.043010752688172
1.0449657869012707
1.04594330400782
1.0469208211143697
1.0488758553274682
1.0518084066471165
1.0576735092864125
1.0703812316715542
1.0948191593352885
1.1378299120234605
1.203323558162268
1.278592375366569
1.3685239491691104
1.4916911045943304
1.640273704789834
1.8054740957966764
1.978494623655914
2.1485826001955037
2.3098729227761488
2.4565004887585533
2.58455522971652
2.6930596285435
2.7810361681329425
2.8514173998044967
2.898338220918866
2.930596285434995
2.960899315738025
2.9872922776148583
3.0087976539589443
3.0234604105571847
3.0303030303030303
3.0283479960899315
3.0175953079178885
2.9960899315738025
2.961876832844575
2.9159335288367547
2.863147605083089
2.803519061583578
2.7331378299120237
2.654936461388074
2.5747800586510263
2.495601173020528
2.419354838709677
2.3499511241446727
2.2873900293255134
2.231671554252199
2.182795698924731
2.139784946236559
2.101661779081134
2.0684261974584555
2.038123167155425
2.004887585532747
1.9696969696969695
1.932551319648094
1.8934506353861196
1.8514173998044965
1.8093841642228736
1.7663734115347018
1.7243401759530792
1.683284457478006
1.6441837732160314
1.6099706744868034
1.5796676441837731
1.547409579667644
1.5151515151515151
1.482893450635386
1.452590420332356
1.423264907135875
1.3958944281524928
1.370478983382209
1.3470185728250244
1.3235581622678396
1.3020527859237536
1.2805474095796676
1.2649071358748778
1.252199413489736
1.2375366568914956
1.2228739002932552
1.2082111436950147
1.1935483870967742
1.1798631476050832
1.1671554252199414
1.1534701857282503
1.1407624633431086
1.1300097751710656
1.1192570869990224
1.1133919843597262
1.1094819159335287
1.104594330400782
1.0977517106549364
1.0909090909090908
1.0821114369501466
1.072336265884653
1.0635386119257086
1.0557184750733135
1.0478983382209188
1.0410557184750733
1.035190615835777
1.032258064516129
1.032258064516129
1.032258064516129
1.0303030303030305
1.0273704789833822
1.024437927663734
1.021505376344086
1.018572825024438
1.0156402737047898
1.0127077223851415
1.0117302052785924
1.0117302052785924
1.0127077223851415
1.0166177908113392
1.021505376344086
1.0234604105571847
1.024437927663734
1.0254154447702837
1.0283479960899315
1.0371456500488758
1.056695992179863
1.0909090909090908
1.1436950146627567
1.219941348973607
1.3225806451612905
1.43108504398827
1.5483870967741935
1.6950146627565983
1.858260019550342
2.026392961876833
2.190615835777126
2.3421309872922778
2.4760508308895406
2.591397849462365
2.686217008797654
2.763440860215054
2.8240469208211145
2.870967741935484
2.8993157380254155
2.916911045943304
2.9345063538611926
2.949169110459433
2.9579667644183774
2.959921798631476
2.95405669599218
2.9374389051808407
2.9100684261974585
2.870967741935484
2.8211143695014664
2.760508308895406
2.696969696969697
2.63049853372434
2.557184750733138
2.4809384164222874
2.404692082111437
2.332355816226784
2.2668621700879767
2.2082111436950145
2.156402737047898
2.1094819159335287
2.067448680351906
2.027370478983382
1.988269794721408
1.95405669599218
1.920821114369501
1.884652981427175
1.847507331378299
1.8093841642228736
1.7702834799608993
1.732160312805474
1.694037145650049
1.656891495601173
1.6207233626588464
1.585532746823069
1.5513196480938416
1.521994134897361
1.4965786901270772
1.469208211143695
1.4408602150537635
1.412512218963832
1.3851417399804498
1.3577712609970674
1.3313782991202343
1.305962854349951
1.2825024437927663
1.2609970674486803
1.241446725317693
1.2238514173998043
1.2111436950146628
1.2013685239491692
1.1896383186705768
1.1759530791788857
1.1622678396871946
1.1485826001955035
1.1358748778103618
1.1231671554252198
1.1124144672531768
1.1026392961876832
1.0928641251221896
1.0850439882697946
1.0801564027370478
1.0772238514173995
1.0713587487781036
1.0635386119257086
1.056695992179863
1.0498533724340176
1.043010752688172
1.0361681329423265
1.029325513196481
1.0224828934506354
1.0146627565982405
1.007820136852395
1.0
0.9960899315738024
0.9951124144672532
0.9921798631476052
0.989247311827957
0.9853372434017597
0.9824046920821116
0.9804496578690128
0.9794721407624634
0.9794721407624634
0.9794721407624634
0.9794721407624634
0.9794721407624634
0.9824046920821116
0.9872922776148584
0.9931573802541545
1.002932551319648
1.021505376344086
1.053763440860215
1.1055718475073313
1.1798631476050832
1.2795698924731185
1.4056695992179864
1.5532746823069403
1.7165200391006843
1.8885630498533723
2.038123167155425
2.1710654936461387
2.310850439882698
2.442815249266862
2.5591397849462365
2.6578690127077222
2.7390029325513194
2.8044965786901277
2.855327468230694
2.8963831867057674
2.9286412512218964
2.95405669599218
2.967741935483871
2.972629521016618
2.975562072336266
2.972629521016618
2.961876832844575
2.941348973607038
2.9100684261974585
2.866080156402737
2.811339198435973
2.7468230694037143
2.673509286412512
2.595307917888563
2.515151515151515
2.443792766373412
2.378299120234604
2.312805474095797
2.2521994134897363
2.1974584555229715
2.1485826001955037
2.104594330400782
2.064516129032258
2.026392961876833
1.988269794721408
1.951124144672532
1.913978494623656
1.8797653958944285
1.8465298142717497
1.8093841642228736
1.7702834799608993
1.729227761485826
1.6871945259042034
1.64613880742913
1.607038123167155
1.56891495601173
1.5317693059628543
1.4975562072336266
1.4652981427174976
1.4349951124144673
1.4105571847507332
1.3890518084066472
1.3665689149560116
1.3440860215053765
1.3225806451612905
1.3010752688172045
1.281524926686217
1.2639296187683284
1.2473118279569892
1.23069403714565
1.2130987292277615
1.1964809384164223
1.18475073313783
1.1759530791788857
1.1652003910068427
1.1534701857282503
1.1407624633431086
1.1290322580645162
1.118279569892473
1.10752688172043
1.096774193548387
1.086021505376344
1.0762463343108504
1.0664711632453567
1.06158357771261
1.0586510263929618
1.0527859237536656
1.0469208211143697
1.040078201368524
1.0332355816226784
1.0263929618768328
1.0195503421309873
1.0127077223851415
1.0068426197458455
1.0009775171065494
0.9960899315738024
0.9921798631476052
0.9912023460410556
0.9921798631476052
0.9912023460410556
0.9902248289345064
0.9902248289345064
0.9902248289345064
0.9902248289345064
0.9902248289345064
0.9902248289345064
0.9912023460410556
0.9921798631476052
0.9951124144672532
1.0009775171065494
1.0117302052785924
1.029325513196481
1.0596285434995112
1.1085043988269794
1.1788856304985338
1.2756598240469208
1.3988269794721409
1.544477028347996
1.7067448680351909
1.8778103616813293
2.048875855327468
2.212121212121212
2.3421309872922778
2.447702834799609
2.5513196480938416
2.644183773216031
2.7233626588465296
2.788856304985337
2.8426197458455524
2.8856304985337244
2.919843597262952
2.945259042033236
2.9657869012707723
2.9804496578690127
2.981427174975562
2.9716520039100685
2.956989247311828
2.9345063538611926
2.902248289345064
2.8582600195503423
2.803519061583578
2.73802541544477
2.664711632453568
2.5865102639296187
2.506353861192571
2.4271749755620724
2.3519061583577714
2.2873900293255134
2.231671554252199
2.176930596285435
2.1270772238514173
2.0821114369501466
2.040078201368524
1.9990224828934504
1.959921798631476
1.9227761485826005
1.8856304985337244
1.847507331378299
1.8093841642228736
1.7761485826001957
1.7458455522971652
1.7116324535679377
1.675464320625611
1.6383186705767352
1.6021505376344083
1.565982404692082
1.530791788856305
1.4975562072336266
1.466275659824047
1.435972629521017
1.4076246334310851
1.3822091886608017
1.3616813294232648
1.3450635386119256
1.3255131964809383
1.3049853372434017
1.2854349951124144
1.2658846529814272
1.2473118279569892
1.23069403714565
1.2150537634408602
1.1994134897360704
1.1837732160312806
1.1671554252199414
1.155425219941349
1.1466275659824048
1.1358748778103618
1.1241446725317692
1.1124144672531768
1.1016617790811338
1.0909090909090908
1.0811339198435972
1.0713587487781036
1.0625610948191593
1.0557184750733135
1.0488758553274682
1.043010752688172
1.040078201368524
1.0391006842619743
1.0361681329423265
1.0303030303030305
1.024437927663734
1.0175953079178883
1.0117302052785924
1.0068426197458455
1.002932551319648
0.9990224828934506
0.9951124144672532
0.9921798631476052
0.9931573802541545
0.997067448680352
0.9990224828934506
1.0
1.0
1.0009775171065494
1.0019550342130987
1.0048875855327468
1.007820136852395
1.010752688172043
1.013685239491691
1.0175953079178883
1.0254154447702837
1.0391006842619743
1.0625610948191593
1.1016617790811338
1.160312805474096
1.2443792766373412
1.3528836754643203
1.4838709677419355
1.6334310850439884
1.793743890518084
1.956989247311828
2.115347018572825
2.26197458455523
2.377321603128055
2.469208211143695
2.557184750733138
2.633431085043988
2.6959921798631474
2.745845552297165
2.78494623655914
2.8132942326490715
2.834799608993157
2.8484848484848486
2.854349951124145
2.8514173998044967
2.838709677419355
2.8152492668621703
2.782991202346041
2.739980449657869
2.6852394916911044
2.6207233626588464
2.548387096774193
2.472140762463343
2.3949169110459434
2.320625610948192
2.2521994134897363
2.1925708699902247
2.1436950146627565
2.1055718475073317
2.075268817204301
2.048875855327468
2.024437927663734
2.0
1.9745845552297163
1.946236559139785
1.9149560117302051
1.8807429130009776
1.8455522971652003
1.8103616813294232
1.7741935483870968
1.737047898338221
1.7057673509286413
1.6764418377321604
1.6451612903225807
1.6129032258064515
1.5806451612903225
1.5483870967741935
1.517106549364614
1.4887585532746823
1.4613880742913
1.435972629521017
1.412512218963832
1.3919843597262953
1.3763440860215057
1.3626588465298142
1.3470185728250244
1.3304007820136852
1.313782991202346
1.2971652003910068
1.2805474095796676
1.2649071358748778
1.2502443792766371
1.2346041055718475
1.2179863147605083
1.2013685239491692
1.1837732160312806
1.1691104594330402
1.1564027370478984
1.13880742913001
1.1173020527859236
1.093841642228739
1.0694037145650048
1.0439882697947214
1.018572825024438
0.9931573802541545
0.9687194525904204
0.9452590420332356
0.9217986314760508
0.9042033235581622
0.8905180840664711
0.8719452590420332
0.8504398826979472
0.8279569892473119
0.8035190615835777
0.7790811339198436
0.7546432062561095
0.7302052785923754
0.7067448680351907
0.6832844574780058
0.6617790811339198
0.6471163245356794
0.6363636363636364
0.6207233626588465
0.603128054740958
0.5855327468230694
0.5689149560117303
0.5532746823069403
0.5405669599217986
0.533724340175953
0.5376344086021505
0.5581622678396871
0.6001955034213099
0.6705767350928641
0.7536656891495601
0.8533724340175953
0.9853372434017597
1.1397849462365592
1.3098729227761483
1.482893450635386
1.651026392961877
1.8064516129032255
1.945259042033236
2.065493646138808
2.166177908113392
2.2502443792766376
2.310850439882698
2.355816226783969
2.398826979472141
2.436950146627566
2.4682306940371457
2.49266862170088
2.5102639296187683
2.5190615835777126
2.5180840664711632
2.506353861192571
2.4819159335288368
2.444770283479961
2.3958944281524928
2.343108504398827
2.2854349951124147
2.2170087976539588
2.142717497556207
2.0664711632453567
1.992179863147605
1.920821114369501
1.855327468230694
1.796676441837732
1.7458455522971652
1.7028347996089932
1.664711632453568
1.6334310850439884
1.606060606060606
1.5757575757575757
1.543499511241447
1.509286412512219
1.4731182795698925
1.435972629521017
1.3978494623655917
1.359726295210166
1.321603128054741
1.2825024437927663
1.2434017595307918
1.203323558162268
1.1700879765395895
1.1407624633431086
1.1065493646138806
1.072336265884653
1.1358748778103618
1.2502443792766371
1.2971652003910068
1.310850439882698
1.3088954056695992
1.3010752688172045
1.2903225806451613
1.278592375366569
1.2717497556207231
1.2668621700879763
1.260019550342131
1.252199413489736
1.2453567937438903
1.2375366568914956
1.2297165200391007
1.2228739002932552
1.2150537634408602
1.2082111436950147
1.2013685239491692
1.195503421309873
1.1896383186705768
1.1867057673509287
1.1867057673509287
1.1837732160312806
1.1798631476050832
1.176930596285435
1.173998044965787
1.1700879765395895
1.166177908113392
1.1612903225806452
1.1573802541544478
1.1534701857282503
1.1485826001955035
1.147605083088954
1.1485826001955035
1.147605083088954
1.144672531769306
1.1407624633431086
1.1378299120234605
1.1358748778103618
1.133919843597263
1.1319648093841643
1.1300097751710656
1.1280547409579669
1.1270772238514175
1.1270772238514175
1.1300097751710656
1.133919843597263
1.1358748778103618
1.1397849462365592
1.1505376344086022
1.1700879765395895
1.2023460410557183
1.252199413489736
1.3225806451612905
1.414467253176931
1.5278592375366569
1.6598240469208212
1.7839687194525904
1.9042033235581624
2.0410557184750733
2.1788856304985336
2.3088954056695994
2.4271749755620724
2.529814271749756
2.6158357771261
2.686217008797654
2.742913000977517
2.788856304985337
2.825024437927664
2.854349951124145
2.8719452590420333
2.881720430107527
2.889540566959922
2.89345063538612
2.89247311827957
2.884652981427175
2.8690127077223853
2.8455522971652005
2.812316715542522
2.7702834799608995
2.719452590420332
2.662756598240469
2.6070381231671558
2.5532746823069403
2.495601173020528
2.4389051808406648
2.386119257086999
2.3391984359726297
2.297165200391007
2.260019550342131
2.2277614858260018
2.198435972629521
2.172043010752688
2.147605083088954
2.12316715542522
2.1006842619745845
2.078201368523949
2.0518084066471163
2.022482893450636
1.991202346041056
1.9589442815249267
1.9257086999022484
1.8934506353861196
1.86119257086999
1.8299120234604105
1.7996089931573802
1.7712609970674489
1.747800586510264
1.7282502443792769
1.7067448680351909
1.6852394916911049
1.6637341153470186
1.6441837732160314
1.6265884652981428
1.6109481915933528
1.5972629521016617
1.58455522971652
1.5728250244379276
1.5620723362658846
1.552297165200391
1.5464320625610948
1.541544477028348
1.5356793743890518
1.5288367546432062
1.521994134897361
1.5151515151515151
1.5073313782991202
1.500488758553275
1.4946236559139785
1.4887585532746823
1.482893450635386
1.47702834799609
1.474095796676442
1.4721407624633431
1.4672531769305963
1.4613880742913
1.4535679374389052
1.444770283479961
1.4349951124144673
1.4252199413489737
1.41544477028348
1.4076246334310851
1.4007820136852396
1.3949169110459434
1.391006842619746
1.3900293255131966
1.3919843597262953
1.392961876832845
1.393939393939394
1.3949169110459434
1.396871945259042
1.3988269794721409
1.401759530791789
1.4037145650048877
1.4056695992179864
1.4076246334310851
1.409579667644184
1.414467253176931
1.423264907135875
1.436950146627566
1.4604105571847508
1.499511241446725
1.5581622678396871
1.6383186705767352
1.739980449657869
1.8602150537634408
1.994134897360704
2.134897360703812
2.275659824046921
2.3929618768328447
2.490713587487781
2.5884652981427174
2.675464320625611
2.7497556207233624
2.809384164222874
2.857282502443793
2.89345063538612
2.921798631476051
2.943304007820137
2.9589442815249267
2.9687194525904204
2.973607038123167
2.9696969696969697
2.9579667644183774
2.9423264907135875
2.918866080156403
2.887585532746823
2.8475073313782997
2.798631476050831
2.742913000977517
2.681329423264907
2.6177908113391983
2.5532746823069403
2.4916911045943304
2.4389051808406648
2.393939393939394
2.3499511241446727
2.3098729227761488
2.274682306940372
2.241446725317693
2.2111436950146626
2.1818181818181817
2.1524926686217007
2.1221896383186705
2.090909090909091
2.058651026392962
2.0254154447702835
1.9960899315738023
1.9687194525904204
1.9374389051808407
1.906158357771261
1.873900293255132
1.842619745845552
1.8113391984359728
1.7820136852394917
1.7546432062561097
1.7282502443792769
1.7028347996089932
1.678396871945259
1.6588465298142718
1.6412512218963833
1.6217008797653958
1.6021505376344083
1.5835777126099706
1.5650048875855327
1.5483870967741935
1.5317693059628543
1.5151515151515151
1.499511241446725
1.4848484848484849
1.4701857282502444
1.456500488758553
1.4467253176930597
1.4408602150537635
1.4320625610948192
1.4222873900293256
1.412512218963832
1.4027370478983383
1.392961876832845
1.3841642228739004
1.375366568914956
1.3665689149560116
1.359726295210166
1.35386119257087
1.3519061583577712
1.3509286412512218
1.348973607038123
1.3450635386119256
1.3411534701857282
1.33822091886608
1.3362658846529814
1.3343108504398826
1.3333333333333333
1.3313782991202343
1.3304007820136852
1.3010752688172045
1.2580645161290325
1.238514173998045
1.23069403714565
1.2258064516129032
1.2238514173998043
1.2238514173998043
1.2258064516129032
1.2287390029325511
1.2326490713587488
1.2375366568914956
1.2424242424242424
1.24633431085044
1.252199413489736
1.2609970674486803
1.2756598240469208
1.300097751710655
1.3391984359726294
1.3988269794721409
1.4809384164222874
1.5865102639296187
1.7126099706744868
1.855327468230694
2.006842619745845
2.1593352883675463
2.3059628543499517
2.4408602150537635
2.5464320625610948
2.6295210166177907
2.708699902248289
2.776148582600196
2.83088954056696
2.8729227761485827
2.9042033235581624
2.9266862170087977
2.940371456500489
2.9472140762463344
2.946236559139785
2.936461388074292
2.918866080156403
2.8914956011730206
2.855327468230694
2.8103616813294234
2.755620723362659
2.6930596285435
2.625610948191593
2.557184750733138
2.490713587487781
2.4281524926686218
2.372434017595308
2.3255131964809386
2.286412512218964
2.2561094819159337
2.23069403714565
2.2082111436950145
2.187683284457478
2.166177908113392
2.1436950146627565
2.1192570869990224
2.0928641251221896
2.064516129032258
2.034213098729228
2.0019550342130987
1.9687194525904204
1.93841642228739
1.9100684261974583
1.8797653958944285
1.8494623655913975
1.8201368523949168
1.7917888563049853
1.7653958944281525
1.739980449657869
1.7165200391006843
1.6959921798631477
1.6774193548387095
1.6608015640273706
