ppg
1.6588465298142718
1.656891495601173
1.6529814271749756
1.6451612903225807
1.6344086021505375
1.6236559139784943
1.6109481915933528
1.595307917888563
1.5757575757575757
1.552297165200391
1.5239491691104594
1.4946236559139785
1.466275659824047
1.4437927663734116
1.4242424242424243
1.3978494623655917
1.364613880742913
1.3313782991202343
1.305962854349951
1.2991202346041055
1.3235581622678396
1.3919843597262953
1.5073313782991202
1.667644183773216
1.8592375366568916
2.037145650048876
2.19941348973607
2.364613880742913
2.5034213098729228
2.6021505376344085
2.658846529814272
2.677419354838709
2.665689149560117
2.632453567937439
2.5835777126099706
2.5268817204301075
2.4682306940371457
2.410557184750733
2.3626588465298144
2.320625610948192
2.27761485826002
2.2346041055718477
2.1955034213098727
2.158357771260997
2.120234604105572
2.080156402737048
2.037145650048876
1.992179863147605
1.943304007820137
1.8914956011730208
1.8465298142717497
1.8074291300097751
1.7673509286412512
1.7302052785923754
1.699902248289345
1.678396871945259
1.6637341153470186
1.6549364613880744
1.6520039100684265
1.6529814271749756
1.653958944281525
1.6529814271749756
1.651026392961877
1.6480938416422288
1.6451612903225807
1.640273704789834
1.6314760508308896
1.6187683284457477
1.6011730205278591
1.5806451612903225
1.555229716520039
1.5268817204301075
1.498533724340176
1.4701857282502444
1.4428152492668622
1.4203323558162269
1.3978494623655917
1.3558162267839686
1.3147605083088951
1.2854349951124144
1.2609970674486803
1.2561094819159335
1.2834799608993157
1.3548387096774193
1.474095796676442
1.6392961876832846
1.8347996089931573
2.016617790811339
2.1808406647116323
2.3440860215053765
2.4809384164222874
2.579667644183773
2.636363636363636
2.653958944281525
2.6402737047898337
2.6041055718475072
2.5542521994134897
2.495601173020528
2.4330400782013686
2.372434017595308
2.321603128054741
2.27761485826002
2.233626588465298
2.190615835777126
2.1495601173020527
2.1094819159335287
2.067448680351906
2.022482893450636
1.978494623655914
1.932551319648094
1.8826979472140764
1.833822091886608
1.793743890518084
1.7605083088954057
1.726295210166178
1.6959921798631477
1.6695992179863148
1.651026392961877
1.640273704789834
1.6344086021505375
1.6314760508308896
1.6304985337243405
1.629521016617791
1.629521016617791
1.629521016617791
1.629521016617791
1.6265884652981428
1.619745845552297
1.6080156402737047
1.590420332355816
1.5708699902248289
1.5493646138807429
1.5278592375366569
1.5063538611925709
1.4838709677419355
1.4604105571847508
1.4349951124144673
1.412512218963832
1.3890518084066472
1.3548387096774193
1.313782991202346
1.2727272727272727
1.2404692082111437
1.2316715542521994
1.2580645161290325
1.3313782991202343
1.4535679374389052
1.6207233626588464
1.8201368523949168
2.0332355816226784
2.2130987292277613
2.3597262952101663
2.489736070381232
2.58455522971652
2.6402737047898337
2.6578690127077222
2.6422287390029324
2.6021505376344085
2.547409579667644
2.4838709677419355
2.418377321603128
2.356793743890518
2.304007820136853
2.2551319648093844
2.207233626588465
2.164222873900293
2.124144672531769
2.086021505376344
2.047898338220919
1.9960899315738023
1.948191593352884
1.9120234604105573
1.869012707722385
1.822091886608016
1.7741935483870968
1.732160312805474
1.6959921798631477
1.6608015640273706
1.6304985337243405
1.607038123167155
1.5913978494623655
1.5826001955034212
1.5777126099706744
1.576735092864125
1.5777126099706744
1.5884652981427174
1.6050830889540566
1.6129032258064515
1.6109481915933528
1.6050830889540566
1.5992179863147604
1.5894428152492668
1.56891495601173
1.5483870967741935
1.530791788856305
1.5083088954056696
1.4760508308895406
1.4389051808406648
1.4134897360703813
1.392961876832845
1.3665689149560116
1.3362658846529814
1.3128054740957966
1.2883675464320623
1.2697947214076246
1.2825024437927663
1.335288367546432
1.436950146627566
1.585532746823069
1.7135874877810362
1.8875855327468232
2.1065493646138806
2.27761485826002
2.429130009775171
2.5464320625610948
2.619745845552297
2.653958944281525
2.653958944281525
2.6265884652981426
2.598240469208211
2.549364613880743
2.474095796676442
2.4056695992179864
2.3440860215053765
2.291300097751711
2.2453567937438903
2.201368523949169
2.160312805474096
2.120234604105572
2.078201368523949
2.034213098729228
1.989247311827957
1.9423264907135875
1.8944281524926687
1.8504398826979471
1.8084066471163245
1.7741935483870968
1.7429130009775171
1.7116324535679377
1.6871945259042034
1.667644183773216
1.6549364613880744
1.6500488758553276
1.6520039100684265
1.6578690127077225
1.6656891495601174
1.6695992179863148
1.6695992179863148
1.6695992179863148
1.6695992179863148
1.6666666666666667
1.6598240469208212
1.6480938416422288
1.6314760508308896
1.6109481915933528
1.585532746823069
1.5562072336265884
1.5278592375366569
1.5024437927663734
1.47702834799609
1.4506353861192571
1.4281524926686218
1.4027370478983383
1.3685239491691104
1.3304007820136852
1.2961876832844574
1.2766373411534702
1.2854349951124144
1.3372434017595307
1.4379276637341154
1.585532746823069
1.772238514173998
1.981427174975562
2.190615835777126
2.360703812316716
2.490713587487781
2.60019550342131
2.6725317693059627
2.704789833822092
2.701857282502444
2.6715542521994133
2.619745845552297
2.557184750733138
2.49266862170088
2.43108504398827
2.3743890518084068
2.326490713587488
2.2844574780058653
2.243401759530792
2.203323558162268
2.1622678396871944
2.118279569892473
2.0733137829912023
2.0283479960899315
1.9824046920821117
1.9335288367546437
1.8826979472140764
1.835777126099707
1.7986314760508308
1.7663734115347018
1.7331378299120237
1.7057673509286413
1.686217008797654
1.675464320625611
1.6715542521994136
1.672531769305963
1.675464320625611
1.6793743890518085
1.683284457478006
1.683284457478006
1.6813294232649072
1.678396871945259
1.675464320625611
1.6695992179863148
1.66177908113392
1.6490713587487782
1.632453567937439
1.6129032258064515
1.5923753665689149
1.5708699902248289
1.5464320625610948
1.5190615835777126
1.4897360703812317
1.4643206256109482
1.4389051808406648
1.4056695992179864
1.3685239491691104
1.3333333333333333
1.3098729227761483
1.310850439882698
1.3479960899315735
1.4330400782013686
1.5669599217986314
1.7429130009775171
1.946236559139785
2.156402737047898
2.3313782991202348
2.469208211143695
2.589442815249267
2.6715542521994133
2.7116324535679373
2.7145650048875853
2.6901270772238512
2.643206256109482
2.582600195503421
2.5161290322580645
2.4486803519061584
2.3851417399804498
2.3313782991202348
2.283479960899316
2.2375366568914954
2.1945259042033234
2.1544477028347995
2.114369501466276
2.074291300097752
2.032258064516129
1.988269794721408
1.943304007820137
1.8973607038123168
1.8523949169110456
1.8093841642228736
1.7741935483870968
1.7458455522971652
1.7174975562072337
1.6920821114369502
1.672531769305963
1.6608015640273706
1.6549364613880744
1.6529814271749756
1.6559139784946235
1.66177908113392
1.667644183773216
1.6705767350928642
1.6705767350928642
1.6705767350928642
1.6686217008797657
1.6637341153470186
1.6549364613880744
1.640273704789834
1.619745845552297
1.5923753665689149
1.5620723362658846
1.5317693059628543
1.5034213098729228
1.4750733137829912
1.444770283479961
1.4164222873900294
1.3890518084066472
1.3548387096774193
1.3206256109481915
1.2942326490713587
1.2864125122189638
1.3098729227761483
1.375366568914956
1.4897360703812317
1.6500488758553276
1.8455522971652003
2.058651026392962
2.242424242424242
2.3949169110459434
2.5347018572825024
2.6402737047898337
2.7038123167155423
2.7262952101661777
2.713587487781036
2.675464320625611
2.619745845552297
2.5542521994134897
2.4858260019550342
2.419354838709677
2.358748778103617
2.30791788856305
2.264907135874878
2.2238514173998043
2.185728250244379
2.146627565982405
2.10850439882698
2.069403714565005
2.029325513196481
1.9843597262952104
1.9345063538611929
1.8836754643206255
1.8347996089931573
1.7956989247311828
1.7634408602150538
1.7331378299120237
1.7086999022482894
1.6911045943304008
1.6803519061583578
1.675464320625611
1.672531769305963
1.6715542521994136
1.6705767350928642
1.6705767350928642
1.6705767350928642
1.6705767350928642
1.6705767350928642
1.667644183773216
1.6588465298142718
1.6451612903225807
1.6285434995112416
1.6099706744868034
1.5884652981427174
1.563049853372434
1.5356793743890518
1.5083088954056696
1.4809384164222874
1.4535679374389052
1.4301075268817205
1.4066471163245358
1.3773216031280548
1.3450635386119256
1.3128054740957966
1.2903225806451613
1.2913000977517106
1.327468230694037
1.409579667644184
1.5395894428152492
1.7135874877810362
1.916911045943304
2.1280547409579667
2.304007820136853
2.444770283479961
2.567937438905181
2.6559139784946235
2.701857282502444
2.708699902248289
2.6852394916911044
2.641251221896383
2.5835777126099706
2.520039100684262
2.455522971652004
2.3949169110459434
2.3421309872922778
2.294232649071359
2.24633431085044
2.201368523949169
2.160312805474096
2.121212121212121
2.0821114369501466
2.043010752688172
2.0009775171065494
1.9589442815249267
1.9159335288367547
1.8729227761485825
1.83088954056696
1.796676441837732
1.76930596285435
1.7429130009775171
1.7204301075268815
1.7038123167155426
1.6950146627565983
1.694037145650049
1.6959921798631477
1.699902248289345
1.7038123167155426
1.7086999022482894
1.7116324535679377
1.7116324535679377
1.70772238514174
1.696969696969697
1.6842619745845553
1.667644183773216
1.6490713587487782
1.6285434995112416
1.606060606060606
1.581622678396872
1.5542521994134897
1.525904203323558
1.498533724340176
1.4711632453567938
1.447702834799609
1.423264907135875
1.391006842619746
1.3558162267839686
1.3264907135874875
1.3098729227761483
1.3206256109481915
1.375366568914956
1.479960899315738
1.6334310850439884
1.827956989247312
2.043010752688172
2.231671554252199
2.393939393939394
2.5454545454545454
2.66177908113392
2.735092864125122
2.764418377321604
2.7565982404692084
2.721407624633431
2.668621700879765
2.606060606060606
2.5386119257087
2.472140762463343
2.4164222873900294
2.366568914956012
2.317693059628544
2.271749755620724
2.2277614858260018
2.1867057673509285
2.147605083088954
2.10752688172043
2.0664711632453567
2.022482893450636
1.9745845552297163
1.9266862170087975
1.8826979472140764
1.847507331378299
1.8162267839687196
1.7839687194525904
1.7575757575757576
1.737047898338221
1.7223851417399805
1.7145650048875856
1.7116324535679377
1.7126099706744868
1.7165200391006843
1.7194525904203324
1.7194525904203324
1.718475073313783
1.7165200391006843
1.710654936461388
1.7018572825024438
1.6881720430107527
1.6695992179863148
1.6500488758553276
1.629521016617791
1.6080156402737047
1.5835777126099706
1.555229716520039
1.525904203323558
1.498533724340176
1.4760508308895406
1.4535679374389052
1.4213098729227762
1.3822091886608017
1.3450635386119256
1.3196480938416422
1.3176930596285434
1.3519061583577712
1.4330400782013686
1.564027370478983
1.7390029325513197
1.9442815249266865
2.131964809384164
2.2981427174975564
2.4604105571847508
2.5962854349951123
2.6911045943304006
2.740957966764418
2.7517106549364616
2.7311827956989245
2.6881720430107525
2.63049853372434
2.5650048875855327
2.496578690127077
2.43108504398827
2.377321603128055
2.3313782991202348
2.286412512218964
2.242424242424242
2.19941348973607
2.158357771260997
2.114369501466276
2.069403714565005
2.024437927663734
1.975562072336266
1.9266862170087975
1.8826979472140764
1.847507331378299
1.8162267839687196
1.7810361681329423
1.747800586510264
1.718475073313783
1.6959921798631477
1.6823069403714566
1.675464320625611
1.6735092864125125
1.6744868035190617
1.6764418377321604
1.6764418377321604
1.675464320625611
1.6744868035190617
1.672531769305963
1.667644183773216
1.6598240469208212
1.6490713587487782
1.6344086021505375
1.6158357771260996
1.5943304007820136
1.56891495601173
1.541544477028348
1.5112414467253177
1.47702834799609
1.447702834799609
1.4213098729227762
1.3890518084066472
1.3519061583577712
1.3147605083088951
1.281524926686217
1.2561094819159335
1.2502443792766371
1.2776148582600195
1.3479960899315735
1.466275659824047
1.6275659824046922
1.822091886608016
2.002932551319648
2.167155425219941
2.3313782991202348
2.4711632453567938
2.570869990224829
2.627565982404692
2.644183773216031
2.6285434995112413
2.5884652981427174
2.532746823069404
2.4701857282502444
2.404692082111437
2.346041055718475
2.294232649071359
2.242424242424242
2.1915933528836757
2.1436950146627565
2.096774193548387
2.0498533724340176
2.004887585532747
1.9608993157380252
1.913978494623656
1.865102639296188
1.8172043010752688
1.76930596285435
1.7311827956989247
1.699902248289345
1.6686217008797657
1.6422287390029326
1.6236559139784943
1.6148582600195502
1.6138807429130009
1.6187683284457477
1.6285434995112416
1.640273704789834
1.651026392961877
1.6608015640273706
1.6686217008797657
1.675464320625611
1.678396871945259
1.6774193548387095
1.672531769305963
1.6637341153470186
1.6500488758553276
1.6304985337243405
1.606060606060606
1.5806451612903225
1.5542521994134897
1.530791788856305
1.5102639296187683
1.4926686217008798
1.4760508308895406
1.4516129032258065
1.4203323558162269
1.3851417399804498
1.3528836754643203
1.3304007820136852
1.3294232649071358
1.3616813294232648
1.436950146627566
1.5581622678396871
1.7194525904203324
1.8778103616813293
2.0332355816226784
2.20039100684262
2.3519061583577714
2.4731182795698925
2.555229716520039
2.598240469208211
2.6080156402737047
2.593352883675464
2.5591397849462365
2.5112414467253177
2.455522971652004
2.3949169110459434
2.340175953079179
2.2883675464320627
2.2346041055718477
2.182795698924731
2.133919843597263
2.086021505376344
2.0410557184750733
1.9980449657869013
1.9560117302052784
1.9130009775171064
1.869012707722385
1.826001955034213
1.7888563049853372
1.7575757575757576
1.7233626588465298
1.6920821114369502
1.667644183773216
1.6490713587487782
1.6373411534701858
1.632453567937439
1.6344086021505375
1.640273704789834
1.6480938416422288
1.6578690127077225
1.6666666666666667
1.6735092864125125
1.678396871945259
1.6793743890518085
1.6774193548387095
1.672531769305963
1.6637341153470186
1.6500488758553276
1.632453567937439
1.6129032258064515
1.5894428152492668
1.564027370478983
1.5376344086021505
1.5161290322580645
1.4975562072336266
1.474095796676442
1.4457478005865103
1.4134897360703813
1.3812316715542523
1.3528836754643203
1.3401759530791788
1.3548387096774193
1.4066471163245358
1.5034213098729228
1.6441837732160314
1.7927663734115349
1.948191593352884
2.129032258064516
2.3088954056695994
2.4672531769305963
2.5884652981427174
2.668621700879765
2.7067448680351904
2.7096774193548385
2.684261974584555
2.6392961876832843
2.5835777126099706
2.5249266862170088
2.472140762463343
2.4222873900293256
2.3704789833822093
2.321603128054741
2.2766373411534704
2.233626588465298
2.1915933528836757
2.1485826001955037
2.103616813294233
2.058651026392962
2.0127077223851417
1.9667644183773216
1.9257086999022484
1.8885630498533723
1.8514173998044965
1.8142717497556209
1.7820136852394917
1.7565982404692082
1.7380254154447703
1.726295210166178
1.721407624633431
1.721407624633431
1.7233626588465298
1.7272727272727273
1.729227761485826
1.729227761485826
1.7272727272727273
1.7243401759530792
1.7204301075268815
1.7135874877810362
1.7018572825024438
1.689149560117302
1.675464320625611
1.6578690127077225
1.6383186705767352
1.6138807429130009
1.5865102639296187
1.5620723362658846
1.541544477028348
1.5180840664711632
1.4936461388074291
1.466275659824047
1.434017595307918
1.401759530791789
1.3734115347018572
1.359726295210166
1.3734115347018572
1.426197458455523
1.5249266862170088
1.6686217008797657
1.8201368523949168
1.9765395894428155
2.158357771260997
2.3362658846529816
2.489736070381232
2.6050830889540566
2.67644183773216
2.70772238514174
2.704789833822092
2.677419354838709
2.634408602150537
2.581622678396872
2.5317693059628543
2.4838709677419355
2.43108504398827
2.377321603128055
2.326490713587488
2.2795698924731185
2.2355816226783967
2.193548387096774
2.1524926686217007
2.10850439882698
2.0635386119257086
2.0195503421309877
1.975562072336266
1.9364613880742916
1.8993157380254155
1.8592375366568916
1.8211143695014664
1.7849462365591398
1.7526881720430108
1.726295210166178
1.7057673509286413
1.6901270772238517
1.6813294232649072
1.6764418377321604
1.6744868035190617
1.6735092864125125
1.672531769305963
1.672531769305963
1.672531769305963
1.672531769305963
1.6695992179863148
1.6627565982404693
1.6529814271749756
1.6392961876832846
1.6226783968719452
1.6011730205278591
1.5747800586510263
1.547409579667644
1.525904203323558
1.5083088954056696
1.4858260019550342
1.4594330400782014
1.4281524926686218
1.393939393939394
1.3558162267839686
1.3186705767350928
1.2913000977517106
1.2834799608993157
1.305962854349951
1.3685239491691104
1.456500488758553
1.5728250244379276
1.7350928641251222
1.9227761485826005
2.117302052785924
2.2981427174975564
2.4457478005865103
2.5532746823069403
2.619745845552297
2.6451612903225805
2.6373411534701856
2.6070381231671558
2.558162267839687
2.505376344086021
2.452590420332356
2.393939393939394
2.333333333333333
2.2737047898338223
2.217986314760508
2.167155425219941
2.120234604105572
2.0762463343108504
2.0332355816226784
1.991202346041056
1.949169110459433
1.9130009775171064
1.8797653958944285
1.8416422287390029
1.801564027370479
1.7634408602150538
1.7282502443792769
1.6989247311827955
1.6793743890518085
1.6686217008797657
1.6656891495601174
1.6686217008797657
1.6764418377321604
1.6871945259042034
1.6979472140762464
1.7067448680351909
1.7126099706744868
1.7145650048875856
1.7116324535679377
1.7038123167155426
1.6920821114369502
1.678396871945259
1.6627565982404693
1.6441837732160314
1.624633431085044
1.6050830889540566
1.5884652981427174
1.5708699902248289
1.5483870967741935
1.5239491691104594
1.499511241446725
1.469208211143695
1.4330400782013686
1.396871945259042
1.3665689149560116
1.3499511241446724
1.3577712609970674
1.4027370478983383
1.4936461388074291
1.607038123167155
1.7429130009775171
1.9188660801564028
2.112414467253177
2.302052785923754
2.4672531769305963
2.593352883675464
2.675464320625611
2.716520039100684
2.7233626588465296
2.7008797653958942
2.658846529814272
2.610948191593353
2.557184750733138
2.495601173020528
2.43108504398827
2.3685239491691106
2.3118279569892475
2.259042033235582
2.2111436950146626
2.167155425219941
2.1270772238514173
2.0869990224828934
2.0449657869012707
2.007820136852395
1.9745845552297163
1.9345063538611929
1.889540566959922
1.847507331378299
1.8084066471163245
1.772238514173998
1.7409579667644184
1.7174975562072337
1.7018572825024438
1.6930596285434996
1.689149560117302
1.6901270772238517
1.6930596285434996
1.6959921798631477
1.6979472140762464
1.6989247311827955
1.6979472140762464
1.6950146627565983
1.6901270772238517
1.6842619745845553
1.6764418377321604
1.664711632453568
1.6480938416422288
1.6285434995112416
1.6109481915933528
1.5943304007820136
1.5747800586510263
1.5513196480938416
1.525904203323558
1.500488758553275
1.4721407624633431
1.4389051808406648
1.4027370478983383
1.3714565004887584
1.3548387096774193
1.3636363636363635
1.4105571847507332
1.482893450635386
1.587487781036168
1.7429130009775171
1.9335288367546437
2.1407624633431084
2.3411534701857284
2.515151515151515
2.650048875855328
2.7390029325513194
2.78494623655914
2.793743890518084
2.773216031280548
2.7370478983382207
2.6911045943304006
2.633431085043988
2.567937438905181
2.5034213098729228
2.442815249266862
2.3851417399804498
2.333333333333333
2.286412512218964
2.243401759530792
2.203323558162268
2.1622678396871944
2.120234604105572
2.081133919843597
2.042033235581622
1.9960899315738023
1.949169110459433
1.903225806451613
1.86119257086999
1.822091886608016
1.7878787878787878
1.7605083088954057
1.739980449657869
1.726295210166178
1.7194525904203324
1.718475073313783
1.7204301075268815
1.7233626588465298
1.7282502443792769
1.732160312805474
1.732160312805474
1.729227761485826
1.7233626588465298
1.7126099706744868
1.699902248289345
1.6852394916911049
1.6705767350928642
1.653958944281525
1.6392961876832846
1.6256109481915937
1.606060606060606
1.5806451612903225
1.552297165200391
1.5239491691104594
1.4936461388074291
1.458455522971652
1.4173998044965788
1.3792766373411536
1.35386119257087
1.3509286412512218
1.3724340175953078
1.4291300097751711
1.5347018572825024
1.686217008797654
1.8748778103616808
2.086021505376344
2.294232649071359
2.479960899315738
2.6265884652981426
2.727272727272727
2.782013685239492
2.793743890518084
2.7722385141739982
2.7341153470185726
2.6852394916911044
2.624633431085044
2.560117302052786
2.496578690127077
2.436950146627566
2.3792766373411536
2.324535679374389
2.272727272727273
2.2238514173998043
2.177908113391984
2.132942326490713
2.09188660801564
2.053763440860215
2.0127077223851417
1.9716520039100685
1.927663734115347
1.881720430107527
1.836754643206256
1.7947214076246334
1.7575757575757576
1.7253176930596286
1.7018572825024438
1.686217008797654
1.6774193548387095
1.6735092864125125
1.6744868035190617
1.6774193548387095
1.6813294232649072
1.6852394916911049
1.6852394916911049
1.683284457478006
1.6793743890518085
1.6735092864125125
1.664711632453568
1.651026392961877
1.632453567937439
1.6138807429130009
1.5943304007820136
1.56891495601173
1.542521994134897
1.5161290322580645
1.4897360703812317
1.4643206256109482
1.435972629521017
1.4027370478983383
1.3655913978494625
1.3255131964809383
1.289345063538612
1.2668621700879763
1.2658846529814272
1.2942326490713587
1.3636363636363635
1.4809384164222874
1.643206256109482
1.835777126099707
2.042033235581622
2.241446725317693
2.4144672531769307
2.547409579667644
2.636363636363636
2.6823069403714563
2.6930596285435
2.67644183773216
2.6373411534701856
2.5835777126099706
2.5210166177908118
2.4565004887585533
2.3929618768328447
2.334310850439883
2.2795698924731185
2.225806451612903
2.174975562072336
2.126099706744868
2.078201368523949
2.0361681329423265
1.997067448680352
1.9530791788856303
1.905180840664712
1.857282502443793
1.8113391984359728
1.76930596285435
1.7302052785923754
1.6950146627565983
1.6686217008797657
1.651026392961877
1.6412512218963833
1.6392961876832846
1.643206256109482
1.6500488758553276
1.6608015640273706
1.6735092864125125
1.6852394916911049
1.6930596285434996
1.6989247311827955
1.699902248289345
1.6979472140762464
1.6920821114369502
1.6813294232649072
1.6666666666666667
1.6529814271749756
1.6383186705767352
1.616813294232649
1.590420332355816
1.5620723362658846
1.533724340175953
1.5063538611925709
1.478983382209189
1.4486803519061584
1.412512218963832
1.375366568914956
1.3607038123167154
1.367546432062561
1.3792766373411536
1.4076246334310851
1.4701857282502444
1.5728250244379276
1.7145650048875856
1.884652981427175
2.067448680351906
2.243401759530792
2.3949169110459434
2.5112414467253177
2.5865102639296187
2.6207233626588464
2.624633431085044
2.606060606060606
2.567937438905181
2.517106549364614
2.4613880742913
2.403714565004888
2.346041055718475
2.290322580645161
2.239491691104594
2.1915933528836757
2.147605083088954
2.1065493646138806
2.071358748778104
2.038123167155425
2.002932551319648
1.9657869012707725
1.9266862170087975
1.884652981427175
1.8435972629521016
1.804496578690127
1.7683284457478006
1.7360703812316716
1.7116324535679377
1.6950146627565983
1.6852394916911049
1.6803519061583578
1.6793743890518085
1.6813294232649072
