ppg
1.6774193548387095
1.6608015640273706
1.6471163245356797
1.635386119257087
1.624633431085044
1.6138807429130009
1.6041055718475072
1.595307917888563
1.5835777126099706
1.5698924731182795
1.5562072336265884
1.5395894428152492
1.521994134897361
1.501466275659824
1.4809384164222874
1.4633431085043989
1.4486803519061584
1.4379276637341154
1.43108504398827
1.4281524926686218
1.4271749755620724
1.4271749755620724
1.4252199413489737
1.4222873900293256
1.4173998044965788
1.409579667644184
1.4007820136852396
1.3919843597262953
1.383186705767351
1.3724340175953078
1.3607038123167154
1.3499511241446724
1.33822091886608
1.324535679374389
1.3098729227761483
1.2942326490713587
1.278592375366569
1.262952101661779
1.2473118279569892
1.2316715542521994
1.2179863147605083
1.2052785923753666
1.1925708699902249
1.1788856304985338
1.1700879765395895
1.164222873900293
1.1583577712609971
1.1573802541544478
1.1652003910068427
1.1857282502443791
1.2238514173998043
1.2825024437927663
1.3626588465298142
1.4633431085043989
1.5826001955034212
1.7165200391006843
1.8387096774193548
1.9560117302052784
2.0879765395894427
2.2218963831867056
2.3499511241446727
2.4672531769305963
2.5640273704789838
2.6422287390029324
2.70772238514174
2.758553274682307
2.7947214076246336
2.81622678396872
2.823069403714565
2.8152492668621703
2.7947214076246336
2.766373411534702
2.729227761485826
2.6823069403714563
2.6265884652981426
2.5620723362658846
2.489736070381232
2.4115347018572826
2.3304007820136854
2.247311827956989
2.164222873900293
2.090909090909091
2.024437927663734
1.9560117302052784
1.8914956011730208
1.8347996089931573
1.7859237536656891
1.7438905180840665
1.70772238514174
1.6764418377321604
1.6490713587487782
1.6236559139784943
1.5992179863147604
1.5747800586510263
1.5532746823069403
1.533724340175953
1.512218963831867
1.4887585532746823
1.4623655913978495
1.4349951124144673
1.4066471163245358
1.3773216031280548
1.3470185728250244
1.3176930596285434
1.2883675464320623
1.2609970674486803
1.238514173998045
1.217008797653959
1.1925708699902249
1.1691104594330402
1.144672531769306
1.121212121212121
1.099706744868035
1.0811339198435972
1.0635386119257086
1.0478983382209188
1.0332355816226784
1.0205278592375366
1.0097751710654936
1.0039100684261977
1.0009775171065494
0.997067448680352
0.9941348973607038
0.9921798631476052
0.9912023460410556
0.9921798631476052
0.9941348973607038
0.997067448680352
0.9990224828934506
1.0009775171065494
1.0019550342130987
1.0048875855327468
1.007820136852395
1.0097751710654936
1.0097751710654936
1.0097751710654936
1.0087976539589445
1.007820136852395
1.0068426197458455
1.0068426197458455
1.0068426197458455
1.0068426197458455
1.0068426197458455
1.0068426197458455
1.0087976539589445
1.010752688172043
1.010752688172043
1.010752688172043
1.0087976539589445
1.0068426197458455
1.0048875855327468
1.0039100684261977
1.0039100684261977
1.0039100684261977
1.0039100684261977
1.0039100684261977
1.0058651026392962
1.0087976539589445
1.0146627565982405
1.0283479960899315
1.0527859237536656
1.093841642228739
1.1564027370478984
1.2424242424242424
1.3509286412512218
1.479960899315738
1.624633431085044
1.780058651026393
1.9403714565004888
2.0772238514174
2.198435972629521
2.326490713587488
2.447702834799609
2.5562072336265884
2.6480938416422286
2.7223851417399803
2.779081133919844
2.819159335288368
2.844574780058651
2.8563049853372435
2.854349951124145
2.8396871945259043
2.8152492668621703
2.782991202346041
2.742913000977517
2.6940371456500487
2.638318670576735
2.5747800586510263
2.506353861192571
2.434017595307918
2.358748778103617
2.2844574780058653
2.212121212121212
2.1495601173020527
2.0948191593352883
2.040078201368524
1.9902248289345064
1.9472140762463344
1.9100684261974583
1.878787878787879
1.8523949169110456
1.8299120234604105
1.8093841642228736
1.7898338220918866
1.7702834799608993
1.750733137829912
1.732160312805474
1.7126099706744868
1.6901270772238517
1.6656891495601174
1.6373411534701858
1.607038123167155
1.5757575757575757
1.544477028347996
1.5151515151515151
1.4848484848484849
1.455522971652004
1.4281524926686218
1.404692082111437
1.383186705767351
1.3607038123167154
1.3391984359726294
1.3186705767350928
1.2991202346041055
1.2805474095796676
1.2649071358748778
1.2512218963831867
1.2394916911045943
1.227761485826002
1.2150537634408602
1.2013685239491692
1.1906158357771262
1.1827956989247312
1.1749755620723363
1.1671554252199414
1.1583577712609971
1.1515151515151516
1.1466275659824048
1.142717497556207
1.13880742913001
1.1348973607038124
1.1300097751710656
1.1241446725317692
1.1202346041055715
1.118279569892473
1.1143695014662756
1.110459433040078
1.1055718475073313
1.1016617790811338
1.096774193548387
1.4291300097751711
1.3988269794721409
1.3685239491691104
1.3391984359726294
1.3098729227761483
1.281524926686217
1.2551319648093842
1.2316715542521994
1.2130987292277615
1.1964809384164223
1.1759530791788857
1.1534701857282503
1.1319648093841643
1.1094819159335287
1.0879765395894427
1.0664711632453567
1.0449657869012707
1.0254154447702837
1.007820136852395
0.9941348973607038
0.981427174975562
0.9745845552297164
0.9706744868035192
0.9657869012707724
0.9589442815249268
0.9511241446725318
0.9442815249266864
0.9364613880742912
0.9296187683284456
0.9237536656891496
0.9178885630498532
0.9120234604105572
0.906158357771261
0.9042033235581622
0.9042033235581622
0.9012707722385142
0.8973607038123167
0.8924731182795699
0.916911045943304
0.9589442815249268
0.9794721407624634
0.9902248289345064
0.9960899315738024
1.0009775171065494
1.0068426197458455
1.0146627565982405
1.0273704789833822
1.0498533724340176
1.0850439882697946
1.1378299120234605
1.2121212121212122
1.3088954056695992
1.4291300097751711
1.5698924731182795
1.7233626588465298
1.881720430107527
2.037145650048876
2.1837732160312804
2.300097751710655
2.393939393939394
2.484848484848485
2.5640273704789838
2.627565982404692
2.675464320625611
2.708699902248289
2.727272727272727
2.7341153470185726
2.730205278592375
2.716520039100684
2.6930596285435
2.66177908113392
2.625610948191593
2.58455522971652
2.5347018572825024
2.4760508308895406
2.4086021505376345
2.3362658846529816
2.259042033235582
2.179863147605083
2.102639296187683
2.029325513196481
1.9618768328445748
1.9012707722385145
1.855327468230694
1.818181818181818
1.7839687194525904
1.7546432062561097
1.7311827956989247
1.7116324535679377
1.6950146627565983
1.6803519061583578
1.6666666666666667
1.6529814271749756
1.6373411534701858
1.6207233626588464
1.6021505376344083
1.58455522971652
1.5669599217986314
1.5454545454545454
1.52297165200391
1.500488758553275
1.478005865102639
1.455522971652004
1.4330400782013686
1.409579667644184
1.3861192570869991
1.3616813294232648
1.3372434017595307
1.3176930596285434
1.3020527859237536
1.2825024437927663
1.2619745845552297
1.2434017595307918
1.227761485826002
1.2130987292277615
1.1994134897360704
1.187683284457478
1.176930596285435
1.1681329423264908
1.1612903225806452
1.1544477028347997
1.1505376344086022
1.1485826001955035
1.144672531769306
1.13880742913001
1.1329423264907137
1.1270772238514175
1.1221896383186705
1.1192570869990224
1.1173020527859236
1.1173020527859236
1.1173020527859236
1.1173020527859236
1.1202346041055715
1.1231671554252198
1.1231671554252198
1.121212121212121
1.118279569892473
1.115347018572825
1.1124144672531768
1.1094819159335287
1.1065493646138806
1.1026392961876832
1.099706744868035
1.0977517106549364
1.099706744868035
1.104594330400782
1.1085043988269794
1.1124144672531768
1.115347018572825
1.1163245356793745
1.1173020527859236
1.1173020527859236
1.1173020527859236
1.1173020527859236
1.1163245356793745
1.1163245356793745
1.1173020527859236
1.1221896383186705
1.1319648093841643
1.1515151515151516
1.1857282502443791
1.238514173998045
1.313782991202346
1.4134897360703813
1.5356793743890518
1.6774193548387095
1.8328445747800584
1.994134897360704
2.15347018572825
2.286412512218964
2.39980449657869
2.5141739980449658
2.6177908113391983
2.705767350928641
2.776148582600196
2.831867057673509
2.870967741935484
2.895405669599218
2.9071358748778104
2.9071358748778104
2.8944281524926687
2.8719452590420333
2.8426197458455524
2.806451612903226
2.7614858260019552
2.70772238514174
2.64613880742913
2.576735092864125
2.5024437927663734
2.4242424242424243
2.346041055718475
2.269794721407625
2.1974584555229715
2.1309872922776147
2.0772238514174
2.034213098729228
1.9960899315738023
1.963831867057673
1.9374389051808407
1.916911045943304
1.9012707722385145
1.8875855327468232
1.8748778103616808
1.8621700879765395
1.847507331378299
1.8328445747800584
1.818181818181818
1.804496578690127
1.790811339198436
1.772238514173998
1.750733137829912
1.7272727272727273
1.7018572825024438
1.675464320625611
1.6500488758553276
1.624633431085044
1.5992179863147604
1.573802541544477
1.5493646138807429
1.5298142717497556
1.5141739980449658
1.4975562072336266
1.4819159335288368
1.4652981427174976
1.4486803519061584
1.4349951124144673
1.4252199413489737
1.4164222873900294
1.409579667644184
1.4056695992179864
1.4037145650048877
1.4027370478983383
1.4037145650048877
1.404692082111437
1.4037145650048877
1.4007820136852396
1.396871945259042
1.393939393939394
1.391006842619746
1.3900293255131966
1.3890518084066472
1.3900293255131966
1.391006842619746
1.3919843597262953
1.3949169110459434
1.3988269794721409
1.401759530791789
1.4037145650048877
1.4066471163245358
1.4105571847507332
1.41544477028348
1.418377321603128
1.4203323558162269
1.4213098729227762
1.4213098729227762
1.4213098729227762
1.4222873900293256
1.4242424242424243
1.4252199413489737
1.4242424242424243
1.423264907135875
1.4242424242424243
1.4271749755620724
1.4301075268817205
1.4349951124144673
1.4418377321603129
1.4506353861192571
1.4604105571847508
1.4750733137829912
1.4936461388074291
1.5190615835777126
1.5571847507331378
1.6138807429130009
1.6920821114369502
1.790811339198436
1.9071358748778104
2.0391006842619745
2.1818181818181817
2.329423264907136
2.4731182795698925
2.6070381231671558
2.7262952101661777
2.8152492668621703
2.8807429130009776
2.941348973607038
2.9902248289345064
3.026392961876833
3.050830889540567
3.0635386119257086
3.064516129032258
3.0576735092864125
3.043010752688172
3.022482893450636
2.9765395894428157
2.9159335288367547
2.865102639296188
2.814271749755621
2.760508308895406
2.702834799608993
2.643206256109482
2.581622678396872
2.5210166177908118
2.464320625610948
2.4134897360703813
2.3714565004887587
2.340175953079179
2.317693059628544
2.302052785923754
2.291300097751711
2.2854349951124147
2.280547409579668
2.2766373411534704
2.270772238514174
2.260019550342131
2.244379276637341
2.2218963831867056
2.1955034213098727
2.1652003910068425
2.132942326490713
2.102639296187683
2.072336265884653
2.038123167155425
2.002932551319648
1.9657869012707725
1.9296187683284456
1.8944281524926687
1.857282502443793
1.8211143695014664
1.7869012707722385
1.7546432062561097
1.7253176930596286
1.699902248289345
1.6803519061583578
1.664711632453568
1.651026392961877
1.6392961876832846
1.6285434995112416
1.6187683284457477
1.6109481915933528
1.6041055718475072
1.5972629521016617
1.5923753665689149
1.5894428152492668
1.587487781036168
1.5865102639296187
1.587487781036168
1.587487781036168
1.587487781036168
1.587487781036168
1.5884652981427174
1.5894428152492668
1.590420332355816
1.5933528836754642
1.5972629521016617
1.5992179863147604
1.6001955034213098
1.6021505376344083
1.6050830889540566
1.6080156402737047
1.611925708699902
1.6177908113391983
1.624633431085044
1.6314760508308896
1.6373411534701858
1.6422287390029326
1.6480938416422288
1.653958944281525
1.6608015640273706
1.6686217008797657
1.6764418377321604
1.6852394916911049
1.6959921798631477
1.70772238514174
1.7194525904203324
1.7311827956989247
1.7438905180840665
1.7565982404692082
1.76930596285435
1.782991202346041
1.7996089931573802
1.8240469208211143
1.8523949169110456
1.8875855327468232
1.9423264907135875
2.01564027370479
2.1065493646138806
2.210166177908113
2.32355816226784
2.439882697947214
2.5542521994134897
2.66177908113392
2.755620723362659
2.833822091886608
2.8944281524926687
2.9315738025415445
2.9501466275659824
2.960899315738025
2.962854349951124
2.9579667644183774
2.946236559139785
2.929618768328446
2.90811339198436
2.8826979472140764
2.854349951124145
2.822091886608016
2.7869012707722387
2.748778103616813
2.705767350928641
2.654936461388074
2.5972629521016617
2.533724340175953
2.464320625610948
2.3919843597262958
2.317693059628544
2.244379276637341
2.175953079178885
2.113391984359726
2.059628543499511
2.01564027370479
1.9824046920821117
1.956989247311828
1.935483870967742
1.9159335288367547
1.8983382209188664
1.8797653958944285
1.8592375366568916
1.8347996089931573
1.8054740957966764
1.7732160312805474
1.7390029325513197
1.7038123167155426
1.6705767350928642
1.6383186705767352
1.6001955034213098
1.560117302052786
1.520039100684262
1.478983382209189
1.4379276637341154
1.3978494623655917
1.359726295210166
1.3225806451612905
1.2854349951124144
1.249266862170088
1.2160312805474096
1.1906158357771262
1.1710654936461389
1.1495601173020529
1.130987292277615
1.1133919843597262
1.096774193548387
1.0811339198435972
1.0654936461388074
1.0498533724340176
1.035190615835777
1.0234604105571847
1.0146627565982405
1.0117302052785924
1.010752688172043
1.0087976539589445
1.0068426197458455
1.0039100684261977
1.0019550342130987
1.0009775171065494
1.0009775171065494
1.0009775171065494
0.9990224828934506
0.9960899315738024
0.9951124144672532
0.9931573802541545
0.9931573802541545
0.9960899315738024
0.9960899315738024
0.9931573802541545
0.989247311827957
0.9853372434017597
0.9804496578690128
0.9745845552297164
0.9687194525904204
0.9628543499511242
0.9560117302052786
0.9501466275659824
0.9472140762463344
0.9472140762463344
0.9442815249266864
0.9413489736070382
0.9393939393939394
0.93841642228739
0.93841642228739
0.93841642228739
0.93841642228739
0.93841642228739
0.9403714565004888
0.9491691104594332
0.9696969696969696
1.0009775171065494
1.0469208211143697
1.1163245356793745
1.2111436950146628
1.3304007820136852
1.4701857282502444
1.6256109481915937
1.790811339198436
1.9560117302052784
2.114369501466276
2.260997067448681
2.391006842619746
2.4887585532746823
2.5620723362658846
2.6295210166177907
2.684261974584555
2.7233626588465296
2.747800586510264
2.7595307917888565
2.760508308895406
2.750733137829912
2.7331378299120237
2.7067448680351904
2.6725317693059627
2.631476050830889
2.5865102639296187
2.536656891495601
2.4760508308895406
2.406647116324536
2.3313782991202348
2.2531769305962857
2.1739980449657867
2.096774193548387
2.0234604105571847
1.9560117302052784
1.8963831867057677
1.8455522971652003
1.8084066471163245
1.7790811339198436
1.7526881720430108
1.729227761485826
1.710654936461388
1.696969696969697
1.6852394916911049
1.6735092864125125
1.6608015640273706
1.6471163245356797
1.6314760508308896
1.6138807429130009
1.5962854349951123
1.5806451612903225
1.5650048875855327
1.5454545454545454
1.52297165200391
1.500488758553275
1.4897360703812317
1.4838709677419355
1.4672531769305963
1.4467253176930597
1.4242424242424243
1.4007820136852396
1.3773216031280548
1.359726295210166
1.3470185728250244
1.3333333333333333
1.3186705767350928
1.3040078201368523
1.289345063538612
1.2766373411534702
1.2658846529814272
1.2561094819159335
1.2473118279569892
1.2394916911045943
1.2326490713587488
1.2258064516129032
1.2228739002932552
1.2209188660801564
1.217008797653959
1.2121212121212122
1.206256109481916
1.2003910068426198
1.1945259042033236
1.1886608015640274
1.1857282502443791
1.1837732160312806
1.1827956989247312
1.1827956989247312
1.1837732160312806
1.18475073313783
1.1837732160312806
1.181818181818182
1.1779081133919844
1.1749755620723363
1.1720430107526882
1.1700879765395895
1.1691104594330402
1.1671554252199414
1.164222873900293
1.1612903225806452
1.1612903225806452
1.163245356793744
1.164222873900293
1.1652003910068427
1.166177908113392
1.1652003910068427
1.163245356793744
1.1612903225806452
1.160312805474096
1.1612903225806452
1.1652003910068427
1.1749755620723363
1.195503421309873
1.2258064516129032
1.2697947214076246
1.33822091886608
1.4320625610948192
1.5483870967741935
1.6852394916911049
1.8377321603128052
1.997067448680352
2.156402737047898
2.3118279569892475
2.4545454545454546
2.5806451612903225
2.675464320625611
2.745845552297165
2.809384164222874
2.859237536656892
2.895405669599218
2.918866080156403
2.9315738025415445
2.9335288367546437
2.924731182795699
2.9071358748778104
2.8797653958944283
2.8426197458455524
2.7976539589442817
2.748778103616813
2.6959921798631474
2.633431085043988
2.5650048875855327
2.4946236559139785
2.4252199413489737
2.356793743890518
2.29227761485826
2.2346041055718477
2.185728250244379
2.146627565982405
2.1163245356793743
2.093841642228739
2.0772238514174
2.065493646138808
2.0576735092864125
2.050830889540567
2.0449657869012707
2.038123167155425
2.03128054740958
2.024437927663734
2.01564027370479
2.002932551319648
1.9872922776148585
1.9687194525904204
1.9501466275659824
1.932551319648094
1.9130009775171064
1.8905180840664717
1.866080156402737
1.8416422287390029
1.8191593352883677
1.796676441837732
1.775171065493646
1.7565982404692082
1.7380254154447703
1.7204301075268815
1.7057673509286413
1.6930596285434996
1.6793743890518085
1.6666666666666667
1.6559139784946235
1.6480938416422288
1.640273704789834
1.6334310850439884
1.6275659824046922
1.6207233626588464
1.6148582600195502
1.608993157380254
1.6021505376344083
1.5972629521016617
1.5933528836754642
1.5894428152492668
1.585532746823069
1.5826001955034212
1.5786901270772238
1.573802541544477
1.5679374389051808
1.563049853372434
1.560117302052786
1.5581622678396871
1.5571847507331378
1.5571847507331378
1.5581622678396871
1.5591397849462365
1.560117302052786
1.5610948191593352
1.5620723362658846
1.564027370478983
1.5679374389051808
1.5718475073313782
1.5747800586510263
1.5796676441837731
1.58455522971652
1.590420332355816
1.5962854349951123
1.6021505376344083
1.6080156402737047
1.6148582600195502
1.6217008797653958
1.6304985337243405
1.640273704789834
1.651026392961877
1.6656891495601174
1.6881720430107527
1.721407624633431
1.7683284457478006
1.8211143695014664
1.884652981427175
1.9726295210166176
2.080156402737048
2.201368523949169
2.3304007820136854
2.4594330400782014
2.5835777126099706
2.6959921798631474
2.7947214076246336
2.87683284457478
2.9423264907135875
2.9902248289345064
3.0175953079178885
3.0303030303030303
3.0391006842619745
3.042033235581622
3.0410557184750733
3.034213098729228
3.022482893450636
3.005865102639296
2.9853372434017595
2.9579667644183774
2.9237536656891496
2.881720430107527
2.8367546432062563
2.787878787878788
2.7331378299120237
2.67644183773216
2.621700879765396
2.5698924731182795
2.525904203323558
2.4916911045943304
2.4682306940371457
2.455522971652004
2.449657869012708
2.4486803519061584
2.450635386119257
2.449657869012708
2.44672531769306
2.4408602150537635
2.43108504398827
2.4164222873900294
2.3949169110459434
2.367546432062561
2.337243401759531
2.304007820136853
2.267839687194526
2.23069403714565
2.1915933528836757
2.156402737047898
2.12316715542522
2.088954056695992
2.0557184750733137
2.0234604105571847
1.991202346041056
1.9608993157380252
1.9315738025415443
1.903225806451613
1.87683284457478
1.855327468230694
1.835777126099707
1.8191593352883677
1.8064516129032255
1.7947214076246334
1.7839687194525904
1.7741935483870968
1.7653958944281525
1.7575757575757576
1.750733137829912
1.7448680351906158
1.7380254154447703
1.729227761485826
1.7194525904203324
1.7067448680351909
1.6950146627565983
1.683284457478006
1.6705767350928642
1.6578690127077225
1.643206256109482
1.6275659824046922
1.611925708699902
1.5962854349951123
1.5796676441837731
1.564027370478983
1.5483870967741935
1.5317693059628543
1.482893450635386
1.418377321603128
1.375366568914956
1.343108504398827
1.3176930596285434
1.2961876832844574
1.2766373411534702
1.2580645161290325
1.241446725317693
1.227761485826002
1.2160312805474096
1.206256109481916
1.1974584555229717
1.1915933528836755
1.1886608015640274
1.1837732160312806
1.1779081133919844
1.1720430107526882
1.1652003910068427
1.1593352883675463
1.1544477028347997
1.1515151515151516
1.1544477028347997
1.166177908113392
1.1915933528836755
1.224828934506354
1.2717497556207231
1.3421309872922775
1.4349951124144673
1.5493646138807429
1.6803519061583578
1.823069403714565
1.970674486803519
2.114369501466276
2.247311827956989
2.363636363636364
2.4613880742913
2.539589442815249
2.591397849462365
2.624633431085044
2.652003910068426
2.6715542521994133
2.6823069403714563
2.6852394916911044
2.681329423264907
2.670576735092864
2.6529814271749754
2.6295210166177907
2.60019550342131
2.5640273704789838
2.5249266862170088
2.4819159335288368
2.43108504398827
2.375366568914956
2.317693059628544
2.2629521016617797
2.2140762463343107
2.1739980449657867
2.144672531769306
2.124144672531769
2.112414467253177
2.1065493646138806
2.102639296187683
2.0977517106549364
2.089931573802541
2.0791788856304985
2.064516129032258
2.0439882697947214
2.016617790811339
1.9824046920821117
1.943304007820137
1.8993157380254155
1.8514173998044965
1.801564027370479
1.7487781036168133
1.699902248289345
1.6549364613880744
1.6041055718475072
1.5493646138807429
1.4965786901270772
1.4457478005865103
1.3958944281524928
1.3479960899315735
1.303030303030303
1.2619745845552297
1.2238514173998043
1.1867057673509287
1.1515151515151516
1.126099706744868
1.1055718475073313
1.083088954056696
1.06158357771261
1.0420332355816226
1.0254154447702837
1.0127077223851415
1.0009775171065494
0.9902248289345064
0.9804496578690128
0.9706744868035192
0.9638318670576737
0.9618768328445748
0.9628543499511242
0.9608993157380256
0.9560117302052786
0.9511241446725318
0.946236559139785
0.9403714565004888
0.9335288367546432
0.9266862170087976
0.9208211143695014
0.9159335288367546
0.9110459433040078
0.9051808406647116
0.9032258064516128
0.9032258064516128
0.8993157380254154
0.8944281524926686
0.8885630498533724
0.8826979472140762
0.8778103616813294
0.8758553274682307
0.873900293255132
0.8709677419354839
0.8670576735092864
0.8621700879765396
0.8602150537634409
0.8602150537634409
0.8563049853372434
0.8484848484848485
0.8377321603128055
0.8269794721407625
0.8172043010752689
0.8103616813294232
0.8064516129032258
0.8054740957966764
0.8093841642228738
0.8191593352883676
0.8406647116324536
0.8719452590420332
0.9159335288367546
0.981427174975562
1.0694037145650048
1.1808406647116323
1.3147605083088951
1.466275659824047
1.629521016617791
1.796676441837732
1.9618768328445748
2.1163245356793743
2.2531769305962857
2.358748778103617
2.4389051808406648
2.512218963831867
2.5718475073313782
2.6158357771261
2.6451612903225805
2.6608015640273703
2.6637341153470184
2.6559139784946235
2.6373411534701856
2.608993157380254
2.56891495601173
2.520039100684262
2.4682306940371457
2.412512218963832
2.345063538611926
2.269794721407625
2.189638318670577
2.10752688172043
2.0254154447702835
1.946236559139785
1.870967741935484
1.8035190615835777
1.7448680351906158
1.694037145650049
1.6559139784946235
1.6265884652981428
1.6021505376344083
1.581622678396872
1.5650048875855327
1.5513196480938416
1.5395894428152492
1.5278592375366569
1.5161290322580645
1.5034213098729228
1.4897360703812317
1.474095796676442
1.456500488758553
1.4408602150537635
1.426197458455523
1.4086021505376345
1.388074291300098
1.364613880742913
1.3391984359726294
