ppg
1.6451612903225807
1.5962854349951123
1.543499511241447
1.4868035190615836
1.4271749755620724
1.367546432062561
1.3118279569892473
1.2688172043010753
1.2394916911045943
1.2160312805474096
1.198435972629521
1.181818181818182
1.1564027370478984
1.110459433040078
1.0381231671554252
0.9413489736070382
0.8260019550342131
0.7047898338220919
0.5913978494623656
0.4946236559139785
0.4271749755620723
0.3841642228739003
0.3528836754643206
0.3343108504398827
0.3264907135874877
0.3235581622678397
0.324535679374389
0.3264907135874877
0.3294232649071358
0.3333333333333333
0.3391984359726295
0.3470185728250244
0.3597262952101662
0.3743890518084066
0.3870967741935484
0.4017595307917888
0.4144672531769306
0.4242424242424242
0.4301075268817204
0.4291300097751711
0.418377321603128
0.3949169110459433
0.3577712609970674
0.3098729227761486
0.2688172043010752
0.2365591397849462
0.2062561094819159
0.1925708699902248
0.2033235581622678
0.2404692082111437
0.3000977517106549
0.3743890518084066
0.4516129032258064
0.5219941348973607
0.5796676441837733
0.6226783968719453
0.656891495601173
0.6891495601173021
0.7272727272727273
0.782991202346041
0.863147605083089
0.9726295210166178
1.110459433040078
1.2688172043010753
1.4330400782013686
1.5933528836754642
1.7409579667644184
1.868035190615836
1.9726295210166176
2.046920821114369
2.1055718475073317
2.167155425219941
2.236559139784946
2.315738025415445
2.403714565004888
2.495601173020528
2.5865102639296187
2.670576735092864
2.7390029325513194
2.789833822091887
2.822091886608016
2.8367546432062563
2.834799608993157
2.822091886608016
2.803519061583578
2.782991202346041
2.763440860215054
2.748778103616813
2.739980449657869
2.736070381231672
2.7311827956989245
2.717497556207233
2.684261974584555
2.627565982404692
2.557184750733138
2.4750733137829912
2.375366568914956
2.2668621700879767
2.1593352883675463
2.056695992179863
1.9618768328445748
1.8729227761485825
1.7878787878787878
1.704789833822092
1.6226783968719452
1.544477028347996
1.4721407624633431
1.414467253176931
1.3685239491691104
1.3264907135874875
1.295210166177908
1.273704789833822
1.262952101661779
1.2609970674486803
1.2658846529814272
1.2756598240469208
1.2903225806451613
1.310850439882698
1.335288367546432
1.3587487781036167
1.383186705767351
1.4134897360703813
1.4457478005865103
1.47702834799609
1.5063538611925709
1.533724340175953
1.5591397849462365
1.5835777126099706
1.6080156402737047
1.6344086021505375
1.66177908113392
1.686217008797654
1.704789833822092
1.718475073313783
1.729227761485826
1.7331378299120237
1.7311827956989247
1.7243401759530792
1.7126099706744868
1.696969696969697
1.6823069403714566
1.6715542521994136
1.664711632453568
1.6627565982404693
1.6637341153470186
1.667644183773216
1.675464320625611
1.6842619745845553
1.6911045943304008
1.6959921798631477
1.6979472140762464
1.7008797653958945
1.8172043010752688
1.9931573802541545
2.09188660801564
2.156402737047898
2.207233626588465
2.24633431085044
2.281524926686217
2.32355816226784
2.3714565004887587
2.4271749755620724
2.490713587487781
2.560117302052786
2.634408602150537
2.7096774193548385
2.782991202346041
2.8484848484848486
2.9042033235581624
2.941348973607038
2.963831867057673
2.979472140762464
2.9872922776148583
2.986314760508309
2.9765395894428157
2.9589442815249267
2.936461388074292
2.909090909090909
2.877810361681329
2.843597262952102
2.806451612903226
2.76930596285435
2.7331378299120237
2.6959921798631474
2.6578690127077222
2.619745845552297
2.581622678396872
2.544477028347996
2.5083088954056696
2.474095796676442
2.443792766373412
2.4173998044965788
2.3949169110459434
2.377321603128055
2.3626588465298144
2.3519061583577714
2.3440860215053765
2.3391984359726297
2.3362658846529816
2.335288367546432
2.334310850439883
2.332355816226784
2.3304007820136854
2.329423264907136
2.3274682306940373
2.324535679374389
2.3196480938416424
2.3118279569892475
2.3010752688172045
2.286412512218964
2.2658846529814274
2.2404692082111435
2.212121212121212
2.1788856304985336
2.142717497556207
2.1055718475073317
2.069403714565005
2.0332355816226784
1.9990224828934504
1.9696969696969695
1.943304007820137
1.913978494623656
1.8856304985337244
1.8592375366568916
1.8328445747800584
1.8064516129032255
1.7781036168132942
1.7487781036168133
1.7165200391006843
1.6813294232649072
1.643206256109482
1.6041055718475072
1.5708699902248289
1.543499511241447
1.5131964809384164
1.4819159335288368
1.4506353861192571
1.4193548387096775
1.3900293255131966
1.3616813294232648
1.3333333333333333
1.3069403714565004
1.2834799608993157
1.2639296187683284
1.2541544477028348
1.2541544477028348
1.2609970674486803
1.2795698924731185
1.310850439882698
1.3558162267839686
1.412512218963832
1.47702834799609
1.5464320625610948
1.6129032258064515
1.6735092864125125
1.7243401759530792
1.7644183773216031
1.7927663734115349
1.8132942326490715
1.8299120234604105
1.8435972629521016
1.857282502443793
1.871945259042033
1.8875855327468232
1.900293255131965
1.9042033235581624
1.8914956011730208
1.8563049853372435
1.7927663734115349
1.718475073313783
1.6304985337243405
1.5112414467253177
1.3743890518084063
1.2326490713587488
1.0977517106549364
0.978494623655914
0.8817204301075269
0.8093841642228738
0.7624633431085044
0.7370478983382209
0.7282502443792767
0.7331378299120235
0.7468230694037146
0.7634408602150538
0.7810361681329423
0.8015640273704789
0.8250244379276638
0.852394916911046
0.8826979472140762
0.9149560117302052
0.9491691104594332
0.9843597262952102
1.0195503421309873
1.0527859237536656
1.0840664711632453
1.1133919843597262
1.141739980449658
1.1681329423264908
1.1915933528836755
1.2140762463343109
1.2346041055718475
1.2531769305962854
1.2688172043010753
1.2834799608993157
1.2961876832844574
1.3088954056695992
1.3235581622678396
1.3372434017595307
1.348973607038123
1.3587487781036167
1.3665689149560116
1.3724340175953078
1.3782991202346042
1.383186705767351
1.388074291300098
1.392961876832845
1.396871945259042
1.3998044965786902
1.4027370478983383
1.4086021505376345
1.414467253176931
1.418377321603128
1.4213098729227762
1.423264907135875
1.4252199413489737
1.4281524926686218
1.4301075268817205
1.4320625610948192
1.4330400782013686
1.434017595307918
1.435972629521017
1.4408602150537635
1.4516129032258065
1.4701857282502444
1.5024437927663734
1.5513196480938416
1.619745845552297
1.70772238514174
1.8103616813294232
1.9237536656891496
2.042033235581622
2.157380254154448
2.267839687194526
2.3685239491691106
2.44672531769306
2.509286412512219
2.5698924731182795
2.624633431085044
2.6725317693059627
2.710654936461388
2.73802541544477
2.755620723362659
2.763440860215054
2.7614858260019552
2.7497556207233624
2.730205278592375
2.705767350928641
2.67644183773216
2.6392961876832843
2.5962854349951123
2.547409579667644
2.496578690127077
2.442815249266862
2.388074291300098
2.334310850439883
2.281524926686217
2.231671554252199
2.1847507331378297
2.1407624633431084
2.104594330400782
2.0733137829912023
2.043010752688172
2.013685239491691
1.988269794721408
1.9667644183773216
1.9472140762463344
1.9286412512218964
1.911045943304008
1.8944281524926687
1.8797653958944285
1.866080156402737
1.855327468230694
1.8455522971652003
1.8347996089931573
1.8240469208211143
1.8132942326490715
1.8035190615835777
1.793743890518084
1.7849462365591398
1.7761485826001957
1.7673509286412512
1.758553274682307
1.7497556207233629
1.739980449657869
1.7331378299120237
1.7282502443792769
1.7223851417399805
1.715542521994135
1.70772238514174
1.6989247311827955
1.689149560117302
1.6793743890518085
1.6705767350928642
1.66177908113392
1.6549364613880744
1.6490713587487782
1.6471163245356797
1.64613880742913
1.6881720430107527
1.750733137829912
1.7781036168132942
1.7888563049853372
1.790811339198436
1.7898338220918866
1.7888563049853372
1.7869012707722385
1.7849462365591398
1.782991202346041
1.7790811339198436
1.7761485826001957
1.7741935483870968
1.76930596285435
1.7653958944281525
1.7634408602150538
1.7653958944281525
1.7761485826001957
1.7996089931573802
1.8387096774193548
1.895405669599218
1.9687194525904204
2.0547409579667644
2.134897360703812
2.2130987292277613
2.302052785923754
2.3929618768328447
2.4780058651026398
2.5532746823069403
2.6177908113391983
2.6725317693059627
2.718475073313783
2.755620723362659
2.7839687194525906
2.803519061583578
2.8152492668621703
2.8181818181818183
2.814271749755621
2.8054740957966766
2.791788856304985
2.771260997067449
2.745845552297165
2.7145650048875853
2.677419354838709
2.635386119257087
2.589442815249267
2.541544477028348
2.49266862170088
2.449657869012708
2.409579667644184
2.366568914956012
2.324535679374389
2.2844574780058653
2.2482893450635384
2.21505376344086
2.185728250244379
2.1593352883675463
2.136852394916911
2.117302052785924
2.1006842619745845
2.0869990224828934
2.0762463343108504
2.067448680351906
2.0576735092864125
2.047898338220919
2.038123167155425
2.029325513196481
2.0205278592375366
2.0117302052785924
2.002932551319648
1.994134897360704
1.9853372434017595
1.9765395894428155
1.970674486803519
1.964809384164223
1.956989247311828
1.948191593352884
1.9393939393939397
1.9296187683284456
1.919843597262952
1.9100684261974583
1.900293255131965
1.8914956011730208
1.8826979472140764
1.873900293255132
1.8670576735092863
1.86119257086999
1.8543499511241448
1.8465298142717497
1.8387096774193548
1.83088954056696
1.8240469208211143
1.8172043010752688
1.8103616813294232
1.8025415444770283
1.7947214076246334
1.7859237536656891
1.7790811339198436
1.7741935483870968
1.7702834799608993
1.7663734115347018
1.7634408602150538
1.761485826001955
1.7595307917888563
1.7575757575757576
1.75366568914956
1.7497556207233629
1.7458455522971652
1.7429130009775171
1.7448680351906158
1.7517106549364614
1.7663734115347018
1.793743890518084
1.836754643206256
1.895405669599218
1.9696969696969695
2.053763440860215
2.1436950146627565
2.2355816226783967
2.32355816226784
2.401759530791789
2.4701857282502444
2.527859237536657
2.567937438905181
2.5972629521016617
2.6207233626588464
2.636363636363636
2.644183773216031
2.643206256109482
2.634408602150537
2.618768328445748
2.5962854349951123
2.5669599217986314
2.5317693059628543
2.49266862170088
2.4545454545454546
2.4173998044965788
2.375366568914956
2.332355816226784
2.289345063538612
2.2482893450635384
2.210166177908113
2.175953079178885
2.144672531769306
2.117302052785924
2.093841642228739
2.0733137829912023
2.0557184750733137
2.043010752688172
2.034213098729228
2.0254154447702835
2.016617790811339
2.0097751710654936
2.003910068426197
1.9990224828934504
1.994134897360704
1.989247311827957
1.9853372434017595
1.9804496578690127
1.9745845552297163
1.9696969696969695
1.9667644183773216
1.9618768328445748
1.9560117302052784
1.9501466275659824
1.9442815249266865
1.9374389051808407
1.9315738025415443
1.924731182795699
1.9178885630498532
1.911045943304008
1.905180840664712
1.8993157380254155
1.895405669599218
1.8914956011730208
1.8856304985337244
1.8797653958944285
1.8729227761485825
1.8670576735092863
1.8602150537634408
1.8523949169110456
1.8455522971652003
1.8387096774193548
1.8328445747800584
1.8269794721407624
1.825024437927664
1.825024437927664
1.823069403714565
1.8211143695014664
1.8191593352883677
1.818181818181818
1.8172043010752688
1.8172043010752688
1.8162267839687196
1.8142717497556209
1.812316715542522
1.8103616813294232
1.8093841642228736
1.8103616813294232
1.8162267839687196
1.827956989247312
1.8514173998044965
1.8905180840664717
1.946236559139785
2.018572825024438
2.103616813294233
2.19941348973607
2.2991202346041058
2.396871945259042
2.4887585532746823
2.5620723362658846
2.622678396871945
2.681329423264907
2.735092864125122
2.7810361681329425
2.819159335288368
2.849462365591398
2.870967741935484
2.8836754643206257
2.8885630498533725
2.8856304985337244
2.875855327468231
2.859237536656892
2.8377321603128056
2.812316715542522
2.780058651026393
2.740957966764418
2.697947214076246
2.652003910068426
2.603128054740958
2.5532746823069403
2.505376344086021
2.4594330400782014
2.41544477028348
2.3743890518084068
2.340175953079179
2.310850439882698
2.281524926686217
2.2531769305962857
2.2267839687194524
2.203323558162268
2.182795698924731
2.164222873900293
2.147605083088954
2.132942326490713
2.120234604105572
2.110459433040078
2.101661779081134
2.0957966764418376
2.088954056695992
2.081133919843597
2.072336265884653
2.0635386119257086
2.0547409579667644
2.04594330400782
2.038123167155425
1.8983382209188664
1.6901270772238517
1.5796676441837731
1.5180840664711632
1.4819159335288368
1.4594330400782014
1.4408602150537635
1.423264907135875
1.4076246334310851
1.3919843597262953
1.3763440860215057
1.3607038123167154
1.346041055718475
1.3304007820136852
1.316715542521994
1.3040078201368523
1.2913000977517106
1.2825024437927663
1.2766373411534702
1.2697947214076246
1.2619745845552297
1.2551319648093842
1.2473118279569892
1.2394916911045943
1.2316715542521994
1.2238514173998043
1.217008797653959
1.2111436950146628
1.2072336265884651
1.2052785923753666
1.2043010752688172
1.2013685239491692
1.195503421309873
1.1896383186705768
1.1827956989247312
1.1779081133919844
1.181818181818182
1.203323558162268
1.249266862170088
1.324535679374389
1.43108504398827
1.5650048875855327
1.696969696969697
1.83088954056696
1.989247311827957
2.1544477028347995
2.3167155425219943
2.4682306940371457
2.6021505376344085
2.717497556207233
2.814271749755621
2.8914956011730206
2.952101661779081
2.997067448680352
3.0205278592375366
3.0283479960899315
3.0303030303030303
3.0234604105571847
3.006842619745845
2.979472140762464
2.940371456500489
2.889540566959922
2.827956989247312
2.757575757575758
2.679374389051808
2.5962854349951123
2.517106549364614
2.441837732160313
2.360703812316716
2.27761485826002
2.1974584555229715
2.1221896383186705
2.0518084066471163
1.988269794721408
1.932551319648094
1.8836754643206255
1.8406647116324533
1.8025415444770283
1.7673509286412512
1.7390029325513197
1.7165200391006843
1.694037145650049
1.6705767350928642
1.6490713587487782
1.629521016617791
1.6099706744868034
1.590420332355816
1.5728250244379276
1.5562072336265884
1.5395894428152492
1.521994134897361
1.509286412512219
1.4975562072336266
1.4838709677419355
1.4701857282502444
1.455522971652004
1.439882697947214
1.4213098729227762
1.4037145650048877
1.3870967741935485
1.3695014662756595
1.3528836754643203
1.3372434017595307
1.3196480938416422
1.3049853372434017
1.2932551319648091
1.2795698924731185
1.2649071358748778
1.2502443792766371
1.2355816226783969
1.2209188660801564
1.2052785923753666
1.1906158357771262
1.1759530791788857
1.163245356793744
1.1534701857282503
1.1485826001955035
1.1436950146627567
1.1358748778103618
1.1270772238514175
1.1192570869990224
1.110459433040078
1.1016617790811338
1.0948191593352885
1.0879765395894427
1.0791788856304985
1.0694037145650048
1.0586510263929618
1.0498533724340176
1.04594330400782
1.0488758553274682
1.06158357771261
1.0928641251221896
1.1485826001955035
1.2316715542521994
1.3421309872922775
1.47702834799609
1.629521016617791
1.790811339198436
1.951124144672532
2.104594330400782
2.2277614858260018
2.3274682306940373
2.4242424242424243
2.509286412512219
2.578690127077224
2.63049853372434
2.664711632453568
2.681329423264907
2.6832844574780057
2.670576735092864
2.644183773216031
2.6041055718475072
2.552297165200391
2.498533724340176
2.439882697947214
2.3704789833822093
2.2932551319648096
2.2140762463343107
2.134897360703812
2.058651026392962
1.9872922776148585
1.920821114369501
1.8602150537634408
1.8054740957966764
1.7565982404692082
1.7165200391006843
1.6823069403714566
1.6480938416422288
1.616813294232649
1.5894428152492668
1.5650048875855327
1.5454545454545454
1.5298142717497556
1.5161290322580645
1.504398826979472
1.4936461388074291
1.4838709677419355
1.474095796676442
1.466275659824047
1.4594330400782014
1.4496578690127078
1.4379276637341154
1.4242424242424243
1.4105571847507332
1.3978494623655917
1.3861192570869991
1.3743890518084063
1.3607038123167154
1.346041055718475
1.3304007820136852
1.3186705767350928
1.3069403714565004
1.29227761485826
1.2776148582600195
1.2639296187683284
1.252199413489736
1.238514173998045
1.2238514173998043
1.209188660801564
1.1945259042033236
1.1788856304985338
1.1652003910068427
1.152492668621701
1.1436950146627567
1.1397849462365592
1.1348973607038124
1.1290322580645162
1.1231671554252198
1.1163245356793745
1.10752688172043
1.099706744868035
1.0918866080156402
1.0850439882697946
1.0801564027370478
1.075268817204301
1.0742913000977516
1.0742913000977516
1.072336265884653
1.0694037145650048
1.067448680351906
1.0694037145650048
1.0801564027370478
1.10752688172043
1.1583577712609971
1.2365591397849462
1.343108504398827
1.4750733137829912
1.6256109481915937
1.7663734115347018
1.902248289345064
2.0547409579667644
2.209188660801564
2.3548387096774195
2.4838709677419355
2.595307917888563
2.687194525904203
2.7595307917888565
2.8152492668621703
2.8563049853372435
2.8826979472140764
2.8905180840664717
2.884652981427175
2.8690127077223853
2.843597262952102
2.807429130009776
2.7595307917888565
2.7008797653958942
2.632453567937439
2.557184750733138
2.4780058651026398
2.3978494623655915
2.318670576735093
2.242424242424242
2.176930596285435
2.118279569892473
2.048875855327468
1.9765395894428155
1.9149560117302051
1.86119257086999
1.8142717497556209
1.7732160312805474
1.737047898338221
1.7067448680351909
1.6803519061583578
1.6559139784946235
1.635386119257087
1.6177908113391983
1.6011730205278591
1.5865102639296187
1.5708699902248289
1.5562072336265884
1.5405669599217986
1.525904203323558
1.5131964809384164
1.500488758553275
1.4887585532746823
1.4760508308895406
1.4633431085043989
1.4535679374389052
1.4437927663734116
1.43108504398827
1.4173998044965788
1.401759530791789
1.3841642228739004
1.367546432062561
1.3519061583577712
1.3372434017595307
1.3225806451612905
1.3069403714565004
1.2932551319648091
1.2825024437927663
1.2727272727272727
1.2619745845552297
1.2502443792766371
1.2404692082111437
1.2316715542521994
1.2228739002932552
1.2150537634408602
1.2072336265884651
1.1994134897360704
1.1925708699902249
1.18475073313783
1.1798631476050832
1.1779081133919844
1.173998044965787
1.1691104594330402
1.1652003910068427
1.1612903225806452
1.1573802541544478
1.152492668621701
1.1456500488758554
1.13880742913001
1.1319648093841643
1.126099706744868
1.1280547409579669
1.1397849462365592
1.1652003910068427
1.2140762463343109
1.29227761485826
1.4007820136852396
1.5366568914956011
1.6959921798631477
1.869012707722385
2.0449657869012707
2.2160312805474094
2.375366568914956
2.520039100684262
2.631476050830889
2.719452590420332
2.8054740957966766
2.881720430107527
2.9442815249266863
2.992179863147605
3.027370478983382
3.050830889540567
3.060606060606061
3.0557184750733137
3.038123167155425
3.0097751710654936
2.9696969696969697
2.920821114369501
2.8641251221896384
2.7966764418377323
2.720430107526881
2.6392961876832843
2.5532746823069403
2.464320625610948
2.377321603128055
2.294232649071359
2.2140762463343107
2.1388074291300097
2.071358748778104
2.0146627565982405
1.9667644183773216
1.919843597262952
1.87683284457478
1.8387096774193548
1.804496578690127
1.7741935483870968
1.7458455522971652
1.7194525904203324
1.6950146627565983
1.672531769305963
1.6520039100684265
1.632453567937439
1.6158357771260996
1.6021505376344083
1.587487781036168
1.5718475073313782
1.5542521994134897
1.5366568914956011
1.5180840664711632
1.499511241446725
1.4819159335288368
1.4643206256109482
1.4457478005865103
1.4271749755620724
1.412512218963832
1.3988269794721409
1.380254154447703
1.3616813294232648
1.3450635386119256
1.3284457478005864
1.3118279569892473
1.2961876832844574
1.278592375366569
1.2609970674486803
1.2434017595307918
1.2267839687194526
1.2111436950146628
1.2003910068426198
1.1906158357771262
1.1779081133919844
1.1652003910068427
1.1534701857282503
1.141739980449658
1.130987292277615
1.1221896383186705
1.1143695014662756
1.1065493646138806
1.0987292277614855
1.0918866080156402
1.0879765395894427
1.086021505376344
1.0821114369501466
1.0742913000977516
1.064516129032258
1.0557184750733135
1.050830889540567
1.0518084066471165
1.064516129032258
1.096774193548387
1.1544477028347997
1.2394916911045943
1.35386119257087
1.4721407624633431
1.5972629521016617
1.7497556207233629
1.9130009775171064
2.078201368523949
2.2346041055718477
2.377321603128055
2.5024437927663734
2.608993157380254
2.697947214076246
2.7702834799608995
2.825024437927664
2.857282502443793
2.8729227761485827
2.8807429130009776
2.877810361681329
2.863147605083089
2.8367546432062563
2.80058651026393
2.7517106549364616
2.6911045943304006
2.622678396871945
2.5464320625610948
2.4652981427174976
2.3812316715542523
2.304985337243402
2.232649071358749
2.155425219941349
2.078201368523949
2.003910068426197
1.935483870967742
1.8729227761485825
1.8162267839687196
1.7653958944281525
1.7223851417399805
1.6852394916911049
1.6529814271749756
1.6285434995112416
1.608993157380254
1.5923753665689149
1.5777126099706744
1.5650048875855327
1.552297165200391
1.5376344086021505
1.520039100684262
1.5024437927663734
1.4848484848484849
1.4682306940371457
1.4516129032258065
1.4349951124144673
1.4213098729227762
1.4086021505376345
1.392961876832845
1.3743890518084063
1.3577712609970674
1.3421309872922775
1.324535679374389
1.305962854349951
1.2873900293255132
1.2688172043010753
1.2512218963831867
1.2346041055718475
1.2228739002932552
1.2130987292277615
1.1994134897360704
1.18475073313783
1.1700879765395895
1.1544477028347997
1.1397849462365592
1.1251221896383188
1.1124144672531768
1.099706744868035
1.086021505376344
1.0713587487781036
1.056695992179863
1.04594330400782
1.0391006842619743
1.0303030303030305
1.0195503421309873
1.010752688172043
1.0058651026392962
1.002932551319648
1.0019550342130987
0.9990224828934506
0.9941348973607038
0.9872922776148584
0.9804496578690128
0.9775171065493646
0.981427174975562
0.9902248289345064
1.0127077223851415
1.0557184750733135
1.126099706744868
1.224828934506354
1.3519061583577712
1.499511241446725
1.6559139784946235
1.812316715542522
1.962854349951124
2.085043988269794
2.187683284457478
2.289345063538612
2.3792766373411536
2.453567937438905
2.5112414467253177
2.550342130987292
2.573802541544477
2.581622678396872
2.575757575757576
2.557184750733138
2.5249266862170088
2.4819159335288368
2.4349951124144678
2.3822091886608017
2.320625610948192
2.2521994134897363
2.1788856304985336
2.1055718475073317
2.035190615835777
1.9667644183773216
1.902248289345064
1.842619745845552
1.7888563049853372
1.739980449657869
1.699902248289345
1.6666666666666667
1.6334310850439884
1.6041055718475072
1.5786901270772238
1.555229716520039
1.5347018572825024
1.517106549364614
1.5034213098729228
1.490713587487781
1.479960899315738
1.469208211143695
1.458455522971652
1.4506353861192571
1.4428152492668622
1.4330400782013686
1.4213098729227762
1.4076246334310851
1.393939393939394
1.380254154447703
1.3685239491691104
1.3577712609970674
1.3479960899315735
1.33822091886608
1.327468230694037
1.3196480938416422
1.3128054740957966
1.3040078201368523
1.2932551319648091
1.2805474095796676
1.2688172043010753
1.2580645161290325
1.2482893450635386
1.238514173998045
1.2297165200391007
1.219941348973607
1.209188660801564
1.198435972629521
1.1906158357771262
1.18475073313783
1.1788856304985338
1.1720430107526882
1.1652003910068427
1.1583577712609971
1.1515151515151516
1.144672531769306
