ppg
1.2531769305962854
1.270772238514174
1.303030303030303
1.346041055718475
1.4076246334310851
1.500488758553275
1.6236559139784943
1.775171065493646
1.9501466275659824
2.1388074291300097
2.329423264907136
2.512218963831867
2.678396871945259
2.822091886608016
2.941348973607038
3.024437927663734
3.0821114369501466
3.132942326490713
3.172043010752688
3.20039100684262
3.219941348973607
3.232649071358749
3.241446725317693
3.2453567937438903
3.244379276637341
3.236559139784946
3.219941348973607
3.193548387096774
3.158357771260997
3.114369501466276
3.060606060606061
2.9960899315738025
2.920821114369501
2.838709677419355
2.755620723362659
2.675464320625611
2.6021505376344085
2.5376344086021505
2.4838709677419355
2.439882697947214
2.4056695992179864
2.3792766373411536
2.356793743890518
2.337243401759531
2.318670576735093
2.300097751710655
2.281524926686217
2.26197458455523
2.239491691104594
2.2140762463343107
2.1867057673509285
2.156402737047898
2.124144672531769
2.093841642228739
2.064516129032258
2.0303030303030303
1.992179863147605
1.9530791788856303
1.913978494623656
1.87683284457478
1.839687194525904
1.8035190615835777
1.76930596285435
1.7341153470185728
1.6989247311827955
1.6695992179863148
1.6422287390029326
1.611925708699902
1.5826001955034212
1.555229716520039
1.5278592375366569
1.500488758553275
1.4750733137829912
1.452590420332356
1.43108504398827
1.409579667644184
1.388074291300098
1.3655913978494625
1.3499511241446724
1.3372434017595307
1.3206256109481915
1.3010752688172045
1.2805474095796676
1.2609970674486803
1.2434017595307918
1.224828934506354
1.206256109481916
1.187683284457478
1.1700879765395895
1.1534701857282503
1.1436950146627567
1.1368523949169111
1.1270772238514175
1.115347018572825
1.104594330400782
1.0948191593352885
1.0850439882697946
1.075268817204301
1.0654936461388074
1.0576735092864125
1.0527859237536656
1.0557184750733135
1.0713587487781036
1.0987292277614855
1.1436950146627567
1.2150537634408602
1.316715542521994
1.4486803519061584
1.606060606060606
1.7810361681329423
1.963831867057673
2.144672531769306
2.314760508308896
2.4682306940371457
2.60019550342131
2.6959921798631474
2.7653958944281527
2.8269794721407626
2.87683284457478
2.913000977517106
2.93841642228739
2.956011730205278
2.9667644183773216
2.972629521016618
2.973607038123167
2.967741935483871
2.95405669599218
2.932551319648094
2.903225806451613
2.865102639296188
2.817204301075269
2.758553274682307
2.6911045943304006
2.6177908113391983
2.541544477028348
2.4672531769305963
2.398826979472141
2.3382209188660803
2.286412512218964
2.2453567937438903
2.2140762463343107
2.1925708699902247
2.175953079178885
2.163245356793744
2.1515151515151514
2.1388074291300097
2.126099706744868
2.112414467253177
2.0957966764418376
2.075268817204301
2.0518084066471163
2.0234604105571847
1.9951124144672527
1.9657869012707725
1.9315738025415443
1.895405669599218
1.858260019550342
1.8201368523949168
1.782991202346041
1.7458455522971652
1.7086999022482894
1.672531769305963
1.635386119257087
1.6001955034213098
1.565982404692082
1.5376344086021505
1.5112414467253177
1.4809384164222874
1.4496578690127078
1.4193548387096775
1.3890518084066472
1.359726295210166
1.332355816226784
1.3069403714565004
1.281524926686217
1.241446725317693
1.195503421309873
1.1681329423264908
1.1485826001955035
1.1290322580645162
1.110459433040078
1.0918866080156402
1.075268817204301
1.0606060606060606
1.0469208211143697
1.0342130987292275
1.0224828934506354
1.0097751710654936
0.9980449657869012
0.9882697947214076
0.9833822091886608
0.9804496578690128
0.9765395894428152
0.9726295210166178
0.9687194525904204
0.9657869012707724
0.9628543499511242
0.959921798631476
0.9579667644183774
0.956989247311828
0.9589442815249268
0.9657869012707724
0.9804496578690128
1.0048875855327468
1.04594330400782
1.1085043988269794
1.1974584555229717
1.3118279569892473
1.452590420332356
1.6138807429130009
1.7859237536656891
1.9608993157380252
2.129032258064516
2.283479960899316
2.4173998044965788
2.5161290322580645
2.587487781036168
2.6480938416422286
2.695014662756598
2.729227761485826
2.7517106549364616
2.764418377321604
2.7702834799608995
2.771260997067449
2.7702834799608995
2.764418377321604
2.7517106549364616
2.732160312805474
2.704789833822092
2.668621700879765
2.622678396871945
2.56891495601173
2.509286412512219
2.443792766373412
2.378299120234604
2.313782991202346
2.2521994134897363
2.196480938416422
2.1495601173020527
2.112414467253177
2.0840664711632453
2.0625610948191597
2.046920821114369
2.035190615835777
2.026392961876833
2.018572825024438
2.0117302052785924
2.003910068426197
1.9931573802541545
1.9794721407624636
1.9618768328445748
1.9403714565004888
1.9188660801564028
1.8963831867057677
1.868035190615836
1.836754643206256
1.8025415444770283
1.7683284457478006
1.7350928641251222
1.699902248289345
1.6637341153470186
1.6285434995112416
1.5943304007820136
1.560117302052786
1.5268817204301075
1.498533724340176
1.474095796676442
1.4467253176930597
1.4173998044965788
1.3890518084066472
1.3607038123167154
1.3333333333333333
1.305962854349951
1.2805474095796676
1.2561094819159335
1.2326490713587488
1.2111436950146628
1.1945259042033236
1.181818181818182
1.166177908113392
1.147605083088954
1.1280547409579669
1.1094819159335287
1.0918866080156402
1.0762463343108504
1.0606060606060606
1.04594330400782
1.032258064516129
1.0195503421309873
1.0068426197458455
1.0
0.997067448680352
0.9931573802541545
0.9902248289345064
0.9882697947214076
0.9872922776148584
0.9872922776148584
0.9882697947214076
0.9882697947214076
0.9882697947214076
0.989247311827957
0.9941348973607038
1.007820136852395
1.0332355816226784
1.075268817204301
1.1397849462365592
1.2297165200391007
1.3479960899315735
1.4916911045943304
1.653958944281525
1.8269794721407624
2.0
2.164222873900293
2.314760508308896
2.44672531769306
2.5454545454545454
2.618768328445748
2.6832844574780057
2.736070381231672
2.776148582600196
2.8054740957966766
2.825024437927664
2.8367546432062563
2.843597262952102
2.844574780058651
2.8396871945259043
2.827956989247312
2.8084066471163247
2.782991202346041
2.750733137829912
2.7096774193548385
2.6608015640273703
2.606060606060606
2.5464320625610948
2.4838709677419355
2.4222873900293256
2.3626588465298144
2.3088954056695994
2.26197458455523
2.2238514173998043
2.193548387096774
2.16911045943304
2.1485826001955037
2.131964809384164
2.1192570869990224
2.10752688172043
2.0948191593352883
2.080156402737048
2.0635386119257086
2.0449657869012707
2.026392961876833
2.004887585532747
1.9833822091886608
1.9618768328445748
1.9374389051808407
1.911045943304008
1.881720430107527
1.8514173998044965
1.8211143695014664
1.790811339198436
1.7605083088954057
1.7311827956989247
1.7028347996089932
1.675464320625611
1.653958944281525
1.6344086021505375
1.6129032258064515
1.5913978494623655
1.5708699902248289
1.5503421309872922
1.530791788856305
1.5102639296187683
1.4897360703812317
1.469208211143695
1.4496578690127078
1.4320625610948192
1.414467253176931
1.401759530791789
1.3919843597262953
1.3812316715542523
1.370478983382209
1.3607038123167154
1.3509286412512218
1.3411534701857282
1.332355816226784
1.3235581622678396
1.3147605083088951
1.3049853372434017
1.2961876832844574
1.2903225806451613
1.2854349951124144
1.2795698924731185
1.273704789833822
1.267839687194526
1.2649071358748778
1.2619745845552297
1.260019550342131
1.2590420332355816
1.2590420332355816
1.2590420332355816
1.2609970674486803
1.2688172043010753
1.2825024437927663
1.3069403714565004
1.3499511241446724
1.4173998044965788
1.5131964809384164
1.6363636363636365
1.7820136852394917
1.945259042033236
2.115347018572825
2.2825024437927666
2.4389051808406648
2.5777126099706744
2.681329423264907
2.757575757575758
2.8260019550342133
2.881720430107527
2.9237536656891496
2.95405669599218
2.973607038123167
2.986314760508309
2.995112414467253
3.0
3.0009775171065494
2.9960899315738025
2.983382209188661
2.962854349951124
2.9335288367546437
2.895405669599218
2.84652981427175
2.789833822091887
2.7262952101661777
2.656891495601173
2.58455522971652
2.512218963831867
2.443792766373412
2.3812316715542523
2.326490713587488
2.281524926686217
2.2453567937438903
2.21505376344086
2.189638318670577
2.167155425219941
2.144672531769306
2.1221896383186705
2.1006842619745845
2.0772238514174
2.0518084066471163
2.0254154447702835
1.997067448680352
1.967741935483871
1.9403714565004888
1.9130009775171064
1.881720430107527
1.8484848484848484
1.8132942326490715
1.7771260997067448
1.7390029325513197
1.699902248289345
1.66177908113392
1.6256109481915937
1.5913978494623655
1.5591397849462365
1.5327468230694037
1.512218963831867
1.4897360703812317
1.4652981427174976
1.4389051808406648
1.412512218963832
1.3870967741935485
1.3616813294232648
1.3372434017595307
1.313782991202346
1.2903225806451613
1.2668621700879763
1.24633431085044
1.2316715542521994
1.219941348973607
1.2043010752688172
1.1867057673509287
1.1691104594330402
1.1515151515151516
1.1348973607038124
1.121212121212121
1.1065493646138806
1.0918866080156402
1.0791788856304985
1.0664711632453567
1.0586510263929618
1.0527859237536656
1.0449657869012707
1.0361681329423265
1.0273704789833822
1.018572825024438
1.0097751710654936
1.002932551319648
0.9980449657869012
0.9941348973607038
0.9902248289345064
0.9882697947214076
0.9902248289345064
1.0
1.0175953079178883
1.0488758553274682
1.1016617790811338
1.1788856304985338
1.2825024437927663
1.4115347018572826
1.560117302052786
1.7204301075268815
1.884652981427175
2.0449657869012707
2.1915933528836757
2.3069403714565007
2.396871945259042
2.479960899315738
2.549364613880743
2.6050830889540566
2.6471163245356792
2.67644183773216
2.695014662756598
2.7067448680351904
2.7126099706744866
2.7126099706744866
2.7067448680351904
2.695014662756598
2.677419354838709
2.6529814271749754
2.6207233626588464
2.579667644183773
2.529814271749756
2.474095796676442
2.4134897360703813
2.3519061583577714
2.290322580645161
2.23069403714565
2.176930596285435
2.1309872922776147
2.0948191593352883
2.067448680351906
2.046920821114369
2.0332355816226784
2.0234604105571847
2.01564027370479
2.0087976539589443
2.0009775171065494
1.989247311827957
1.9736070381231672
1.9560117302052784
1.935483870967742
1.9120234604105573
1.8885630498533723
1.865102639296188
1.8377321603128052
1.8084066471163245
1.7771260997067448
1.7438905180840665
1.7096774193548387
1.675464320625611
1.6412512218963833
1.607038123167155
1.573802541544477
1.5405669599217986
1.5131964809384164
1.490713587487781
1.4643206256109482
1.436950146627566
1.409579667644184
1.3841642228739004
1.3587487781036167
1.3343108504398826
1.3118279569892473
1.289345063538612
1.267839687194526
1.2473118279569892
1.227761485826002
1.2130987292277615
1.2003910068426198
1.1837732160312806
1.1652003910068427
1.1466275659824048
1.1280547409579669
1.1114369501466277
1.0977517106549364
1.0850439882697946
1.072336265884653
1.0596285434995112
1.0478983382209188
1.0420332355816226
1.040078201368524
1.0371456500488758
1.0342130987292275
1.0312805474095796
1.0283479960899315
1.0254154447702837
1.0224828934506354
1.0195503421309873
1.0166177908113392
1.013685239491691
1.0117302052785924
1.0166177908113392
1.0273704789833822
1.04594330400782
1.0791788856304985
1.1319648093841643
1.209188660801564
1.313782991202346
1.4428152492668622
1.5913978494623655
1.7517106549364614
1.916911045943304
2.078201368523949
2.228739002932551
2.347018572825025
2.439882697947214
2.525904203323558
2.5972629521016617
2.652003910068426
2.6930596285435
2.721407624633431
2.739980449657869
2.750733137829912
2.755620723362659
2.7546432062561097
2.748778103616813
2.735092864125122
2.7145650048875853
2.6881720430107525
2.652003910068426
2.6070381231671558
2.5542521994134897
2.493646138807429
2.4281524926686218
2.361681329423265
2.2981427174975564
2.239491691104594
2.1867057673509285
2.142717497556207
2.1094819159335287
2.083088954056696
2.06158357771261
2.046920821114369
2.0361681329423265
2.0283479960899315
2.022482893450636
2.016617790811339
2.0097751710654936
2.0
1.9872922776148585
1.9716520039100685
1.9560117302052784
1.93841642228739
1.9149560117302051
1.8856304985337244
1.8533724340175952
1.8201368523949168
1.7859237536656891
1.7517106549364614
1.7174975562072337
1.6842619745845553
1.6529814271749756
1.6217008797653958
1.5913978494623655
1.5669599217986314
1.5464320625610948
1.52297165200391
1.499511241446725
1.4750733137829912
1.4496578690127078
1.4242424242424243
1.3988269794721409
1.3743890518084063
1.3509286412512218
1.3284457478005864
1.3069403714565004
1.2913000977517106
1.2776148582600195
1.2590420332355816
1.238514173998045
1.2189638318670577
1.1994134897360704
1.1798631476050832
1.1612903225806452
1.1456500488758554
1.1319648093841643
1.1192570869990224
1.115347018572825
1.1163245356793745
1.1173020527859236
1.118279569892473
1.115347018572825
1.1114369501466277
1.1055718475073313
1.1006842619745845
1.096774193548387
1.0948191593352885
1.093841642228739
1.093841642228739
1.093841642228739
1.0948191593352885
1.1006842619745845
1.115347018572825
1.141739980449658
1.187683284457478
1.2590420332355816
1.3607038123167154
1.4936461388074291
1.653958944281525
1.833822091886608
2.024437927663734
2.21505376344086
2.396871945259042
2.563049853372434
2.6911045943304006
2.789833822091887
2.881720430107527
2.959921798631476
3.022482893450636
3.069403714565005
3.102639296187683
3.126099706744868
3.1417399804496577
3.1515151515151514
3.1544477028347995
3.1515151515151514
3.1407624633431084
3.1221896383186705
3.096774193548387
3.06158357771261
3.01564027370479
2.9579667644183774
2.89247311827957
2.822091886608016
2.747800586510264
2.674486803519061
2.6050830889540566
2.541544477028348
2.4858260019550342
2.4408602150537635
2.4056695992179864
2.377321603128055
2.35386119257087
2.334310850439883
2.318670576735093
2.3059628543499517
2.294232649071359
2.2825024437927666
2.269794721407625
2.2531769305962857
2.232649071358749
2.2111436950146626
2.188660801564027
2.1622678396871944
2.131964809384164
2.1006842619745845
2.070381231671554
2.040078201368524
2.010752688172043
1.981427174975562
1.9501466275659824
1.9188660801564028
1.889540566959922
1.86119257086999
1.836754643206256
1.8162267839687196
1.7947214076246334
1.7741935483870968
1.75366568914956
1.7331378299120237
1.7126099706744868
1.6930596285434996
1.675464320625611
1.6588465298142718
1.643206256109482
1.6275659824046922
1.6148582600195502
1.603128054740958
1.5894428152492668
1.576735092864125
1.563049853372434
1.5483870967741935
1.5327468230694037
1.5161290322580645
1.499511241446725
1.482893450635386
1.4682306940371457
1.4535679374389052
1.4379276637341154
1.4271749755620724
1.4173998044965788
1.404692082111437
1.3900293255131966
1.375366568914956
1.3607038123167154
1.348973607038123
1.33822091886608
1.327468230694037
1.3186705767350928
1.3118279569892473
1.3079178885630498
1.310850439882698
1.321603128054741
1.3411534701857282
1.3782991202346042
1.4389051808406648
1.5268817204301075
1.6441837732160314
1.7878787878787878
1.951124144672532
2.126099706744868
2.303030303030303
2.4701857282502444
2.603128054740958
2.70772238514174
2.8054740957966766
2.886608015640274
2.949169110459433
2.9931573802541545
3.0234604105571847
3.0449657869012707
3.058651026392962
3.0664711632453567
3.069403714565005
3.067448680351906
3.059628543499511
3.0439882697947214
3.022482893450636
2.9960899315738025
2.961876832844575
2.917888563049853
2.865102639296188
2.803519061583578
2.735092864125122
2.662756598240469
2.592375366568915
2.5268817204301075
2.466275659824047
2.4173998044965788
2.377321603128055
2.3411534701857284
2.310850439882698
2.283479960899316
2.2580645161290325
2.233626588465298
2.2111436950146626
2.188660801564027
2.1652003910068425
2.1388074291300097
2.1094819159335287
2.078201368523949
2.047898338220919
2.0195503421309877
1.9872922776148585
1.951124144672532
1.9130009775171064
1.871945259042033
1.83088954056696
1.790811339198436
1.7517106549364614
1.7145650048875856
1.678396871945259
1.640273704789834
1.6080156402737047
1.5786901270772238
1.5454545454545454
1.5112414467253177
1.478005865102639
1.4467253176930597
1.41544477028348
1.3861192570869991
1.3577712609970674
1.3304007820136852
1.303030303030303
1.2776148582600195
1.2541544477028348
1.2375366568914956
1.2238514173998043
1.206256109481916
1.1867057673509287
1.1671554252199414
1.1466275659824048
1.1270772238514175
1.1094819159335287
1.0928641251221896
1.078201368523949
1.0654936461388074
1.053763440860215
1.0478983382209188
1.0449657869012707
1.0381231671554252
1.0303030303030305
1.021505376344086
1.0117302052785924
1.0019550342130987
0.9931573802541545
0.9872922776148584
0.9824046920821116
0.978494623655914
0.9765395894428152
0.975562072336266
0.981427174975562
0.9941348973607038
1.0156402737047898
1.0527859237536656
1.1114369501466277
1.195503421309873
1.3079178885630498
1.4467253176930597
1.6080156402737047
1.7839687194525904
1.964809384164223
2.139784946236559
2.283479960899316
2.4027370478983383
2.520039100684262
2.6236559139784945
2.70772238514174
2.7722385141739982
2.822091886608016
2.8582600195503423
2.8836754643206257
2.8993157380254155
2.906158357771261
2.905180840664712
2.8963831867057674
2.8807429130009776
2.857282502443793
2.8269794721407626
2.787878787878788
2.740957966764418
2.686217008797654
2.624633431085044
2.5591397849462365
2.4916911045943304
2.426197458455523
2.363636363636364
2.3088954056695994
2.264907135874878
2.2297165200391005
2.201368523949169
2.179863147605083
2.163245356793744
2.132942326490713
2.0957966764418376
2.071358748778104
2.0527859237536656
2.035190615835777
2.018572825024438
2.0
1.978494623655914
1.956989247311828
1.9364613880742916
1.9130009775171064
1.8866080156402736
1.858260019550342
1.827956989247312
1.7947214076246334
1.7595307917888563
1.7243401759530792
1.689149560117302
1.656891495601173
1.6256109481915937
1.5992179863147604
1.576735092864125
1.552297165200391
1.5268817204301075
1.500488758553275
1.474095796676442
1.4486803519061584
1.423264907135875
1.396871945259042
1.370478983382209
1.346041055718475
1.3225806451612905
1.300097751710655
1.2834799608993157
1.2697947214076246
1.2541544477028348
1.2394916911045943
1.2238514173998043
1.2082111436950147
1.1935483870967742
1.1788856304985338
1.1652003910068427
1.1505376344086022
1.1358748778103618
1.1231671554252198
1.115347018572825
1.1094819159335287
1.0987292277614855
1.0869990224828934
1.0762463343108504
1.0664711632453567
1.0586510263929618
1.0527859237536656
1.0478983382209188
1.0449657869012707
1.043010752688172
1.0420332355816226
1.0439882697947214
1.0518084066471165
1.0664711632453567
1.0899315738025417
1.1280547409579669
1.1867057673509287
1.270772238514174
1.3812316715542523
1.5161290322580645
1.672531769305963
1.839687194525904
2.0097751710654936
2.172043010752688
2.303030303030303
2.410557184750733
2.5131964809384164
2.601173020527859
2.6725317693059627
2.727272727272727
2.7673509286412514
2.795698924731183
2.814271749755621
2.825024437927664
2.8299120234604107
2.8289345063538613
2.820136852394917
2.803519061583578
2.780058651026393
2.750733137829912
2.7116324535679373
2.6637341153470184
2.606060606060606
2.541544477028348
2.4731182795698925
2.4056695992179864
2.3411534701857284
2.281524926686217
2.2297165200391005
2.189638318670577
2.158357771260997
2.132942326490713
2.115347018572825
2.102639296187683
2.0928641251221896
2.085043988269794
2.0772238514174
2.0684261974584555
2.0576735092864125
2.0449657869012707
2.0283479960899315
2.0117302052785924
1.994134897360704
1.9716520039100685
1.945259042033236
1.916911045943304
1.8856304985337244
1.8533724340175952
1.8201368523949168
1.7869012707722385
1.7546432062561097
1.7223851417399805
1.689149560117302
1.6559139784946235
1.6275659824046922
1.6021505376344083
1.5747800586510263
1.547409579667644
1.520039100684262
1.4946236559139785
1.4701857282502444
1.447702834799609
1.426197458455523
1.4056695992179864
1.3851417399804498
1.3665689149560116
1.3528836754643203
1.3411534701857282
1.3255131964809383
1.3088954056695992
1.2913000977517106
1.2746823069403714
1.2580645161290325
1.2424242424242424
1.2287390029325511
1.2160312805474096
1.2043010752688172
1.1925708699902249
1.181818181818182
1.1759530791788857
1.1730205278592376
1.1700879765395895
1.1671554252199414
1.164222873900293
1.163245356793744
1.1622678396871946
1.1622678396871946
1.1622678396871946
1.1622678396871946
1.1622678396871946
1.163245356793744
1.1691104594330402
1.1808406647116323
1.1994134897360704
1.23069403714565
1.2805474095796676
1.35386119257087
1.4545454545454546
1.5826001955034212
1.7311827956989247
1.8944281524926687
2.0635386119257086
2.2297165200391005
2.3841642228739004
2.505376344086021
2.6021505376344085
2.6930596285435
2.7702834799608995
2.83088954056696
2.877810361681329
2.913978494623656
2.940371456500489
2.959921798631476
2.9745845552297165
2.983382209188661
2.986314760508309
2.979472140762464
2.9657869012707723
2.946236559139785
2.918866080156403
2.881720430107527
2.834799608993157
2.779081133919844
2.717497556207233
2.6510263929618767
2.5855327468230693
2.52297165200391
2.4652981427174976
2.4134897360703813
2.3704789833822093
2.3362658846529816
2.3069403714565007
2.2844574780058653
2.2658846529814274
2.251221896383187
2.239491691104594
2.2267839687194524
2.21505376344086
2.204301075268817
2.1915933528836757
2.176930596285435
2.160312805474096
2.142717497556207
2.1221896383186705
2.099706744868035
2.0762463343108504
2.050830889540567
2.0234604105571847
1.9960899315738023
1.9687194525904204
1.9423264907135875
1.9159335288367547
1.8885630498533723
1.8602150537634408
1.836754643206256
1.81524926686217
1.790811339198436
1.7653958944281525
1.7409579667644184
1.7165200391006843
1.6920821114369502
1.6686217008797657
1.64613880742913
1.6226783968719452
1.6001955034213098
1.576735092864125
1.5581622678396871
1.543499511241447
1.5249266862170088
1.5034213098729228
1.4809384164222874
1.4594330400782014
1.4379276637341154
1.4164222873900294
1.3949169110459434
1.3743890518084063
1.3548387096774193
1.335288367546432
1.3176930596285434
1.305962854349951
1.2971652003910068
1.284457478005865
1.2727272727272727
1.260019550342131
1.24633431085044
1.2316715542521994
1.217008797653959
1.2023460410557183
1.187683284457478
1.1749755620723363
1.1544477028347997
1.1368523949169111
1.1329423264907137
1.1378299120234605
1.1583577712609971
1.2003910068426198
1.267839687194526
1.3616813294232648
1.4809384164222874
1.6217008797653958
1.7771260997067448
1.93841642228739
2.0957966764418376
2.242424242424242
2.357771260997068
2.4486803519061584
2.532746823069404
2.6041055718475072
2.659824046920821
2.702834799608993
2.7341153470185726
2.755620723362659
2.768328445747801
2.774193548387097
2.7751710654936463
2.771260997067449
2.7595307917888565
2.740957966764418
2.717497556207233
2.6852394916911044
2.6451612903225805
2.598240469208211
2.5454545454545454
2.4887585532746823
2.4301075268817205
2.372434017595308
2.3167155425219943
2.264907135874878
2.218963831867057
2.1818181818181817
2.150537634408602
2.12316715542522
2.101661779081134
2.085043988269794
2.071358748778104
2.058651026392962
2.0449657869012707
2.029325513196481
2.0117302052785924
1.9902248289345064
1.9657869012707725
