ppg
2.744868035190616
2.757575757575758
2.758553274682307
2.7468230694037143
2.7233626588465296
2.6911045943304006
2.652003910068426
2.6050830889540566
2.5532746823069403
2.4975562072336266
2.4389051808406648
2.377321603128055
2.317693059628544
2.2580645161290325
2.190615835777126
2.120234604105572
2.047898338220919
1.975562072336266
1.905180840664712
1.8387096774193548
1.7790811339198436
1.7223851417399805
1.672531769305963
1.6373411534701858
1.6109481915933528
1.5943304007820136
1.58455522971652
1.576735092864125
1.5698924731182795
1.564027370478983
1.5562072336265884
1.5454545454545454
1.5347018572825024
1.521994134897361
1.509286412512219
1.4975562072336266
1.4868035190615836
1.478983382209189
1.4721407624633431
1.4613880742913
1.4467253176930597
1.4291300097751711
1.409579667644184
1.3861192570869991
1.359726295210166
1.3343108504398826
1.3128054740957966
1.2981427174975562
1.295210166177908
1.3118279569892473
1.343108504398827
1.392961876832845
1.4731182795698925
1.5796676441837731
1.70772238514174
1.8484848484848484
1.992179863147605
2.133919843597263
2.2668621700879767
2.383186705767351
2.4809384164222874
2.5610948191593352
2.6129032258064515
2.643206256109482
2.6637341153470184
2.6725317693059627
2.6695992179863146
2.6578690127077222
2.6373411534701856
2.6080156402737047
2.56891495601173
2.5219941348973607
2.4672531769305963
2.406647116324536
2.340175953079179
2.275659824046921
2.2130987292277613
2.1436950146627565
2.0733137829912023
2.002932551319648
1.9345063538611929
1.869012707722385
1.8084066471163245
1.7526881720430108
1.7038123167155426
1.66177908113392
1.6265884652981428
1.5992179863147604
1.5757575757575757
1.5513196480938416
1.5268817204301075
1.5034213098729228
1.482893450635386
1.4652981427174976
1.4516129032258065
1.4408602150537635
1.43108504398827
1.4213098729227762
1.4105571847507332
1.4027370478983383
1.3958944281524928
1.3870967741935485
1.375366568914956
1.359726295210166
1.3440860215053765
1.327468230694037
1.3098729227761483
1.289345063538612
1.2658846529814272
1.2404692082111437
1.217008797653959
1.2013685239491692
1.1974584555229717
1.209188660801564
1.241446725317693
1.2991202346041055
1.3822091886608017
1.487781036168133
1.6129032258064515
1.7517106549364614
1.8963831867057677
2.038123167155425
2.1700879765395893
2.2873900293255134
2.375366568914956
2.4408602150537635
2.4975562072336266
2.541544477028348
2.5698924731182795
2.582600195503421
2.579667644183773
2.5620723362658846
2.5347018572825024
2.4995112414467253
2.4565004887585533
2.407624633431085
2.3548387096774195
2.304985337243402
2.2531769305962857
2.193548387096774
2.129032258064516
2.060606060606061
1.991202346041056
1.9227761485826005
1.857282502443793
1.7917888563049853
1.7282502443792769
1.6686217008797657
1.6138807429130009
1.56891495601173
1.5317693059628543
1.495601173020528
1.4613880742913
1.43108504398827
1.4066471163245358
1.3870967741935485
1.3724340175953078
1.359726295210166
1.348973607038123
1.3411534701857282
1.3313782991202343
1.321603128054741
1.316715542521994
1.3128054740957966
1.3040078201368523
1.29227761485826
1.2776148582600195
1.262952101661779
1.2482893450635386
1.2346041055718475
1.219941348973607
1.2043010752688172
1.1896383186705768
1.176930596285435
1.1691104594330402
1.164222873900293
1.160312805474096
1.166177908113392
1.1896383186705768
1.2355816226783969
1.3069403714565004
1.401759530791789
1.5161290322580645
1.6441837732160314
1.7810361681329423
1.919843597262952
2.056695992179863
2.16911045943304
2.2629521016617797
2.355816226783969
2.4349951124144678
2.4995112414467253
2.547409579667644
2.576735092864125
2.587487781036168
2.581622678396872
2.5640273704789838
2.536656891495601
2.501466275659824
2.464320625610948
2.4222873900293256
2.3734115347018574
2.3196480938416424
2.260019550342131
2.1974584555229715
2.131964809384164
2.064516129032258
1.9960899315738023
1.9286412512218964
1.8621700879765395
1.7996089931573802
1.7429130009775171
1.6979472140762464
1.6578690127077225
1.6158357771260996
1.5777126099706744
1.5454545454545454
1.521016617790811
1.5034213098729228
1.4926686217008798
1.4868035190615836
1.482893450635386
1.478005865102639
1.474095796676442
1.4721407624633431
1.4682306940371457
1.4613880742913
1.452590420332356
1.4428152492668622
1.4320625610948192
1.4213098729227762
1.4105571847507332
1.3988269794721409
1.383186705767351
1.364613880742913
1.346041055718475
1.3264907135874875
1.3088954056695992
1.2913000977517106
1.2697947214076246
1.2482893450635386
1.2336265884652982
1.2316715542521994
1.249266862170088
1.2913000977517106
1.3616813294232648
1.4613880742913
1.58455522971652
1.7233626588465298
1.8494623655913975
1.967741935483871
2.0977517106549364
2.2248289345063537
2.340175953079179
2.4408602150537635
2.52297165200391
2.5855327468230693
2.6265884652981426
2.6471163245356792
2.6510263929618767
2.6392961876832843
2.6158357771261
2.5855327468230693
2.548387096774193
2.504398826979472
2.4545454545454546
2.39980449657869
2.340175953079179
2.275659824046921
2.209188660801564
2.1417399804496577
2.074291300097752
2.005865102639296
1.9374389051808407
1.8778103616813293
1.8240469208211143
1.7673509286412512
1.729227761485826
1.7018572825024438
1.6656891495601174
1.6275659824046922
1.5923753665689149
1.5650048875855327
1.544477028347996
1.530791788856305
1.5239491691104594
1.521016617790811
1.521016617790811
1.521994134897361
1.5239491691104594
1.5268817204301075
1.5268817204301075
1.521994134897361
1.5112414467253177
1.4946236559139785
1.4731182795698925
1.4486803519061584
1.423264907135875
1.4007820136852396
1.3851417399804498
1.3734115347018572
1.3587487781036167
1.3401759530791788
1.3196480938416422
1.3010752688172045
1.284457478005865
1.2756598240469208
1.2825024437927663
1.3118279569892473
1.367546432062561
1.4516129032258065
1.543499511241447
1.64613880742913
1.7732160312805474
1.9120234604105573
2.0527859237536656
2.185728250244379
2.304985337243402
2.406647116324536
2.490713587487781
2.555229716520039
2.6021505376344085
2.632453567937439
2.64613880742913
2.644183773216031
2.632453567937439
2.6129032258064515
2.5865102639296187
2.552297165200391
2.509286412512219
2.458455522971652
2.398826979472141
2.3304007820136854
2.2561094819159337
2.177908113391984
2.0957966764418376
2.022482893450636
1.95405669599218
1.8807429130009776
1.8084066471163245
1.7409579667644184
1.6793743890518085
1.6265884652981428
1.5835777126099706
1.547409579667644
1.5180840664711632
1.4926686217008798
1.4682306940371457
1.447702834799609
1.4349951124144673
1.4271749755620724
1.4213098729227762
1.41544477028348
1.4066471163245358
1.396871945259042
1.388074291300098
1.3792766373411536
1.3685239491691104
1.3577712609970674
1.3450635386119256
1.332355816226784
1.3225806451612905
1.313782991202346
1.3010752688172045
1.2854349951124144
1.2697947214076246
1.2531769305962854
1.2346041055718475
1.2140762463343109
1.195503421309873
1.181818181818182
1.1759530791788857
1.18475073313783
1.2130987292277615
1.2561094819159335
1.3176930596285434
1.4076246334310851
1.521994134897361
1.6559139784946235
1.8005865102639296
1.9472140762463344
2.088954056695992
2.220918866080156
2.3362658846529816
2.4330400782013686
2.5112414467253177
2.563049853372434
2.593352883675464
2.613880742913001
2.624633431085044
2.6236559139784945
2.6129032258064515
2.593352883675464
2.5640273704789838
2.5249266862170088
2.4789833822091887
2.426197458455523
2.366568914956012
2.303030303030303
2.244379276637341
2.1867057673509285
2.120234604105572
2.0527859237536656
1.986314760508309
1.919843597262952
1.8523949169110456
1.7859237536656891
1.7233626588465298
1.6656891495601174
1.6187683284457477
1.5835777126099706
1.5620723362658846
1.5503421309872922
1.542521994134897
1.5405669599217986
1.5405669599217986
1.543499511241447
1.5493646138807429
1.5532746823069403
1.5571847507331378
1.5591397849462365
1.560117302052786
1.560117302052786
1.5591397849462365
1.5581622678396871
1.5562072336265884
1.5513196480938416
1.543499511241447
1.5317693059628543
1.5161290322580645
1.4965786901270772
1.4760508308895406
1.4545454545454546
1.4320625610948192
1.412512218963832
1.3988269794721409
1.3919843597262953
1.393939393939394
1.4086021505376345
1.444770283479961
1.5053763440860215
1.5894428152492668
1.699902248289345
1.8328445747800584
1.978494623655914
2.1309872922776147
2.283479960899316
2.4252199413489737
2.5513196480938416
2.6471163245356792
2.7145650048875853
2.771260997067449
2.8132942326490715
2.8377321603128056
2.8426197458455524
2.831867057673509
2.811339198435973
2.782013685239492
2.744868035190616
2.697947214076246
2.643206256109482
2.589442815249267
2.532746823069404
2.4672531769305963
2.393939393939394
2.314760508308896
2.231671554252199
2.144672531769306
2.053763440860215
1.964809384164223
1.8797653958944285
1.8025415444770283
1.7331378299120237
1.6695992179863148
1.6207233626588464
1.5835777126099706
1.5493646138807429
1.5190615835777126
1.4946236559139785
1.4750733137829912
1.4594330400782014
1.447702834799609
1.439882697947214
1.435972629521017
1.434017595307918
1.4330400782013686
1.4330400782013686
1.4301075268817205
1.423264907135875
1.4134897360703813
1.401759530791789
1.3870967741935485
1.3695014662756595
1.3479960899315735
1.3235581622678396
1.2971652003910068
1.2668621700879763
1.2326490713587488
1.1974584555229717
1.1671554252199414
1.1407624633431086
1.1114369501466277
1.0899315738025417
1.086021505376344
1.1085043988269794
1.1612903225806452
1.2443792766373412
1.3577712609970674
1.4975562072336266
1.6520039100684265
1.8132942326490715
1.95405669599218
2.0762463343108504
2.20039100684262
2.3118279569892475
2.406647116324536
2.4819159335288368
2.5376344086021505
2.5747800586510263
2.591397849462365
2.590420332355816
2.573802541544477
2.5454545454545454
2.50733137829912
2.4672531769305963
2.4252199413489737
2.377321603128055
2.3255131964809386
2.269794721407625
2.209188660801564
2.145650048875855
2.083088954056696
2.018572825024438
1.963831867057673
1.9149560117302051
1.8641251221896384
1.8211143695014664
1.7810361681329423
1.7380254154447703
1.6950146627565983
1.653958944281525
1.616813294232649
1.585532746823069
1.5610948191593352
1.541544477028348
1.5278592375366569
1.520039100684262
1.5161290322580645
1.5151515151515151
1.5161290322580645
1.5141739980449658
1.5083088954056696
1.500488758553275
1.490713587487781
1.479960899315738
1.466275659824047
1.452590420332356
1.4389051808406648
1.4252199413489737
1.4134897360703813
1.4027370478983383
1.3949169110459434
1.388074291300098
1.3773216031280548
1.3636363636363635
1.348973607038123
1.335288367546432
1.3264907135874875
1.3255131964809383
1.3391984359726294
1.3714565004887584
1.4252199413489737
1.501466275659824
1.581622678396872
1.6686217008797657
1.7771260997067448
1.895405669599218
2.0175953079178885
2.134897360703812
2.242424242424242
2.3362658846529816
2.4144672531769307
2.4760508308895406
2.52297165200391
2.5542521994134897
2.5698924731182795
2.5718475073313782
2.5640273704789838
2.547409579667644
2.5210166177908118
2.484848484848485
2.439882697947214
2.386119257086999
2.324535679374389
2.2580645161290325
2.188660801564027
2.118279569892473
2.048875855327468
1.991202346041056
1.9393939393939397
1.884652981427175
1.833822091886608
1.7869012707722385
1.7438905180840665
1.7038123167155426
1.667644183773216
1.6363636363636365
1.6099706744868034
1.5865102639296187
1.5650048875855327
1.5454545454545454
1.5298142717497556
1.517106549364614
1.504398826979472
1.4926686217008798
1.482893450635386
1.4760508308895406
1.4701857282502444
1.4643206256109482
1.458455522971652
1.4535679374389052
1.4486803519061584
1.4418377321603129
1.435972629521017
1.4320625610948192
1.4252199413489737
1.4134897360703813
1.3998044965786902
1.3851417399804498
1.367546432062561
1.346041055718475
1.3255131964809383
1.3098729227761483
1.3049853372434017
1.3147605083088951
1.3450635386119256
1.3900293255131966
1.452590420332356
1.543499511241447
1.6549364613880744
1.780058651026393
1.911045943304008
2.0410557184750733
2.1652003910068425
2.27761485826002
2.3743890518084068
2.4574780058651027
2.525904203323558
2.573802541544477
2.6050830889540566
2.631476050830889
2.649071358748778
2.6578690127077222
2.6559139784946235
2.6422287390029324
2.618768328445748
2.5865102639296187
2.5454545454545454
2.498533724340176
2.443792766373412
2.383186705767351
2.3255131964809386
2.2688172043010755
2.2052785923753664
2.1407624633431084
2.074291300097752
2.0087976539589443
1.9472140762463344
1.8885630498533723
1.836754643206256
1.7917888563049853
1.7526881720430108
1.718475073313783
1.694037145650049
1.6764418377321604
1.6598240469208212
1.6471163245356797
1.6392961876832846
1.635386119257087
1.6334310850439884
1.6334310850439884
1.6334310850439884
1.632453567937439
1.6314760508308896
1.6314760508308896
1.6285434995112416
1.624633431085044
1.619745845552297
1.6138807429130009
1.6099706744868034
1.6080156402737047
1.607038123167155
1.6050830889540566
1.6001955034213098
1.5923753665689149
1.5835777126099706
1.5728250244379276
1.5610948191593352
1.5532746823069403
1.555229716520039
1.5708699902248289
1.607038123167155
1.6666666666666667
1.750733137829912
1.8533724340175952
1.970674486803519
2.0948191593352883
2.218963831867057
2.3362658846529816
2.4408602150537635
2.529814271749756
2.593352883675464
2.6392961876832843
2.679374389051808
2.70772238514174
2.7253176930596283
2.732160312805474
2.730205278592375
2.719452590420332
2.697947214076246
2.668621700879765
2.63049853372434
2.58455522971652
2.5376344086021505
2.486803519061584
2.4281524926686218
2.363636363636364
2.2952101661779083
2.2248289345063537
2.155425219941349
2.0879765395894427
2.026392961876833
1.970674486803519
1.921798631476051
1.8778103616813293
1.8406647116324533
1.8142717497556209
1.7956989247311828
1.7810361681329423
1.7712609970674489
1.7644183773216031
1.758553274682307
1.7526881720430108
1.7468230694037146
1.7419354838709675
1.737047898338221
1.7311827956989247
1.7233626588465298
1.7145650048875856
1.704789833822092
1.6920821114369502
1.678396871945259
1.6608015640273706
1.640273704789834
1.6187683284457477
1.5943304007820136
1.5679374389051808
1.541544477028348
1.5141739980449658
1.4868035190615836
1.4594330400782014
1.4379276637341154
1.4213098729227762
1.4066471163245358
1.4027370478983383
1.4173998044965788
1.4545454545454546
1.517106549364614
1.606060606060606
1.7174975562072337
1.844574780058651
1.981427174975562
2.118279569892473
2.231671554252199
2.326490713587488
2.4173998044965788
2.4946236559139785
2.5562072336265884
2.6021505376344085
2.633431085043988
2.650048875855328
2.653958944281525
2.6451612903225805
2.625610948191593
2.5962854349951123
2.5620723362658846
2.52297165200391
2.4780058651026398
2.4281524926686218
2.3792766373411536
2.3284457478005867
2.267839687194526
2.203323558162268
2.1378299120234603
2.0733137829912023
2.0097751710654936
1.9472140762463344
1.8875855327468232
1.835777126099707
1.7917888563049853
1.747800586510264
1.70772238514174
1.6715542521994136
1.6392961876832846
1.6109481915933528
1.5894428152492668
1.573802541544477
1.560117302052786
1.547409579667644
1.5347018572825024
1.525904203323558
1.521016617790811
1.5190615835777126
1.5180840664711632
1.5161290322580645
1.5112414467253177
1.5024437927663734
1.4926686217008798
1.4819159335288368
1.4701857282502444
1.457478005865103
1.4428152492668622
1.426197458455523
1.412512218963832
1.3998044965786902
1.3851417399804498
1.367546432062561
1.348973607038123
1.332355816226784
1.3235581622678396
1.3333333333333333
1.3685239491691104
1.4330400782013686
1.525904203323558
1.6412512218963833
1.7546432062561097
1.8699902248289344
2.002932551319648
2.1388074291300097
2.2688172043010755
2.3851417399804498
2.4858260019550342
2.565982404692082
2.6236559139784945
2.6608015640273703
2.681329423264907
2.6852394916911044
2.675464320625611
2.6578690127077222
2.634408602150537
2.6041055718475072
2.567937438905181
2.525904203323558
2.4809384164222874
2.43108504398827
2.375366568914956
2.315738025415445
2.2531769305962857
2.187683284457478
2.118279569892473
2.056695992179863
2.0009775171065494
1.9403714565004888
1.8778103616813293
1.8201368523949168
1.7653958944281525
1.7145650048875856
1.6705767350928642
1.632453567937439
1.6001955034213098
1.5728250244379276
1.5503421309872922
1.533724340175953
1.52297165200391
1.5141739980449658
1.504398826979472
1.4936461388074291
1.4819159335288368
1.4701857282502444
1.4594330400782014
1.447702834799609
1.435972629521017
1.4242424242424243
1.412512218963832
1.4027370478983383
1.396871945259042
1.3919843597262953
1.3870967741935485
1.380254154447703
1.3695014662756595
1.35386119257087
1.3333333333333333
1.3079178885630498
1.284457478005865
1.267839687194526
1.2658846529814272
1.2834799608993157
1.3264907135874875
1.3851417399804498
1.4623655913978495
1.5698924731182795
1.7018572825024438
1.8465298142717497
1.9951124144672527
2.1388074291300097
2.271749755620724
2.388074291300098
2.4858260019550342
2.563049853372434
2.618768328445748
2.650048875855328
2.662756598240469
2.664711632453568
2.6559139784946235
2.638318670576735
2.610948191593353
2.573802541544477
2.530791788856305
2.479960899315738
2.423264907135875
2.3626588465298144
2.300097751710655
2.232649071358749
2.1700879765395893
2.1094819159335287
2.042033235581622
1.970674486803519
1.8993157380254155
1.83088954056696
1.7663734115347018
1.7067448680351909
1.653958944281525
1.6080156402737047
1.5708699902248289
1.542521994134897
1.5239491691104594
1.512218963831867
1.5034213098729228
1.498533724340176
1.4975562072336266
1.498533724340176
1.499511241446725
1.499511241446725
1.499511241446725
1.499511241446725
1.4965786901270772
1.4897360703812317
1.479960899315738
1.4721407624633431
1.4652981427174976
1.4535679374389052
1.435972629521017
1.4173998044965788
1.3998044965786902
1.3822091886608017
1.3626588465298142
1.3421309872922775
1.3196480938416422
1.2981427174975562
1.2825024437927663
1.2756598240469208
1.2834799608993157
1.3118279569892473
1.3665689149560116
1.4506353861192571
1.5610948191593352
1.6959921798631477
1.8465298142717497
2.0009775171065494
2.150537634408602
2.2873900293255134
2.406647116324536
2.506353861192571
2.576735092864125
2.622678396871945
2.658846529814272
2.681329423264907
2.6901270772238512
2.6852394916911044
2.670576735092864
2.6471163245356792
2.6148582600195502
2.572825024437928
2.52297165200391
2.4682306940371457
2.4134897360703813
2.356793743890518
2.29227761485826
2.220918866080156
2.146627565982405
2.072336265884653
1.997067448680352
1.9237536656891496
1.8523949169110456
1.7839687194525904
1.7194525904203324
1.6598240469208212
1.6138807429130009
1.5796676441837731
1.5483870967741935
1.52297165200391
1.5024437927663734
1.487781036168133
1.478983382209189
1.4750733137829912
1.4731182795698925
1.4721407624633431
1.4711632453567938
1.4711632453567938
1.4711632453567938
1.4711632453567938
1.4682306940371457
1.4604105571847508
1.4516129032258065
1.4408602150537635
1.4281524926686218
1.4134897360703813
1.3978494623655917
1.3812316715542523
1.3607038123167154
1.3362658846529814
2.6510263929618767
2.636363636363636
2.603128054740958
2.5542521994134897
2.4916911045943304
2.419354838709677
2.3382209188660803
2.251221896383187
2.163245356793744
2.075268817204301
1.988269794721408
1.903225806451613
1.8211143695014664
1.7448680351906158
1.6823069403714566
1.6285434995112416
1.5728250244379276
1.521016617790811
1.4760508308895406
1.439882697947214
1.4134897360703813
1.392961876832845
1.3792766373411536
1.3724340175953078
1.3695014662756595
1.367546432062561
1.3685239491691104
1.370478983382209
1.3714565004887584
1.3724340175953078
1.3695014662756595
1.3607038123167154
1.3499511241446724
1.335288367546432
1.3176930596285434
1.2991202346041055
1.2795698924731185
1.2570869990224829
1.23069403714565
1.2072336265884651
1.18475073313783
1.1564027370478984
1.130987292277615
1.1124144672531768
1.1065493646138806
1.1231671554252198
1.1691104594330402
1.2482893450635386
1.3587487781036167
1.4975562072336266
1.66177908113392
1.8142717497556209
1.95405669599218
2.104594330400782
2.251221896383187
2.3851417399804498
2.5004887585532747
2.593352883675464
2.667644183773216
2.7223851417399803
2.7565982404692084
2.7722385141739982
2.76930596285435
2.752688172043011
2.7262952101661777
2.695014662756598
2.654936461388074
2.6080156402737047
2.555229716520039
2.493646138807429
2.4252199413489737
2.3519061583577714
2.271749755620724
2.187683284457478
2.1006842619745845
2.0146627565982405
1.9403714565004888
1.8729227761485825
1.8025415444770283
1.737047898338221
1.6735092864125125
1.6138807429130009
1.5620723362658846
1.517106549364614
1.478983382209189
1.4496578690127078
1.4301075268817205
1.418377321603128
1.412512218963832
1.4115347018572826
1.412512218963832
1.4134897360703813
1.4134897360703813
1.4115347018572826
1.4056695992179864
1.3958944281524928
1.3822091886608017
1.3636363636363635
1.3421309872922775
1.321603128054741
1.303030303030303
1.2913000977517106
1.2825024437927663
1.2697947214076246
1.2541544477028348
1.2355816226783969
1.2160312805474096
1.1964809384164223
1.1779081133919844
1.1652003910068427
1.1691104594330402
1.198435972629521
1.2561094819159335
1.3470185728250244
1.4506353861192571
1.5698924731182795
1.721407624633431
1.8934506353861196
2.074291300097752
2.2521994134897363
2.418377321603128
2.5669599217986314
2.687194525904203
2.7781036168132944
2.844574780058651
2.8856304985337244
2.903225806451613
2.903225806451613
2.89345063538612
2.870967741935484
2.8377321603128056
2.7947214076246336
2.7438905180840663
2.684261974584555
2.616813294232649
2.5425219941348973
2.4604105571847508
2.372434017595308
2.2825024437927666
2.201368523949169
2.12316715542522
2.0391006842619745
1.9560117302052784
1.8748778103616808
1.8005865102639296
1.7360703812316716
1.6793743890518085
1.6304985337243405
1.5894428152492668
1.555229716520039
1.5298142717497556
1.5131964809384164
1.501466275659824
1.4916911045943304
1.4887585532746823
1.4926686217008798
1.501466275659824
1.5112414467253177
1.5180840664711632
1.521016617790811
1.52297165200391
1.521994134897361
1.5161290322580645
1.5063538611925709
1.498533724340176
1.4887585532746823
1.4721407624633431
1.4496578690127078
1.4252199413489737
1.4007820136852396
1.3763440860215057
1.3509286412512218
1.327468230694037
1.310850439882698
1.3040078201368523
1.3128054740957966
1.3343108504398826
1.3743890518084063
1.4437927663734116
1.5454545454545454
1.6764418377321604
1.8318670576735088
2.0
2.172043010752688
2.340175953079179
2.496578690127077
2.631476050830889
2.7419354838709675
2.819159335288368
2.8719452590420333
2.9120234604105573
2.935483870967742
2.943304007820137
2.9374389051808407
2.918866080156403
2.8885630498533725
2.8484848484848486
2.798631476050831
2.740957966764418
2.67644183773216
2.603128054740958
2.529814271749756
2.4574780058651027
2.375366568914956
2.2873900293255134
2.198435972629521
2.1094819159335287
2.0234604105571847
1.945259042033236
1.871945259042033
1.8025415444770283
1.737047898338221
1.6764418377321604
1.629521016617791
1.590420332355816
1.5542521994134897
1.525904203323558
1.504398826979472
1.4897360703812317
1.482893450635386
1.478983382209189
1.4750733137829912
1.4682306940371457
1.458455522971652
1.4467253176930597
1.434017595307918
1.4242424242424243
1.41544477028348
1.4027370478983383
