ppg
2.5464320625610948
2.652003910068426
2.742913000977517
2.819159335288368
2.8807429130009776
2.929618768328446
2.9579667644183774
2.972629521016618
2.98435972629521
2.991202346041056
2.992179863147605
2.986314760508309
2.973607038123167
2.956011730205278
2.9335288367546437
2.9071358748778104
2.87683284457478
2.8426197458455524
2.8054740957966766
2.7653958944281527
2.720430107526881
2.670576735092864
2.6148582600195502
2.5542521994134897
2.486803519061584
2.4144672531769307
2.3382209188660803
2.2580645161290325
2.174975562072336
2.09188660801564
2.0097751710654936
1.9403714565004888
1.8797653958944285
1.8191593352883677
1.7624633431085044
1.7126099706744868
1.6705767350928642
1.635386119257087
1.606060606060606
1.5806451612903225
1.560117302052786
1.542521994134897
1.5268817204301075
1.5151515151515151
1.5053763440860215
1.4926686217008798
1.478983382209189
1.4643206256109482
1.4496578690127078
1.434017595307918
1.418377321603128
1.401759530791789
1.3851417399804498
1.367546432062561
1.3499511241446724
1.3313782991202343
1.316715542521994
1.3049853372434017
1.2913000977517106
1.2776148582600195
1.2639296187683284
1.2502443792766371
1.2365591397849462
1.224828934506354
1.2140762463343109
1.203323558162268
1.1945259042033236
1.1857282502443791
1.1808406647116323
1.176930596285435
1.1710654936461389
1.163245356793744
1.155425219941349
1.147605083088954
1.13880742913001
1.1300097751710656
1.121212121212121
1.1124144672531768
1.1055718475073313
1.0987292277614855
1.0918866080156402
1.0879765395894427
1.0850439882697946
1.0801564027370478
1.0742913000977516
1.0684261974584557
1.0625610948191593
1.0576735092864125
1.053763440860215
1.0498533724340176
1.0469208211143697
1.0449657869012707
1.043010752688172
1.043010752688172
1.0449657869012707
1.04594330400782
1.0449657869012707
1.0439882697947214
1.0420332355816226
1.040078201368524
1.0381231671554252
1.0361681329423265
1.0332355816226784
1.032258064516129
1.0361681329423265
1.0478983382209188
1.0684261974584557
1.1006842619745845
1.1515151515151516
1.2238514173998043
1.3186705767350928
1.4330400782013686
1.5620723362658846
1.699902248289345
1.8406647116324533
1.978494623655914
2.10850439882698
2.225806451612903
2.3167155425219943
2.388074291300098
2.455522971652004
2.515151515151515
2.5650048875855327
2.6041055718475072
2.633431085043988
2.6529814271749754
2.664711632453568
2.6695992179863146
2.6695992179863146
2.6637341153470184
2.6529814271749754
2.6373411534701856
2.6177908113391983
2.5962854349951123
2.570869990224829
2.5425219941348973
2.5102639296187683
2.4731182795698925
2.43108504398827
2.383186705767351
2.3284457478005867
2.2688172043010755
2.204301075268817
2.1436950146627565
2.0840664711632453
2.01564027370479
1.943304007820137
1.870967741935484
1.8025415444770283
1.7380254154447703
1.6813294232649072
1.6334310850439884
1.5933528836754642
1.5620723362658846
1.5386119257087
1.520039100684262
1.5073313782991202
1.498533724340176
1.490713587487781
1.482893450635386
1.4750733137829912
1.4672531769305963
1.4594330400782014
1.4506353861192571
1.439882697947214
1.4271749755620724
1.412512218963832
1.396871945259042
1.3841642228739004
1.3724340175953078
1.3577712609970674
1.3440860215053765
1.3313782991202343
1.3186705767350928
1.3069403714565004
1.2961876832844574
1.2873900293255132
1.2805474095796676
1.273704789833822
1.267839687194526
1.2619745845552297
1.2580645161290325
1.2561094819159335
1.252199413489736
1.2473118279569892
1.2424242424242424
1.238514173998045
1.2355816226783969
1.2326490713587488
1.23069403714565
1.2287390029325511
1.227761485826002
1.227761485826002
1.2287390029325511
1.23069403714565
1.23069403714565
1.2297165200391007
1.2287390029325511
1.227761485826002
1.227761485826002
1.227761485826002
1.227761485826002
1.227761485826002
1.2287390029325511
1.23069403714565
1.2326490713587488
1.2355816226783969
1.2394916911045943
1.2424242424242424
1.2453567937438903
1.2473118279569892
1.249266862170088
1.249266862170088
1.2482893450635386
1.2473118279569892
1.2453567937438903
1.2434017595307918
1.2346041055718475
1.2258064516129032
1.2238514173998043
1.2267839687194526
1.238514173998045
1.2609970674486803
1.2981427174975562
1.3558162267839686
1.435972629521017
1.5376344086021505
1.6598240469208212
1.7986314760508308
1.946236559139785
2.096774193548387
2.2238514173998043
2.334310850439883
2.450635386119257
2.5610948191593352
2.659824046920821
2.7438905180840663
2.814271749755621
2.8699902248289346
2.9120234604105573
2.9423264907135875
2.962854349951124
2.973607038123167
2.972629521016618
2.964809384164223
2.9550342130987293
2.9423264907135875
2.9257086999022484
2.905180840664712
2.8797653958944283
2.850439882697948
2.81622678396872
2.7781036168132944
2.736070381231672
2.6881720430107525
2.6392961876832843
2.5884652981427174
2.529814271749756
2.463343108504399
2.391006842619746
2.313782991202346
2.233626588465298
2.1515151515151514
2.069403714565005
1.989247311827957
1.9120234604105573
1.8416422287390029
1.7790811339198436
1.7302052785923754
1.6901270772238517
1.6529814271749756
1.619745845552297
1.5923753665689149
1.5698924731182795
1.5513196480938416
1.5347018572825024
1.5190615835777126
1.504398826979472
1.4897360703812317
1.4750733137829912
1.4613880742913
1.4496578690127078
1.434017595307918
1.4164222873900294
1.3988269794721409
1.380254154447703
1.3607038123167154
1.3411534701857282
1.3235581622678396
1.3069403714565004
1.2903225806451613
1.2746823069403714
1.2609970674486803
1.2512218963831867
1.2443792766373412
1.2355816226783969
1.2267839687194526
1.2179863147605083
1.2101661779081134
1.203323558162268
1.1964809384164223
1.1886608015640274
1.1808406647116323
1.1730205278592376
1.1652003910068427
1.160312805474096
1.1583577712609971
1.1544477028347997
1.1495601173020529
1.144672531769306
1.1407624633431086
1.1358748778103618
1.130987292277615
1.1251221896383188
1.1192570869990224
1.1133919843597262
1.10752688172043
1.1016617790811338
1.0987292277614855
1.0977517106549364
1.093841642228739
1.0899315738025417
1.086021505376344
1.0821114369501466
1.0791788856304985
1.0762463343108504
1.0733137829912025
1.0694037145650048
1.0654936461388074
1.06158357771261
1.0596285434995112
1.0576735092864125
1.0527859237536656
1.0469208211143697
1.0420332355816226
1.0410557184750733
1.0469208211143697
1.064516129032258
1.0977517106549364
1.1515151515151516
1.227761485826002
1.3255131964809383
1.4418377321603129
1.5532746823069403
1.6637341153470186
1.790811339198436
1.9227761485826005
2.0498533724340176
2.1681329423264906
2.2737047898338223
2.3655913978494625
2.442815249266862
2.506353861192571
2.5562072336265884
2.593352883675464
2.6158357771261
2.627565982404692
2.6373411534701856
2.6422287390029324
2.6422287390029324
2.636363636363636
2.625610948191593
2.610948191593353
2.593352883675464
2.5718475073313782
2.547409579667644
2.5190615835777126
2.486803519061584
2.4516129032258065
2.4144672531769307
2.36950146627566
2.317693059628544
2.2580645161290325
2.1925708699902247
2.121212121212121
2.04594330400782
1.9687194525904204
1.889540566959922
1.812316715542522
1.7380254154447703
1.6774193548387095
1.6265884652981428
1.576735092864125
1.533724340175953
1.4975562072336266
1.4682306940371457
1.444770283479961
1.4271749755620724
1.412512218963832
1.4007820136852396
1.391006842619746
1.3812316715542523
1.3714565004887584
1.3636363636363635
1.356793743890518
1.3470185728250244
1.3362658846529814
1.324535679374389
1.3128054740957966
1.300097751710655
1.2864125122189638
1.2727272727272727
1.2590420332355816
1.24633431085044
1.2346041055718475
1.2267839687194526
1.2209188660801564
1.2130987292277615
1.206256109481916
1.2003910068426198
1.195503421309873
1.1915933528836755
1.187683284457478
1.1837732160312806
1.1808406647116323
1.1779081133919844
1.1749755620723363
1.1730205278592376
1.1730205278592376
1.173998044965787
1.173998044965787
1.1720430107526882
1.1700879765395895
1.1671554252199414
1.164222873900293
1.1622678396871946
1.160312805474096
1.1583577712609971
1.1573802541544478
1.1564027370478984
1.1583577712609971
1.1612903225806452
1.1622678396871946
1.163245356793744
1.164222873900293
1.166177908113392
1.1691104594330402
1.1720430107526882
1.1759530791788857
1.1798631476050832
1.1837732160312806
1.187683284457478
1.1915933528836755
1.1964809384164223
1.2003910068426198
1.2023460410557183
1.203323558162268
1.203323558162268
1.2023460410557183
1.2023460410557183
1.203323558162268
1.209188660801564
1.2238514173998043
1.252199413489736
1.2991202346041055
1.35386119257087
1.423264907135875
1.520039100684262
1.6392961876832846
1.7761485826001957
1.9237536656891496
2.075268817204301
2.2238514173998043
2.363636363636364
2.4916911045943304
2.6050830889540566
2.701857282502444
2.771260997067449
2.820136852394917
2.866080156402737
2.9042033235581624
2.932551319648094
2.952101661779081
2.9667644183773216
2.9765395894428157
2.9765395894428157
2.9696969696969697
2.956011730205278
2.93841642228739
2.9159335288367547
2.8885630498533725
2.857282502443793
2.823069403714565
2.7859237536656893
2.744868035190616
2.6989247311827955
2.6471163245356792
2.589442815249267
2.5249266862170088
2.453567937438905
2.377321603128055
2.2961876832844577
2.219941348973607
2.146627565982405
2.067448680351906
1.9872922776148585
1.9090909090909087
1.836754643206256
1.7712609970674489
1.7135874877810362
1.664711632453568
1.624633431085044
1.5913978494623655
1.564027370478983
1.542521994134897
1.525904203323558
1.5141739980449658
1.501466275659824
1.487781036168133
1.474095796676442
1.4594330400782014
1.4437927663734116
1.4271749755620724
1.4105571847507332
1.392961876832845
1.3743890518084063
1.3558162267839686
1.3411534701857282
1.327468230694037
1.3118279569892473
1.2961876832844574
1.2805474095796676
1.2639296187683284
1.2482893450635386
1.2336265884652982
1.219941348973607
1.2082111436950147
1.1974584555229717
1.1867057673509287
1.176930596285435
1.1710654936461389
1.1681329423264908
1.164222873900293
1.1593352883675463
1.1544477028347997
1.1495601173020529
1.144672531769306
1.1397849462365592
1.1358748778103618
1.1319648093841643
1.1270772238514175
1.1241446725317692
1.1241446725317692
1.126099706744868
1.1251221896383188
1.1231671554252198
1.1202346041055715
1.1173020527859236
1.1143695014662756
1.1124144672531768
1.110459433040078
1.1094819159335287
1.1085043988269794
1.10752688172043
1.1065493646138806
1.10752688172043
1.1085043988269794
1.1085043988269794
1.10752688172043
1.1055718475073313
1.1026392961876832
1.0987292277614855
1.0928641251221896
1.0850439882697946
1.0772238514173995
1.072336265884653
1.0733137829912025
1.0821114369501466
1.1026392961876832
1.1407624633431086
1.1994134897360704
1.2805474095796676
1.3841642228739004
1.5053763440860215
1.640273704789834
1.782991202346041
1.9257086999022484
2.06158357771261
2.187683284457478
2.300097751710655
2.386119257086999
2.452590420332356
2.515151515151515
2.56891495601173
2.611925708699902
2.6451612903225805
2.6695992179863146
2.686217008797654
2.695014662756598
2.697947214076246
2.695014662756598
2.686217008797654
2.6725317693059627
2.653958944281525
2.632453567937439
2.608993157380254
2.581622678396872
2.549364613880743
2.5141739980449658
2.4750733137829912
2.4301075268817205
2.378299120234604
2.3196480938416424
2.254154447702835
2.182795698924731
2.115347018572825
2.047898338220919
1.9716520039100685
1.89247311827957
1.812316715542522
1.7350928641251222
1.6627565982404693
1.5972629521016617
1.5395894428152492
1.490713587487781
1.4506353861192571
1.418377321603128
1.3949169110459434
1.3782991202346042
1.3626588465298142
1.348973607038123
1.3372434017595307
1.324535679374389
1.3118279569892473
1.2981427174975562
1.284457478005865
1.2688172043010753
1.2541544477028348
1.238514173998045
1.2228739002932552
1.2111436950146628
1.2003910068426198
1.187683284457478
1.1730205278592376
1.1593352883675463
1.1456500488758554
1.1319648093841643
1.1202346041055715
1.1094819159335287
1.1006842619745845
1.0928641251221896
1.086021505376344
1.083088954056696
1.083088954056696
1.0821114369501466
1.0811339198435972
1.0791788856304985
1.078201368523949
1.078201368523949
1.078201368523949
1.078201368523949
1.078201368523949
1.078201368523949
1.078201368523949
1.0791788856304985
1.0821114369501466
1.0869990224828934
1.0909090909090908
1.0928641251221896
1.093841642228739
1.0948191593352885
1.0957966764418376
1.0957966764418376
1.096774193548387
1.0987292277614855
1.1006842619745845
1.1026392961876832
1.1065493646138806
1.1114369501466277
1.1143695014662756
1.1173020527859236
1.1202346041055715
1.1221896383186705
1.1241446725317692
1.126099706744868
1.1270772238514175
1.1290322580645162
1.1300097751710656
1.130987292277615
1.130987292277615
1.1329423264907137
1.1368523949169111
1.141739980449658
1.1505376344086022
1.1691104594330402
1.2023460410557183
1.2541544477028348
1.327468230694037
1.4252199413489737
1.544477028347996
1.6823069403714566
1.8318670576735088
1.9667644183773216
2.090909090909091
2.228739002932551
2.3655913978494625
2.4946236559139785
2.6099706744868034
2.708699902248289
2.792766373411535
2.860215053763441
2.9120234604105573
2.951124144672532
2.978494623655914
2.9902248289345064
2.992179863147605
2.992179863147605
2.988269794721408
2.979472140762464
2.964809384164223
2.945259042033236
2.920821114369501
2.8914956011730206
2.859237536656892
2.823069403714565
2.782013685239492
2.73802541544477
2.69208211143695
2.643206256109482
2.5855327468230693
2.5210166177908118
2.449657869012708
2.3714565004887587
2.289345063538612
2.204301075268817
2.118279569892473
2.0332355816226784
1.9530791788856303
1.878787878787879
1.8054740957966764
1.7350928641251222
1.675464320625611
1.6265884652981428
1.5865102639296187
1.555229716520039
1.5288367546432062
1.5083088954056696
1.490713587487781
1.474095796676442
1.458455522971652
1.4437927663734116
1.4291300097751711
1.4164222873900294
1.4037145650048877
1.388074291300098
1.370478983382209
1.3519061583577712
1.332355816226784
1.313782991202346
1.295210166177908
1.2766373411534702
1.2580645161290325
1.2404692082111437
1.2238514173998043
1.2111436950146628
1.2013685239491692
1.1896383186705768
1.1779081133919844
1.1671554252199414
1.1564027370478984
1.1466275659824048
1.1378299120234605
1.1290322580645162
1.121212121212121
1.1143695014662756
1.1094819159335287
1.104594330400782
1.1026392961876832
1.1026392961876832
1.099706744868035
1.0957966764418376
1.0909090909090908
1.0850439882697946
1.0791788856304985
1.0742913000977516
1.0694037145650048
1.0654936461388074
1.0625610948191593
1.06158357771261
1.0625610948191593
1.0654936461388074
1.067448680351906
1.0684261974584557
1.0684261974584557
1.0684261974584557
1.0684261974584557
1.0694037145650048
1.0703812316715542
1.0713587487781036
1.0733137829912025
1.0742913000977516
1.0742913000977516
1.0762463343108504
1.0801564027370478
1.0801564027370478
1.078201368523949
1.075268817204301
1.0733137829912025
1.075268817204301
1.0850439882697946
1.1085043988269794
1.1505376344086022
1.2140762463343109
1.300097751710655
1.391006842619746
1.490713587487781
1.6158357771260996
1.7556207233626588
1.9012707722385145
2.0449657869012707
2.1808406647116323
2.304985337243402
2.4134897360703813
2.506353861192571
2.581622678396872
2.6422287390029324
2.689149560117302
2.717497556207233
2.7331378299120237
2.745845552297165
2.7536656891495603
2.755620723362659
2.7517106549364616
2.742913000977517
2.729227761485826
2.7116324535679373
2.689149560117302
2.662756598240469
2.632453567937439
2.5992179863147604
2.563049853372434
2.5210166177908118
2.474095796676442
2.4222873900293256
2.3626588465298144
2.297165200391007
2.2248289345063537
2.147605083088954
2.065493646138808
1.9804496578690127
1.8944281524926687
1.8093841642228736
1.737047898338221
1.6735092864125125
1.6080156402737047
1.547409579667644
1.4926686217008798
1.444770283479961
1.404692082111437
1.3724340175953078
1.346041055718475
1.3235581622678396
1.3049853372434017
1.2883675464320623
1.2766373411534702
1.2658846529814272
1.2541544477028348
1.2404692082111437
1.224828934506354
1.2082111436950147
1.1906158357771262
1.1710654936461389
1.1505376344086022
1.1300097751710656
1.110459433040078
1.0909090909090908
1.072336265884653
1.0586510263929618
1.0469208211143697
1.0332355816226784
1.0195503421309873
1.0048875855327468
0.9921798631476052
0.981427174975562
0.9716520039100685
0.9638318670576737
0.956989247311828
0.9511241446725318
0.946236559139785
0.9452590420332356
0.946236559139785
0.9452590420332356
0.9442815249266864
0.9433040078201368
0.9423264907135877
0.9423264907135877
0.9423264907135877
0.9423264907135877
0.9423264907135877
0.9423264907135877
0.9433040078201368
0.946236559139785
0.9511241446725318
0.956989247311828
0.9608993157380256
0.9648093841642228
0.9687194525904204
0.9726295210166178
0.9765395894428152
0.981427174975562
0.9872922776148584
0.9931573802541545
0.9990224828934506
1.0048875855327468
1.0127077223851415
1.021505376344086
1.0283479960899315
1.0332355816226784
1.0371456500488758
1.0391006842619743
1.040078201368524
1.0410557184750733
1.0410557184750733
1.0410557184750733
1.0420332355816226
1.0449657869012707
1.053763440860215
1.0713587487781036
1.1006842619745845
1.1485826001955035
1.2179863147605083
1.310850439882698
1.4271749755620724
1.564027370478983
1.715542521994135
1.8748778103616808
2.035190615835777
2.189638318670577
2.334310850439883
2.4486803519061584
2.541544477028348
2.635386119257087
2.721407624633431
2.7947214076246336
2.8563049853372435
2.905180840664712
2.941348973607038
2.9667644183773216
2.9824046920821115
2.989247311827957
2.9872922776148583
2.975562072336266
2.956989247311828
2.936461388074292
2.913978494623656
2.886608015640274
2.854349951124145
2.817204301075269
2.776148582600196
2.7311827956989245
2.681329423264907
2.624633431085044
2.5610948191593352
2.4916911045943304
2.423264907135875
2.3528836754643208
2.2737047898338223
2.188660801564027
2.101661779081134
2.01564027370479
1.9335288367546437
1.857282502443793
1.7878787878787878
1.7253176930596286
1.6715542521994136
1.6275659824046922
1.5943304007820136
1.56891495601173
1.5464320625610948
1.525904203323558
1.5083088954056696
1.4926686217008798
1.478005865102639
1.4623655913978495
1.4467253176930597
1.43108504398827
1.414467253176931
1.396871945259042
1.3782991202346042
1.3626588465298142
1.3479960899315735
1.3304007820136852
1.3118279569892473
1.2932551319648091
1.2746823069403714
1.2697947214076246
1.2727272727272727
1.2668621700879763
1.2570869990224829
1.2453567937438903
1.2346041055718475
1.2267839687194526
1.2209188660801564
1.2140762463343109
1.2072336265884651
1.2013685239491692
1.195503421309873
1.1896383186705768
1.1827956989247312
1.176930596285435
1.1710654936461389
1.1652003910068427
1.1612903225806452
1.1573802541544478
1.1564027370478984
1.1564027370478984
1.1544477028347997
1.1505376344086022
1.1466275659824048
1.142717497556207
1.1397849462365592
1.1378299120234605
1.1368523949169111
1.1358748778103618
1.1358748778103618
1.1358748778103618
1.1378299120234605
1.1407624633431086
1.141739980449658
1.142717497556207
1.142717497556207
1.142717497556207
1.142717497556207
1.142717497556207
1.142717497556207
1.142717497556207
1.142717497556207
1.142717497556207
1.1407624633431086
1.1407624633431086
1.141739980449658
1.1436950146627567
1.1495601173020529
1.1622678396871946
1.1886608015640274
1.2326490713587488
1.2981427174975562
1.3870967741935485
1.4965786901270772
1.6226783968719452
1.7605083088954057
1.884652981427175
1.9990224828934504
2.1251221896383186
2.251221896383187
2.36950146627566
2.4750733137829912
2.5669599217986314
2.6451612903225805
2.708699902248289
2.7595307917888565
2.798631476050831
2.827956989247312
2.8475073313782997
2.8533724340175954
2.8514173998044967
2.8475073313782997
2.8406647116324537
2.8289345063538613
2.811339198435973
2.788856304985337
2.760508308895406
2.727272727272727
2.689149560117302
2.64613880742913
2.598240469208211
2.549364613880743
2.498533724340176
2.439882697947214
2.3743890518084068
2.302052785923754
2.222873900293255
2.1388074291300097
2.050830889540567
1.9618768328445748
1.873900293255132
1.7898338220918866
1.7116324535679377
1.640273704789834
1.58455522971652
1.5395894428152492
1.4965786901270772
1.4594330400782014
1.4281524926686218
1.401759530791789
1.3792766373411536
1.3607038123167154
1.3440860215053765
1.3284457478005864
1.313782991202346
1.2991202346041055
1.2873900293255132
1.2766373411534702
1.2619745845552297
1.2453567937438903
1.227761485826002
1.209188660801564
1.1896383186705768
1.1691104594330402
1.1485826001955035
1.1280547409579669
1.1094819159335287
1.0909090909090908
1.072336265884653
1.0586510263929618
1.0478983382209188
1.0361681329423265
1.024437927663734
1.0127077223851415
1.0009775171065494
0.9902248289345064
0.981427174975562
0.975562072336266
0.9706744868035192
0.9667644183773216
0.9628543499511242
0.9628543499511242
0.9638318670576737
0.9628543499511242
0.9608993157380256
0.9589442815249268
0.9579667644183774
0.956989247311828
0.956989247311828
0.9560117302052786
0.9550342130987292
0.9550342130987292
0.9550342130987292
0.9560117302052786
0.959921798631476
0.9657869012707724
0.9706744868035192
0.975562072336266
0.981427174975562
0.9872922776148584
0.9941348973607038
1.0009775171065494
1.0068426197458455
1.013685239491691
1.021505376344086
1.0283479960899315
1.0361681329423265
1.0449657869012707
1.0518084066471165
1.056695992179863
1.0606060606060606
1.0635386119257086
1.0654936461388074
1.0684261974584557
1.0733137829912025
1.083088954056696
1.1016617790811338
1.1348973607038124
1.1759530791788857
1.2316715542521994
1.3128054740957966
1.418377321603128
1.544477028347996
1.686217008797654
1.836754643206256
1.9902248289345064
2.1417399804496577
2.2844574780058653
2.4164222873900294
2.533724340175953
2.636363636363636
2.7116324535679373
2.768328445747801
2.823069403714565
2.8699902248289346
2.90811339198436
2.9374389051808407
2.956989247311828
2.967741935483871
2.970674486803519
2.967741935483871
2.9589442815249267
2.943304007820137
2.921798631476051
2.895405669599218
2.866080156402737
2.833822091886608
2.7976539589442817
2.7565982404692084
2.7096774193548385
2.6578690127077222
2.5992179863147604
2.532746823069404
2.4604105571847508
2.3822091886608017
2.2991202346041058
2.2218963831867056
2.1485826001955037
2.071358748778104
1.9951124144672527
1.9237536656891496
1.858260019550342
1.8005865102639296
1.750733137829912
1.70772238514174
1.6715542521994136
1.6412512218963833
1.616813294232649
1.598240469208211
1.581622678396872
1.5650048875855327
1.547409579667644
1.530791788856305
1.5141739980449658
1.4975562072336266
1.479960899315738
1.4623655913978495
1.4437927663734116
1.423264907135875
1.4037145650048877
1.383186705767351
1.367546432062561
1.35386119257087
1.33822091886608
1.321603128054741
1.3069403714565004
1.29227761485826
1.278592375366569
1.2658846529814272
1.2531769305962854
1.241446725317693
1.23069403714565
1.2209188660801564
1.2150537634408602
1.2121212121212122
1.2072336265884651
1.2023460410557183
1.198435972629521
1.1935483870967742
1.1886608015640274
1.1827956989247312
1.1779081133919844
1.1730205278592376
1.1681329423264908
1.164222873900293
1.1612903225806452
1.1710654936461389
1.187683284457478
1.1945259042033236
1.198435972629521
1.2003910068426198
1.2013685239491692
1.2013685239491692
1.2013685239491692
1.2013685239491692
