ppg
1.2561094819159335
1.224828934506354
1.1925708699902249
1.160312805474096
1.1270772238514175
1.1006842619745845
1.078201368523949
1.056695992179863
1.04594330400782
1.0576735092864125
1.1055718475073313
1.198435972629521
1.3411534701857282
1.5298142717497556
1.75366568914956
1.9951124144672527
2.2346041055718477
2.453567937438905
2.619745845552297
2.7390029325513194
2.833822091886608
2.89345063538612
2.9159335288367547
2.905180840664712
2.866080156402737
2.8054740957966766
2.727272727272727
2.638318670576735
2.541544477028348
2.439882697947214
2.346041055718475
2.2561094819159337
2.156402737047898
2.050830889540567
1.9423264907135875
1.8318670576735088
1.7223851417399805
1.6148582600195502
1.5102639296187683
1.412512218963832
1.3255131964809383
1.2512218963831867
1.1925708699902249
1.1544477028347997
1.133919843597263
1.1241446725317692
1.1270772238514175
1.142717497556207
1.1681329423264908
1.2013685239491692
1.2394916911045943
1.278592375366569
1.3176930596285434
1.3528836754643203
1.383186705767351
1.4066471163245358
1.423264907135875
1.4349951124144673
1.439882697947214
1.4389051808406648
1.43108504398827
1.4164222873900294
1.3958944281524928
1.370478983382209
1.3421309872922775
1.3118279569892473
1.278592375366569
1.2443792766373412
1.217008797653959
1.1925708699902249
1.163245356793744
1.1319648093841643
1.099706744868035
1.067448680351906
1.0381231671554252
1.0166177908113392
1.0127077223851415
1.0381231671554252
1.1036168132942326
1.2179863147605083
1.3519061583577712
1.5112414467253177
1.7194525904203324
1.9550342130987293
2.193548387096774
2.4144672531769307
2.601173020527859
2.7438905180840663
2.8377321603128056
2.886608015640274
2.895405669599218
2.870967741935484
2.819159335288368
2.7565982404692084
2.684261974584555
2.5972629521016617
2.5004887585532747
2.398826979472141
2.29227761485826
2.1837732160312804
2.0733137829912023
1.9618768328445748
1.8494623655913975
1.737047898338221
1.6265884652981428
1.5327468230694037
1.4496578690127078
1.364613880742913
1.284457478005865
1.2160312805474096
1.1622678396871946
1.1251221896383188
1.1055718475073313
1.1016617790811338
1.1124144672531768
1.1358748778103618
1.1671554252199414
1.2043010752688172
1.2404692082111437
1.2746823069403714
1.3088954056695992
1.3411534701857282
1.3685239491691104
1.391006842619746
1.4066471163245358
1.4164222873900294
1.4193548387096775
1.4164222873900294
1.409579667644184
1.3978494623655917
1.3841642228739004
1.367546432062561
1.3440860215053765
1.316715542521994
1.2864125122189638
1.2551319648093842
1.2228739002932552
1.1906158357771262
1.1583577712609971
1.126099706744868
1.0928641251221896
1.0606060606060606
1.0381231671554252
1.0254154447702837
1.0263929618768328
1.0547409579667644
1.1221896383186705
1.2375366568914956
1.401759530791789
1.608993157380254
1.844574780058651
2.089931573802541
2.324535679374389
2.530791788856305
2.696969696969697
2.807429130009776
2.8719452590420333
2.906158357771261
2.909090909090909
2.8826979472140764
2.83088954056696
2.760508308895406
2.67644183773216
2.582600195503421
2.4819159335288368
2.377321603128055
2.2688172043010755
2.1710654936461387
2.078201368523949
1.9745845552297163
1.866080156402737
1.7556207233626588
1.6451612903225807
1.5366568914956011
1.434017595307918
1.3401759530791788
1.2590420332355816
1.1925708699902249
1.1436950146627567
1.1133919843597262
1.1006842619745845
1.1036168132942326
1.1173020527859236
1.142717497556207
1.1759530791788857
1.2150537634408602
1.2561094819159335
1.2971652003910068
1.3362658846529814
1.370478983382209
1.3988269794721409
1.4203323558162269
1.435972629521017
1.4457478005865103
1.4496578690127078
1.4467253176930597
1.436950146627566
1.4222873900293256
1.401759530791789
1.3773216031280548
1.348973607038123
1.3186705767350928
1.2864125122189638
1.2541544477028348
1.2218963831867058
1.195503421309873
1.1720430107526882
1.144672531769306
1.1143695014662756
1.083088954056696
1.0547409579667644
1.0371456500488758
1.0410557184750733
1.0772238514173995
1.1573802541544478
1.2873900293255132
1.4652981427174976
1.6490713587487782
1.839687194525904
2.064516129032258
2.2932551319648096
2.5034213098729228
2.677419354838709
2.807429130009776
2.8905180840664717
2.929618768328446
2.930596285434995
2.8993157380254155
2.844574780058651
2.771260997067449
2.695014662756598
2.6148582600195502
2.5219941348973607
2.4222873900293256
2.318670576735093
2.212121212121212
2.102639296187683
1.992179863147605
1.8797653958944285
1.7673509286412512
1.6559139784946235
1.547409579667644
1.457478005865103
1.3812316715542523
1.3049853372434017
1.2365591397849462
1.1827956989247312
1.144672531769306
1.1241446725317692
1.121212121212121
1.1329423264907137
1.1564027370478984
1.1886608015640274
1.2267839687194526
1.2668621700879763
1.303030303030303
1.3362658846529814
1.3685239491691104
1.396871945259042
1.4193548387096775
1.435972629521017
1.4457478005865103
1.4486803519061584
1.444770283479961
1.4349951124144673
1.4203323558162269
1.3998044965786902
1.380254154447703
1.359726295210166
1.3333333333333333
1.303030303030303
1.2717497556207231
1.2394916911045943
1.206256109481916
1.173998044965787
1.1407624633431086
1.10752688172043
1.075268817204301
1.0498533724340176
1.040078201368524
1.0488758553274682
1.086021505376344
1.1652003910068427
1.2942326490713587
1.4721407624633431
1.6901270772238517
1.932551319648094
2.1788856304985336
2.409579667644184
2.608993157380254
2.7653958944281527
2.873900293255132
2.932551319648094
2.952101661779081
2.9423264907135875
2.906158357771261
2.8484848484848486
2.773216031280548
2.686217008797654
2.590420332355816
2.489736070381232
2.386119257086999
2.281524926686217
2.174975562072336
2.067448680351906
1.9716520039100685
1.881720430107527
1.7820136852394917
1.678396871945259
1.5747800586510263
1.4750733137829912
1.383186705767351
1.3020527859237536
1.2346041055718475
1.1837732160312806
1.1505376344086022
1.133919843597263
1.1319648093841643
1.141739980449658
1.1622678396871946
1.1925708699902249
1.2287390029325511
1.267839687194526
1.3069403714565004
1.3440860215053765
1.3773216031280548
1.4056695992179864
1.4281524926686218
1.4437927663734116
1.4516129032258065
1.4545454545454546
1.452590420332356
1.4437927663734116
1.4281524926686218
1.4076246334310851
1.383186705767351
1.3548387096774193
1.324535679374389
1.2932551319648091
1.2609970674486803
1.2287390029325511
1.1974584555229717
1.1710654936461389
1.147605083088954
1.118279569892473
1.0879765395894427
1.0635386119257086
1.0527859237536656
1.067448680351906
1.1202346041055715
1.219941348973607
1.370478983382209
1.5669599217986314
1.7976539589442817
2.0097751710654936
2.206256109481916
2.412512218963832
2.601173020527859
2.7536656891495603
2.86217008797654
2.9266862170087977
2.9501466275659824
2.9374389051808407
2.8963831867057674
2.833822091886608
2.755620723362659
2.665689149560117
2.578690127077224
2.4916911045943304
2.3958944281524928
2.294232649071359
2.188660801564027
2.0821114369501466
1.9736070381231672
1.8631476050830889
1.7526881720430108
1.643206256109482
1.5366568914956011
1.436950146627566
1.3577712609970674
1.2942326490713587
1.2346041055718475
1.1867057673509287
1.1534701857282503
1.133919843597263
1.1280547409579669
1.13880742913001
1.1622678396871946
1.1945259042033236
1.2326490713587488
1.2727272727272727
1.3128054740957966
1.3470185728250244
1.3763440860215057
1.4027370478983383
1.4242424242424243
1.4389051808406648
1.4467253176930597
1.447702834799609
1.4418377321603129
1.4291300097751711
1.4115347018572826
1.3890518084066472
1.3626588465298142
1.33822091886608
1.3157380254154447
1.2873900293255132
1.2570869990224829
1.2258064516129032
1.1945259042033236
1.163245356793744
1.1300097751710656
1.096774193548387
1.0684261974584557
1.0498533724340176
1.0518084066471165
1.0869990224828934
1.1456500488758554
1.238514173998045
1.3870967741935485
1.5826001955034212
1.812316715542522
2.0576735092864125
2.2981427174975564
2.5161290322580645
2.6959921798631474
2.83088954056696
2.917888563049853
2.959921798631476
2.9657869012707723
2.943304007820137
2.8963831867057674
2.83088954056696
2.750733137829912
2.659824046920821
2.5620723362658846
2.4594330400782014
2.3548387096774195
2.2482893450635384
2.1407624633431084
2.03128054740958
1.921798631476051
1.825024437927664
1.7350928641251222
1.6363636363636365
1.5366568914956011
1.4408602150537635
1.3528836754643203
1.2776148582600195
1.217008797653959
1.1730205278592376
1.1456500488758554
1.133919843597263
1.1378299120234605
1.1515151515151516
1.1730205278592376
1.2023460410557183
1.2365591397849462
1.2727272727272727
1.3079178885630498
1.3401759530791788
1.3685239491691104
1.3919843597262953
1.409579667644184
1.4213098729227762
1.426197458455523
1.4252199413489737
1.4222873900293256
1.414467253176931
1.4007820136852396
1.3812316715542523
1.3577712609970674
1.3304007820136852
1.3020527859237536
1.2727272727272727
1.2434017595307918
1.2140762463343109
1.1857282502443791
1.1564027370478984
1.1319648093841643
1.1094819159335287
1.086021505376344
1.0713587487781036
1.0772238514173995
1.1163245356793745
1.1994134897360704
1.3313782991202343
1.5112414467253177
1.7302052785923754
1.970674486803519
2.2130987292277613
2.439882697947214
2.613880742913001
2.7419354838709675
2.84652981427175
2.9159335288367547
2.9472140762463344
2.943304007820137
2.909090909090909
2.8514173998044967
2.777126099706745
2.6901270772238512
2.595307917888563
2.495601173020528
2.403714565004888
2.315738025415445
2.218963831867057
2.1163245356793743
2.010752688172043
1.903225806451613
1.7947214076246334
1.686217008797654
1.5796676441837731
1.47702834799609
1.3822091886608017
1.300097751710655
1.2316715542521994
1.18475073313783
1.155425219941349
1.1368523949169111
1.1319648093841643
1.1407624633431086
1.1612903225806452
1.1906158357771262
1.2258064516129032
1.2649071358748778
1.3040078201368523
1.3401759530791788
1.3724340175953078
1.3988269794721409
1.418377321603128
1.434017595307918
1.444770283479961
1.4486803519061584
1.4457478005865103
1.436950146627566
1.4213098729227762
1.4007820136852396
1.3763440860215057
1.3479960899315735
1.316715542521994
1.2834799608993157
1.2561094819159335
1.2316715542521994
1.2023460410557183
1.1710654936461389
1.1378299120234605
1.1036168132942326
1.0713587487781036
1.0449657869012707
1.0332355816226784
1.0469208211143697
1.0987292277614855
1.1974584555229717
1.3176930596285434
1.466275659824047
1.667644183773216
1.9012707722385145
2.144672531769306
2.375366568914956
2.576735092864125
2.73802541544477
2.852394916911046
2.919843597262952
2.945259042033236
2.9335288367546437
2.89247311827957
2.835777126099707
2.7673509286412514
2.6832844574780057
2.589442815249267
2.4887585532746823
2.3841642228739004
2.27761485826002
2.1700879765395893
2.06158357771261
1.9530791788856303
1.8435972629521016
1.7341153470185728
1.6392961876832846
1.5542521994134897
1.4623655913978495
1.3724340175953078
1.2913000977517106
1.2238514173998043
1.1710654936461389
1.1358748778103618
1.1173020527859236
1.115347018572825
1.1270772238514175
1.1505376344086022
1.1788856304985338
1.2111436950146628
1.2482893450635386
1.2864125122189638
1.3225806451612905
1.3558162267839686
1.383186705767351
1.404692082111437
1.4193548387096775
1.4271749755620724
1.4281524926686218
1.4222873900293256
1.4105571847507332
1.3978494623655917
1.383186705767351
1.3616813294232648
1.335288367546432
1.305962854349951
1.2746823069403714
1.2424242424242424
1.2101661779081134
1.1788856304985338
1.147605083088954
1.1163245356793745
1.0850439882697946
1.06158357771261
1.0449657869012707
1.035190615835777
1.0439882697947214
1.0840664711632453
1.166177908113392
1.2961876832844574
1.4731182795698925
1.6871945259042034
1.924731182795699
2.166177908113392
2.3919843597262958
2.5855327468230693
2.724340175953079
2.8152492668621703
2.8797653958944283
2.909090909090909
2.9042033235581624
2.8699902248289346
2.812316715542522
2.736070381231672
2.6480938416422286
2.5513196480938416
2.4486803519061584
2.340175953079179
2.239491691104594
2.145650048875855
2.043010752688172
1.935483870967742
1.826001955034213
1.7165200391006843
1.6080156402737047
1.5024437927663734
1.4027370478983383
1.313782991202346
1.238514173998045
1.1798631476050832
1.13880742913001
1.118279569892473
1.1133919843597262
1.121212121212121
1.1407624633431086
1.1710654936461389
1.209188660801564
1.252199413489736
1.2961876832844574
1.3391984359726294
1.3782991202346042
1.4115347018572826
1.4379276637341154
1.455522971652004
1.466275659824047
1.4701857282502444
1.466275659824047
1.456500488758553
1.439882697947214
1.418377321603128
1.392961876832845
1.364613880742913
1.3333333333333333
1.3010752688172045
1.2688172043010753
1.2375366568914956
1.2121212121212122
1.1896383186705768
1.163245356793744
1.133919843597263
1.104594330400782
1.0772238514173995
1.0576735092864125
1.056695992179863
1.0840664711632453
1.1515151515151516
1.2668621700879763
1.4301075268817205
1.6011730205278591
1.782991202346041
2.002932551319648
2.231671554252199
2.4457478005865103
2.6285434995112413
2.76930596285435
2.8641251221896384
2.9149560117302054
2.9257086999022484
2.903225806451613
2.854349951124145
2.78494623655914
2.710654936461388
2.632453567937439
2.541544477028348
2.443792766373412
2.3421309872922778
2.2375366568914954
2.1309872922776147
2.0234604105571847
1.9149560117302051
1.8054740957966764
1.6950146627565983
1.5865102639296187
1.4946236559139785
1.414467253176931
1.332355816226784
1.2561094819159335
1.1925708699902249
1.1436950146627567
1.110459433040078
1.0948191593352885
1.0948191593352885
1.1085043988269794
1.1329423264907137
1.1652003910068427
1.2023460410557183
1.2375366568914956
1.270772238514174
1.3049853372434017
1.3362658846529814
1.3626588465298142
1.3841642228739004
1.3988269794721409
1.4056695992179864
1.4066471163245358
1.4007820136852396
1.388074291300098
1.370478983382209
1.3528836754643203
1.3333333333333333
1.3079178885630498
1.2776148582600195
1.24633431085044
1.2140762463343109
1.1827956989247312
1.152492668621701
1.121212121212121
1.088954056695992
1.0576735092864125
1.0312805474095796
1.0175953079178883
1.0224828934506354
1.053763440860215
1.1241446725317692
1.2434017595307918
1.4115347018572826
1.6217008797653958
1.8592375366568916
2.1055718475073317
2.3411534701857284
2.547409579667644
2.7145650048875853
2.834799608993157
2.9042033235581624
2.932551319648094
2.9335288367546437
2.9071358748778104
2.857282502443793
2.789833822091887
2.708699902248289
2.619745845552297
2.5249266862170088
2.426197458455523
2.3255131964809386
2.222873900293255
2.1192570869990224
2.027370478983382
1.9393939393939397
1.839687194525904
1.7360703812316716
1.6304985337243405
1.525904203323558
1.426197458455523
1.335288367546432
1.2551319648093842
1.1886608015640274
1.13880742913001
1.1065493646138806
1.0918866080156402
1.0909090909090908
1.1016617790811338
1.1231671554252198
1.1515151515151516
1.1857282502443791
1.2218963831867058
1.2590420332355816
1.2932551319648091
1.3235581622678396
1.348973607038123
1.367546432062561
1.3812316715542523
1.3890518084066472
1.391006842619746
1.3861192570869991
1.375366568914956
1.359726295210166
1.3391984359726294
1.3147605083088951
1.2873900293255132
1.2570869990224829
1.2258064516129032
1.1935483870967742
1.1612903225806452
1.1358748778103618
1.1133919843597262
1.0850439882697946
1.0547409579667644
1.0263929618768328
1.0087976539589445
1.0117302052785924
1.0488758553274682
1.1300097751710656
1.2609970674486803
1.4408602150537635
1.6598240469208212
1.8670576735092863
2.065493646138808
2.280547409579668
2.4819159335288368
2.6510263929618767
2.777126099706745
2.857282502443793
2.8944281524926687
2.89345063538612
2.86217008797654
2.806451612903226
2.7331378299120237
2.6471163245356792
2.563049853372434
2.4789833822091887
2.386119257086999
2.2873900293255134
2.1867057673509285
2.0840664711632453
1.9794721407624636
1.873900293255132
1.7673509286412512
1.6608015640273706
1.5562072336265884
1.456500488758553
1.3743890518084063
1.3069403714565004
1.241446725317693
1.18475073313783
1.141739980449658
1.115347018572825
1.104594330400782
1.1085043988269794
1.1241446725317692
1.1495601173020529
1.1808406647116323
1.2160312805474096
1.252199413489736
1.284457478005865
1.3118279569892473
1.3372434017595307
1.359726295210166
1.3763440860215057
1.388074291300098
1.392961876832845
1.391006842619746
1.383186705767351
1.3695014662756595
1.3499511241446724
1.3264907135874875
1.3049853372434017
1.2834799608993157
1.2570869990224829
1.2267839687194526
1.195503421309873
1.164222873900293
1.133919843597263
1.1026392961876832
1.0703812316715542
1.0391006842619743
1.013685239491691
1.0019550342130987
1.0146627565982405
1.0498533724340176
1.1173020527859236
1.2346041055718475
1.401759530791789
1.611925708699902
1.8533724340175952
2.1065493646138806
2.3440860215053765
2.550342130987292
2.7155425219941347
2.832844574780059
2.9042033235581624
2.932551319648094
2.927663734115347
2.897360703812317
2.8455522971652005
2.776148582600196
2.695014662756598
2.6041055718475072
2.5083088954056696
2.407624633431085
2.304985337243402
2.20039100684262
2.093841642228739
1.9853372434017595
1.8885630498533723
1.7976539589442817
1.696969696969697
1.5923753665689149
1.4897360703812317
1.392961876832845
1.305962854349951
1.2326490713587488
1.1749755620723363
1.1348973607038124
1.1133919843597262
1.1085043988269794
1.1163245356793745
1.133919843597263
1.1612903225806452
1.195503421309873
1.2346041055718475
1.273704789833822
1.3118279569892473
1.346041055718475
1.375366568914956
1.3988269794721409
1.41544477028348
1.4242424242424243
1.4271749755620724
1.4252199413489737
1.4203323558162269
1.4076246334310851
1.3900293255131966
1.367546432062561
1.3411534701857282
1.3118279569892473
1.281524926686217
1.2502443792766371
1.2189638318670577
1.187683284457478
1.1573802541544478
1.1319648093841643
1.1094819159335287
1.083088954056696
1.0596285434995112
1.0478983382209188
1.0606060606060606
1.1094819159335287
1.2043010752688172
1.3509286412512218
1.543499511241447
1.7712609970674489
2.016617790811339
2.260019550342131
2.4574780058651027
2.613880742913001
2.7536656891495603
2.8582600195503423
2.9227761485826003
2.948191593352884
2.93841642228739
2.900293255131965
2.8396871945259043
2.763440860215054
2.675464320625611
2.579667644183773
2.489736070381232
2.4027370478983383
2.3059628543499517
2.204301075268817
2.099706744868035
1.9931573802541545
1.884652981427175
1.775171065493646
1.6656891495601174
1.5591397849462365
1.457478005865103
1.364613880742913
1.284457478005865
1.224828934506354
1.1837732160312806
1.152492668621701
1.133919843597263
1.130987292277615
1.1407624633431086
1.163245356793744
1.1935483870967742
1.2297165200391007
1.267839687194526
1.305962854349951
1.3411534701857282
1.3714565004887584
1.3958944281524928
1.4164222873900294
1.4320625610948192
1.4408602150537635
1.4418377321603129
1.436950146627566
1.4252199413489737
1.4076246334310851
1.3851417399804498
1.3587487781036167
1.3294232649071358
1.2991202346041055
1.273704789833822
1.2512218963831867
1.2238514173998043
1.1945259042033236
1.164222873900293
1.1329423264907137
1.1016617790811338
1.0742913000977516
1.0576735092864125
1.0625610948191593
1.1016617790811338
1.1837732160312806
1.289345063538612
1.4252199413489737
1.6158357771260996
1.8435972629521016
2.0869990224828934
2.324535679374389
2.5386119257087
2.713587487781036
2.843597262952102
2.9266862170087977
2.9657869012707723
2.9667644183773216
2.941348973607038
2.8963831867057674
2.831867057673509
2.7536656891495603
2.665689149560117
2.570869990224829
2.4711632453567938
2.3685239491691106
2.2639296187683287
2.157380254154448
2.0498533724340176
1.9403714565004888
1.8299120234604105
1.7331378299120237
1.6441837732160314
1.547409579667644
1.4516129032258065
1.3607038123167154
1.281524926686217
1.2160312805474096
1.1671554252199414
1.1358748778103618
1.1221896383186705
1.1241446725317692
1.1407624633431086
1.164222873900293
1.1935483870967742
1.2287390029325511
1.2668621700879763
1.3049853372434017
1.3401759530791788
1.3714565004887584
1.3978494623655917
1.418377321603128
1.43108504398827
1.4379276637341154
1.436950146627566
1.4291300097751711
1.4203323558162269
1.4076246334310851
1.388074291300098
1.364613880742913
1.3372434017595307
1.3069403714565004
1.2756598240469208
1.2443792766373412
1.2140762463343109
1.1827956989247312
1.1495601173020529
1.1163245356793745
1.0899315738025417
1.0713587487781036
1.0586510263929618
1.0654936461388074
1.104594330400782
1.187683284457478
1.3206256109481915
1.501466275659824
1.7204301075268815
1.962854349951124
2.2082111436950145
2.436950146627566
2.633431085043988
2.774193548387097
2.8670576735092865
2.9315738025415445
2.962854349951124
2.959921798631476
2.927663734115347
2.8729227761485827
2.80058651026393
2.716520039100684
2.624633431085044
2.5288367546432062
2.429130009775171
2.3391984359726297
2.2531769305962857
2.158357771260997
2.0576735092864125
1.9530791788856303
1.8465298142717497
1.7390029325513197
1.632453567937439
1.5288367546432062
1.4320625610948192
1.3450635386119256
1.2717497556207231
1.2140762463343109
1.176930596285435
1.1573802541544478
1.1485826001955035
1.152492668621701
1.1681329423264908
1.1935483870967742
1.2258064516129032
1.2609970674486803
1.2971652003910068
1.332355816226784
1.3636363636363635
1.3900293255131966
1.4105571847507332
1.4252199413489737
1.435972629521017
1.4408602150537635
1.4389051808406648
1.43108504398827
1.4173998044965788
1.3978494623655917
1.3743890518084063
1.3470185728250244
1.316715542521994
1.2864125122189638
1.2482893450635386
1.2121212121212122
1.18475073313783
1.155425219941349
1.1241446725317692
1.0918866080156402
1.0625610948191593
1.0410557184750733
1.0381231671554252
1.064516129032258
1.130987292277615
1.24633431085044
1.4115347018572826
1.585532746823069
1.772238514173998
1.997067448680352
2.231671554252199
2.4516129032258065
2.6392961876832843
2.7839687194525906
2.8826979472140764
2.935483870967742
2.948191593352884
2.9266862170087977
2.878787878787879
2.8103616813294234
2.736070381231672
2.6578690127077222
2.5669599217986314
2.469208211143695
2.367546432062561
2.2639296187683287
2.1593352883675463
2.053763440860215
1.946236559139785
1.8377321603128052
1.729227761485826
1.6217008797653958
1.530791788856305
1.4506353861192571
1.367546432062561
1.2903225806451613
1.224828934506354
1.173998044965787
1.1397849462365592
1.121212121212121
1.118279569892473
1.1300097751710656
1.1534701857282503
1.18475073313783
1.2209188660801564
1.2551319648093842
1.2883675464320623
1.321603128054741
1.3519061583577712
1.3773216031280548
1.396871945259042
1.409579667644184
1.41544477028348
1.414467253176931
1.4066471163245358
1.392961876832845
1.3734115347018572
1.3548387096774193
1.335288367546432
1.3088954056695992
1.278592375366569
1.24633431085044
1.2130987292277615
1.1808406647116323
1.1485826001955035
1.1163245356793745
1.0840664711632453
1.0527859237536656
1.0273704789833822
1.0156402737047898
1.0224828934506354
1.0557184750733135
1.1300097751710656
1.2531769305962854
1.426197458455523
1.640273704789834
1.881720430107527
2.1300097751710654
2.364613880742913
2.5698924731182795
2.7341153470185726
2.850439882697948
2.9159335288367547
2.940371456500489
2.9374389051808407
2.90811339198436
2.8563049853372435
2.7859237536656893
2.702834799608993
2.610948191593353
2.5131964809384164
2.4115347018572826
