ppg
2.332355816226784
2.257086999022483
2.182795698924731
2.112414467253177
2.048875855327468
1.9931573802541545
1.9472140762463344
1.9120234604105573
1.884652981427175
1.865102639296188
1.8523949169110456
1.842619745845552
1.836754643206256
1.8328445747800584
1.828934506353861
1.825024437927664
1.8201368523949168
1.8132942326490715
1.801564027370479
1.7869012707722385
1.7683284457478006
1.747800586510264
1.7282502443792769
1.7067448680351909
1.6803519061583578
1.6520039100684265
1.6217008797653958
1.5894428152492668
1.5542521994134897
1.5180840664711632
1.4809384164222874
1.4437927663734116
1.4086021505376345
1.3763440860215057
1.3519061583577712
1.3333333333333333
1.313782991202346
1.295210166177908
1.2756598240469208
1.2570869990224829
1.2404692082111437
1.2238514173998043
1.2052785923753666
1.187683284457478
1.1720430107526882
1.1593352883675463
1.1495601173020529
1.144672531769306
1.142717497556207
1.1397849462365592
1.1358748778103618
1.1300097751710656
1.1241446725317692
1.1192570869990224
1.1143695014662756
1.110459433040078
1.1055718475073313
1.099706744868035
1.0918866080156402
1.086021505376344
1.0821114369501466
1.0762463343108504
1.0694037145650048
1.06158357771261
1.0547409579667644
1.0478983382209188
1.0391006842619743
1.0303030303030305
1.0224828934506354
1.013685239491691
1.0048875855327468
0.9980449657869012
0.9960899315738024
0.9980449657869012
1.0048875855327468
1.024437927663734
1.064516129032258
1.130987292277615
1.227761485826002
1.3558162267839686
1.5112414467253177
1.6852394916911049
1.8699902248289344
2.0547409579667644
2.2082111436950145
2.3391984359726297
2.4711632453567938
2.589442815249267
2.6881720430107525
2.7653958944281527
2.823069403714565
2.860215053763441
2.8797653958944283
2.8836754643206257
2.8729227761485827
2.849462365591398
2.814271749755621
2.773216031280548
2.7262952101661777
2.6725317693059627
2.611925708699902
2.544477028347996
2.472140762463343
2.3978494623655915
2.32355816226784
2.2502443792766376
2.179863147605083
2.1163245356793743
2.06158357771261
2.0175953079178885
1.9843597262952104
1.956989247311828
1.9345063538611929
1.9159335288367547
1.8993157380254155
1.8856304985337244
1.873900293255132
1.8621700879765395
1.8504398826979471
1.839687194525904
1.827956989247312
1.8132942326490715
1.7976539589442817
1.782991202346041
1.7634408602150538
1.7409579667644184
1.718475073313783
1.6950146627565983
1.6686217008797657
1.640273704789834
1.611925708699902
1.5826001955034212
1.5503421309872922
1.543499511241447
1.555229716520039
1.5532746823069403
1.541544477028348
1.5239491691104594
1.5034213098729228
1.482893450635386
1.4623655913978495
1.4428152492668622
1.423264907135875
1.4037145650048877
1.3851417399804498
1.3685239491691104
1.3528836754643203
1.3440860215053765
1.33822091886608
1.3313782991202343
1.324535679374389
1.316715542521994
1.3088954056695992
1.3010752688172045
1.2932551319648091
1.2854349951124144
1.2776148582600195
1.2697947214076246
1.262952101661779
1.2580645161290325
1.2551319648093842
1.2502443792766371
1.2453567937438903
1.238514173998045
1.2316715542521994
1.224828934506354
1.219941348973607
1.2150537634408602
1.2121212121212122
1.209188660801564
1.2072336265884651
1.2052785923753666
1.2052785923753666
1.206256109481916
1.2043010752688172
1.2013685239491692
1.198435972629521
1.1974584555229717
1.2043010752688172
1.2238514173998043
1.2649071358748778
1.3362658846529814
1.4408602150537635
1.5777126099706744
1.715542521994135
1.8592375366568916
2.0303030303030303
2.210166177908113
2.3870967741935485
2.5513196480938416
2.6959921798631474
2.819159335288368
2.917888563049853
2.994134897360704
3.0498533724340176
3.086021505376344
3.102639296187683
3.103616813294233
3.0948191593352883
3.0762463343108504
3.048875855327468
3.0127077223851417
2.9667644183773216
2.913000977517106
2.8533724340175954
2.7869012707722387
2.7145650048875853
2.6402737047898337
2.5650048875855327
2.4975562072336266
2.4359726295210167
2.3734115347018574
2.312805474095797
2.2580645161290325
2.210166177908113
2.1710654936461387
2.1388074291300097
2.112414467253177
2.089931573802541
2.072336265884653
2.056695992179863
2.042033235581622
2.0283479960899315
2.013685239491691
1.997067448680352
1.978494623655914
1.9589442815249267
1.9374389051808407
1.9130009775171064
1.8875855327468232
1.8602150537634408
1.83088954056696
1.8005865102639296
1.7702834799608993
1.7438905180840665
1.7204301075268815
1.6950146627565983
1.6686217008797657
1.6422287390029326
1.6158357771260996
1.5894428152492668
1.5650048875855327
1.541544477028348
1.5180840664711632
1.4946236559139785
1.4711632453567938
1.452590420332356
1.4379276637341154
1.4203323558162269
1.4027370478983383
1.3851417399804498
1.3685239491691104
1.3528836754643203
1.3401759530791788
1.327468230694037
1.316715542521994
1.3069403714565004
1.2981427174975562
1.2903225806451613
1.284457478005865
1.2795698924731185
1.270772238514174
1.2590420332355816
1.2473118279569892
1.2365591397849462
1.227761485826002
1.2209188660801564
1.2160312805474096
1.2111436950146628
1.2072336265884651
1.203323558162268
1.2023460410557183
1.2003910068426198
1.1964809384164223
1.1915933528836755
1.18475073313783
1.1788856304985338
1.1720430107526882
1.164222873900293
1.1573802541544478
1.1515151515151516
1.147605083088954
1.1495601173020529
1.163245356793744
1.1896383186705768
1.2336265884652982
1.3069403714565004
1.4115347018572826
1.5454545454545454
1.7038123167155426
1.878787878787879
2.06158357771261
2.239491691104594
2.406647116324536
2.557184750733138
2.686217008797654
2.780058651026393
2.8475073313782997
2.905180840664712
2.948191593352884
2.975562072336266
2.9872922776148583
2.983382209188661
2.9667644183773216
2.9374389051808407
2.898338220918866
2.849462365591398
2.792766373411535
2.7311827956989245
2.670576735092864
2.608993157380254
2.5405669599217986
2.4682306940371457
2.393939393939394
2.321603128054741
2.2521994134897363
2.188660801564027
2.131964809384164
2.0840664711632453
2.04594330400782
2.01564027370479
1.9931573802541545
1.9745845552297163
1.9579667644183771
1.9423264907135875
1.9286412512218964
1.9159335288367547
1.9042033235581624
1.8905180840664717
1.873900293255132
1.8563049853372435
1.836754643206256
1.81524926686217
1.7917888563049853
1.7702834799608993
1.747800586510264
1.7223851417399805
1.6950146627565983
1.6656891495601174
1.6363636363636365
1.6080156402737047
1.581622678396872
1.5571847507331378
1.533724340175953
1.5102639296187683
1.4868035190615836
1.4672531769305963
1.4486803519061584
1.426197458455523
1.401759530791789
1.3773216031280548
1.356793743890518
1.3391984359726294
1.324535679374389
1.3128054740957966
1.3020527859237536
1.29227761485826
1.281524926686217
1.2688172043010753
1.2580645161290325
1.249266862170088
1.2365591397849462
1.2238514173998043
1.2111436950146628
1.2013685239491692
1.1935483870967742
1.1857282502443791
1.1788856304985338
1.1730205278592376
1.1671554252199414
1.1612903225806452
1.1583577712609971
1.1564027370478984
1.152492668621701
1.1466275659824048
1.13880742913001
1.130987292277615
1.1231671554252198
1.1143695014662756
1.1065493646138806
1.1006842619745845
1.096774193548387
1.0928641251221896
1.0869990224828934
1.0850439882697946
1.0869990224828934
1.0879765395894427
1.0918866080156402
1.104594330400782
1.1173020527859236
1.1466275659824048
1.2209188660801564
1.3333333333333333
1.4760508308895406
1.6412512218963833
1.818181818181818
1.975562072336266
2.118279569892473
2.2688172043010755
2.4115347018572826
2.5386119257087
2.644183773216031
2.727272727272727
2.787878787878788
2.8269794721407626
2.8455522971652005
2.84652981427175
2.833822091886608
2.809384164222874
2.776148582600196
2.736070381231672
2.689149560117302
2.634408602150537
2.572825024437928
2.5083088954056696
2.439882697947214
2.36950146627566
2.2981427174975564
2.2277614858260018
2.1622678396871944
2.101661779081134
2.050830889540567
2.0087976539589443
1.970674486803519
1.93841642228739
1.9120234604105573
1.8905180840664717
1.8729227761485825
1.858260019550342
1.8455522971652003
1.8328445747800584
1.8211143695014664
1.8074291300097751
1.793743890518084
1.7790811339198436
1.7605083088954057
1.7380254154447703
1.7135874877810362
1.6881720430107527
1.6637341153470186
1.6392961876832846
1.6158357771260996
1.5923753665689149
1.5679374389051808
1.542521994134897
1.5161290322580645
1.4946236559139785
1.4760508308895406
1.4535679374389052
1.4291300097751711
1.404692082111437
1.3822091886608017
1.359726295210166
1.3372434017595307
1.3157380254154447
1.2961876832844574
1.2776148582600195
1.2609970674486803
1.249266862170088
1.2394916911045943
1.2267839687194526
1.2130987292277615
1.1994134897360704
1.187683284457478
1.1779081133919844
1.1671554252199414
1.1573802541544478
1.1485826001955035
1.1397849462365592
1.130987292277615
1.121212121212121
1.1143695014662756
1.1085043988269794
1.1026392961876832
1.0957966764418376
1.0879765395894427
1.0811339198435972
1.0742913000977516
1.0684261974584557
1.0625610948191593
1.0557184750733135
1.0498533724340176
1.0449657869012707
1.043010752688172
1.043010752688172
1.0410557184750733
1.0381231671554252
1.0342130987292275
1.0283479960899315
1.021505376344086
1.0146627565982405
1.0068426197458455
1.002932551319648
1.0068426197458455
1.0283479960899315
1.0733137829912025
1.133919843597263
1.217008797653959
1.3372434017595307
1.4858260019550342
1.656891495601173
1.8406647116324533
2.0234604105571847
2.196480938416422
2.3519061583577714
2.486803519061584
2.5972629521016617
2.6832844574780057
2.7390029325513194
2.7722385141739982
2.795698924731183
2.806451612903226
2.8044965786901277
2.791788856304985
2.768328445747801
2.735092864125122
2.6930596285435
2.644183773216031
2.5884652981427174
2.525904203323558
2.4565004887585533
2.391006842619746
2.326490713587488
2.257086999022483
2.188660801564027
2.1221896383186705
2.06158357771261
2.006842619745845
1.959921798631476
1.919843597262952
1.8866080156402736
1.8602150537634408
1.8406647116324533
1.826001955034213
1.8142717497556209
1.8025415444770283
1.790811339198436
1.7790811339198436
1.7644183773216031
1.747800586510264
1.729227761485826
1.7086999022482894
1.686217008797654
1.6637341153470186
1.640273704789834
1.6148582600195502
1.5923753665689149
1.5708699902248289
1.5454545454545454
1.520039100684262
1.4936461388074291
1.4682306940371457
1.444770283479961
1.4193548387096775
1.3949169110459434
1.3714565004887584
1.3479960899315735
1.327468230694037
1.3118279569892473
1.2981427174975562
1.281524926686217
1.2649071358748778
1.249266862170088
1.2336265884652982
1.2179863147605083
1.203323558162268
1.187683284457478
1.1730205278592376
1.1583577712609971
1.144672531769306
1.1348973607038124
1.1300097751710656
1.126099706744868
1.1202346041055715
1.115347018572825
1.110459433040078
1.1055718475073313
1.099706744868035
1.093841642228739
1.0869990224828934
1.078201368523949
1.0684261974584557
1.0576735092864125
1.0518084066471165
1.0488758553274682
1.0439882697947214
1.040078201368524
1.0361681329423265
1.032258064516129
1.0283479960899315
1.024437927663734
1.021505376344086
1.018572825024438
1.0127077223851415
1.007820136852395
1.0058651026392962
1.0087976539589445
1.018572825024438
1.0381231671554252
1.0772238514173995
1.141739980449658
1.2355816226783969
1.359726295210166
1.509286412512219
1.6793743890518085
1.8602150537634408
2.042033235581622
2.2160312805474094
2.355816226783969
2.469208211143695
2.579667644183773
2.675464320625611
2.752688172043011
2.8103616813294234
2.8514173998044967
2.875855327468231
2.8836754643206257
2.877810361681329
2.8611925708699903
2.833822091886608
2.7976539589442817
2.7565982404692084
2.7096774193548385
2.654936461388074
2.5943304007820136
2.529814271749756
2.4604105571847508
2.389051808406647
2.317693059628544
2.249266862170088
2.185728250244379
2.129032258064516
2.0791788856304985
2.0391006842619745
2.006842619745845
1.9794721407624636
1.9579667644183771
1.9393939393939397
1.9227761485826005
1.9071358748778104
1.8914956011730208
1.8758553274682308
1.8592375366568916
1.8435972629521016
1.828934506353861
1.825024437927664
1.8269794721407624
1.81524926686217
1.7947214076246334
1.76930596285435
1.739980449657869
1.7096774193548387
1.6793743890518085
1.6490713587487782
1.6187683284457477
1.587487781036168
1.5581622678396871
1.530791788856305
1.509286412512219
1.4897360703812317
1.4682306940371457
1.4457478005865103
1.4242424242424243
1.4037145650048877
1.3851417399804498
1.3655913978494625
1.3470185728250244
1.3304007820136852
1.3128054740957966
1.2961876832844574
1.2834799608993157
1.2746823069403714
1.2658846529814272
1.2570869990224829
1.2473118279569892
1.2375366568914956
1.227761485826002
1.2189638318670577
1.209188660801564
1.1994134897360704
1.1906158357771262
1.1827956989247312
1.1749755620723363
1.1700879765395895
1.166177908113392
1.160312805474096
1.1544477028347997
1.1495601173020529
1.1456500488758554
1.13880742913001
1.1319648093841643
1.1251221896383188
1.1192570869990224
1.1143695014662756
1.1094819159335287
1.1085043988269794
1.1085043988269794
1.1065493646138806
1.1036168132942326
1.1006842619745845
1.0977517106549364
1.1026392961876832
1.1202346041055715
1.1593352883675463
1.227761485826002
1.3294232649071358
1.4623655913978495
1.6226783968719452
1.7771260997067448
1.9286412512218964
2.1006842619745845
2.275659824046921
2.441837732160313
2.591397849462365
2.721407624633431
2.8269794721407626
2.90811339198436
2.9667644183773216
3.004887585532747
3.026392961876833
3.0303030303030303
3.0205278592375366
3.003910068426197
2.979472140762464
2.9472140762463344
2.905180840664712
2.854349951124145
2.7947214076246336
2.727272727272727
2.653958944281525
2.5777126099706744
2.5004887585532747
2.423264907135875
2.3548387096774195
2.294232649071359
2.233626588465298
2.175953079178885
2.126099706744868
2.083088954056696
2.047898338220919
2.0097751710654936
1.992179863147605
1.9775171065493649
1.9579667644183771
1.9442815249266865
1.9305962854349952
1.913978494623656
1.8944281524926687
1.8748778103616808
1.8533724340175952
1.828934506353861
1.7888563049853372
1.761485826001955
1.732160312805474
1.6871945259042034
1.656891495601173
1.632453567937439
1.608993157380254
1.56891495601173
1.541544477028348
1.5141739980449658
1.4760508308895406
1.4516129032258065
1.4281524926686218
1.404692082111437
1.383186705767351
1.3626588465298142
1.3470185728250244
1.3343108504398826
1.3196480938416422
1.3049853372434017
1.29227761485826
1.2805474095796676
1.270772238514174
1.2609970674486803
1.2512218963831867
1.2404692082111437
1.2267839687194526
1.2121212121212122
1.198435972629521
1.1896383186705768
1.1798631476050832
1.1730205278592376
1.166177908113392
1.155425219941349
1.1505376344086022
1.1456500488758554
1.1407624633431086
1.1348973607038124
1.126099706744868
1.1173020527859236
1.1143695014662756
1.1133919843597262
1.1114369501466277
1.1085043988269794
1.104594330400782
1.1006842619745845
1.096774193548387
1.0928641251221896
1.088954056695992
1.0850439882697946
1.0821114369501466
1.0850439882697946
1.0987292277614855
1.1231671554252198
1.164222873900293
1.2336265884652982
1.335288367546432
1.469208211143695
1.6285434995112416
1.8074291300097751
1.9960899315738023
2.182795698924731
2.3597262952101663
2.5180840664711632
2.654936461388074
2.7536656891495603
2.823069403714565
2.881720430107527
2.9237536656891496
2.9472140762463344
2.9530791788856305
2.9442815249266863
2.9227761485826003
2.8914956011730206
2.852394916911046
2.8054740957966766
2.7497556207233624
2.687194525904203
2.625610948191593
2.5620723362658846
2.490713587487781
2.41544477028348
2.340175953079179
2.2668621700879767
2.1974584555229715
2.134897360703812
2.080156402737048
2.035190615835777
2.0
1.9726295210166176
1.9521016617790807
1.9345063538611929
1.9178885630498532
1.902248289345064
1.8885630498533723
1.8758553274682308
1.8621700879765395
1.8455522971652003
1.8269794721407624
1.8054740957966764
1.7820136852394917
1.7575757575757576
1.7302052785923754
1.704789833822092
1.6803519061583578
1.653958944281525
1.6265884652981428
1.598240469208211
1.5679374389051808
1.5376344086021505
1.5073313782991202
1.47702834799609
1.4467253176930597
1.418377321603128
1.393939393939394
1.3763440860215057
1.3616813294232648
1.3440860215053765
1.3255131964809383
1.305962854349951
1.2873900293255132
1.2717497556207231
1.2580645161290325
1.2453567937438903
1.2316715542521994
1.217008797653959
1.2013685239491692
1.1896383186705768
1.1798631476050832
1.1671554252199414
1.1534701857282503
1.1407624633431086
1.1300097751710656
1.1202346041055715
1.1124144672531768
1.1065493646138806
1.1006842619745845
1.093841642228739
1.086021505376344
1.0762463343108504
1.0694037145650048
1.0635386119257086
1.0557184750733135
1.0478983382209188
1.0410557184750733
1.035190615835777
1.0234604105571847
1.0087976539589445
0.9990224828934506
0.9912023460410556
0.9853372434017597
0.9794721407624634
0.9765395894428152
0.9745845552297164
0.9696969696969696
0.9657869012707724
0.9648093841642228
0.967741935483871
0.9804496578690128
1.0087976539589445
1.06158357771261
1.1436950146627567
1.2580645161290325
1.4027370478983383
1.5708699902248289
1.729227761485826
1.8807429130009776
2.0498533724340176
2.2160312805474094
2.367546432062561
2.4995112414467253
2.6070381231671558
2.689149560117302
2.747800586510264
2.7839687194525906
2.80058651026393
2.801564027370479
2.787878787878788
2.763440860215054
2.730205278592375
2.687194525904203
2.634408602150537
2.573802541544477
2.505376344086021
2.432062561094819
2.355816226783969
2.27761485826002
2.20039100684262
2.1280547409579667
2.06158357771261
2.006842619745845
1.959921798631476
1.9149560117302051
1.8758553274682308
1.844574780058651
1.8201368523949168
1.8005865102639296
1.7849462365591398
1.7712609970674489
1.758553274682307
1.7458455522971652
1.7311827956989247
1.718475073313783
1.7057673509286413
1.6920821114369502
1.6774193548387095
1.6598240469208212
1.6392961876832846
1.6187683284457477
1.5972629521016617
1.573802541544477
1.5483870967741935
1.521994134897361
1.495601173020528
1.4682306940371457
1.4457478005865103
1.426197458455523
1.4027370478983383
1.3782991202346042
1.3528836754643203
1.327468230694037
1.3020527859237536
1.2776148582600195
1.2570869990224829
1.238514173998045
1.2218963831867058
1.2052785923753666
1.1935483870967742
1.1837732160312806
1.1710654936461389
1.1564027370478984
1.141739980449658
1.1270772238514175
1.1143695014662756
1.1055718475073313
1.0977517106549364
1.0899315738025417
1.0821114369501466
1.0742913000977516
1.067448680351906
1.0654936461388074
1.0654936461388074
1.0625610948191593
1.0576735092864125
1.0518084066471165
1.0449657869012707
1.0371456500488758
1.0273704789833822
1.0175953079178883
1.0087976539589445
1.0019550342130987
0.997067448680352
0.997067448680352
0.9980449657869012
0.9960899315738024
0.9921798631476052
0.9863147605083088
0.9794721407624634
0.9726295210166178
0.9648093841642228
0.9589442815249268
0.956989247311828
0.9638318670576737
0.9872922776148584
1.032258064516129
1.0909090909090908
1.1691104594330402
1.2834799608993157
1.4301075268817205
1.6001955034213098
1.7849462365591398
1.9726295210166176
2.1544477028347995
2.321603128054741
2.4682306940371457
2.591397849462365
2.689149560117302
2.7536656891495603
2.792766373411535
2.820136852394917
2.831867057673509
2.8299120234604107
2.81622678396872
2.790811339198436
2.7546432062561097
2.708699902248289
2.653958944281525
2.591397849462365
2.52297165200391
2.449657869012708
2.380254154447703
2.313782991202346
2.244379276637341
2.174975562072336
2.1094819159335287
2.0498533724340176
1.9980449657869013
1.9521016617790807
1.9130009775171064
1.8797653958944285
1.8523949169110456
1.8299120234604105
1.812316715542522
1.7986314760508308
1.7859237536656891
1.7761485826001957
1.7673509286412512
1.7565982404692082
1.7448680351906158
1.7311827956989247
1.7145650048875856
1.6930596285434996
1.667644183773216
1.640273704789834
1.6129032258064515
1.5894428152492668
1.5669599217986314
1.5405669599217986
1.512218963831867
1.4858260019550342
1.4604105571847508
1.435972629521017
1.412512218963832
1.3890518084066472
1.3655913978494625
1.3411534701857282
1.316715542521994
1.2991202346041055
1.2825024437927663
1.262952101661779
1.2453567937438903
1.2287390029325511
1.2130987292277615
1.198435972629521
1.1857282502443791
1.1749755620723363
1.164222873900293
1.1544477028347997
1.1436950146627567
1.1329423264907137
1.1270772238514175
1.1231671554252198
1.118279569892473
1.1124144672531768
1.1055718475073313
1.096774193548387
1.088954056695992
1.083088954056696
1.0772238514173995
1.0713587487781036
1.0664711632453567
1.06158357771261
1.0606060606060606
1.0606060606060606
1.0576735092864125
1.053763440860215
1.0498533724340176
1.04594330400782
1.0420332355816226
1.0381231671554252
1.0342130987292275
1.029325513196481
1.021505376344086
1.0127077223851415
1.0087976539589445
1.0087976539589445
1.0146627565982405
1.0361681329423265
1.0811339198435972
1.155425219941349
1.2619745845552297
1.3998044965786902
1.563049853372434
1.7448680351906158
1.9335288367546437
2.120234604105572
2.294232649071359
2.43108504398827
2.539589442815249
2.643206256109482
2.732160312805474
2.803519061583578
2.855327468230694
2.889540566959922
2.906158357771261
2.90811339198436
2.895405669599218
2.8690127077223853
2.833822091886608
2.792766373411535
2.745845552297165
2.69208211143695
2.632453567937439
2.5669599217986314
2.496578690127077
2.423264907135875
2.3489736070381237
2.27761485826002
2.2111436950146626
2.1485826001955037
2.093841642228739
2.046920821114369
2.026392961876833
2.022482893450636
2.0117302052785924
1.9980449657869013
1.9853372434017595
1.9726295210166176
1.959921798631476
1.9472140762463344
1.9345063538611929
1.920821114369501
1.90811339198436
1.8944281524926687
1.8807429130009776
1.865102639296188
1.844574780058651
1.8201368523949168
1.7927663734115349
1.7634408602150538
1.7331378299120237
1.7028347996089932
1.6744868035190617
1.64613880742913
1.6177908113391983
1.590420332355816
1.563049853372434
1.541544477028348
1.52297165200391
1.5034213098729228
1.482893450635386
1.4623655913978495
1.4408602150537635
1.4222873900293256
1.4066471163245358
1.3919843597262953
1.3782991202346042
1.364613880742913
1.3519061583577712
1.343108504398827
1.335288367546432
1.3255131964809383
1.3147605083088951
1.3049853372434017
1.295210166177908
1.2864125122189638
1.278592375366569
1.270772238514174
1.262952101661779
1.2551319648093842
1.2473118279569892
1.2404692082111437
1.2365591397849462
1.2336265884652982
1.227761485826002
1.2209188660801564
1.2140762463343109
1.206256109481916
1.198435972629521
1.1906158357771262
1.1827956989247312
1.1759530791788857
1.1710654936461389
1.166177908113392
1.1652003910068427
1.1652003910068427
1.163245356793744
1.160312805474096
1.1564027370478984
1.1534701857282503
1.1564027370478984
1.1700879765395895
1.1994134897360704
1.2531769305962854
1.3362658846529814
1.4535679374389052
1.6021505376344083
1.7487781036168133
1.8983382209188664
2.074291300097752
2.2580645161290325
2.4349951124144678
2.5962854349951123
2.736070381231672
2.852394916911046
2.943304007820137
3.0097751710654936
3.0547409579667644
3.0821114369501466
3.0879765395894427
3.0791788856304985
3.06158357771261
3.035190615835777
2.99902248289345
2.95405669599218
2.902248289345064
2.843597262952102
2.7781036168132944
2.705767350928641
