ppg
1.7311827956989247
1.6979472140762464
1.664711632453568
1.635386119257087
1.608993157380254
1.5806451612903225
1.552297165200391
1.5239491691104594
1.4975562072336266
1.4731182795698925
1.444770283479961
1.4203323558162269
1.4037145650048877
1.3870967741935485
1.3724340175953078
1.3607038123167154
1.3558162267839686
1.359726295210166
1.3734115347018572
1.401759530791789
1.4457478005865103
1.5063538611925709
1.581622678396872
1.6666666666666667
1.7565982404692082
1.8455522971652003
1.9286412512218964
2.0
2.0518084066471163
2.0869990224828934
2.1114369501466275
2.1221896383186705
2.117302052785924
2.0977517106549364
2.064516129032258
2.0195503421309877
1.964809384164223
1.9042033235581624
1.839687194525904
1.7741935483870968
1.7116324535679377
1.6598240469208212
1.616813294232649
1.5757575757575757
1.541544477028348
1.5161290322580645
1.500488758553275
1.4916911045943304
1.4897360703812317
1.4916911045943304
1.495601173020528
1.498533724340176
1.499511241446725
1.499511241446725
1.4965786901270772
1.487781036168133
1.474095796676442
1.457478005865103
1.4379276637341154
1.4164222873900294
1.3919843597262953
1.3665689149560116
1.3411534701857282
1.3157380254154447
1.2913000977517106
1.2717497556207231
1.2551319648093842
1.2355816226783969
1.217008797653959
1.1994134897360704
1.1827956989247312
1.1681329423264908
1.155425219941349
1.144672531769306
1.1348973607038124
1.126099706744868
1.1192570869990224
1.1133919843597262
1.1114369501466277
1.1114369501466277
1.1094819159335287
1.1065493646138806
1.104594330400782
1.1026392961876832
1.099706744868035
1.096774193548387
1.0928641251221896
1.088954056695992
1.0850439882697946
1.0811339198435972
1.0801564027370478
1.0801564027370478
1.078201368523949
1.0762463343108504
1.0733137829912025
1.0703812316715542
1.0664711632453567
1.0625610948191593
1.0586510263929618
1.0557184750733135
1.0527859237536656
1.0498533724340176
1.0469208211143697
1.0469208211143697
1.0488758553274682
1.0488758553274682
1.0478983382209188
1.04594330400782
1.0439882697947214
1.0420332355816226
1.0410557184750733
1.0410557184750733
1.0420332355816226
1.0420332355816226
1.043010752688172
1.0478983382209188
1.0547409579667644
1.0606060606060606
1.064516129032258
1.067448680351906
1.0703812316715542
1.0733137829912025
1.0762463343108504
1.078201368523949
1.0801564027370478
1.0811339198435972
1.083088954056696
1.086021505376344
1.0909090909090908
1.096774193548387
1.1016617790811338
1.1065493646138806
1.110459433040078
1.1124144672531768
1.1133919843597262
1.1143695014662756
1.1192570869990224
1.130987292277615
1.1779081133919844
1.2346041055718475
1.2776148582600195
1.3470185728250244
1.455522971652004
1.5962854349951123
1.7605083088954057
1.9403714565004888
2.126099706744868
2.3069403714565007
2.474095796676442
2.6236559139784945
2.752688172043011
2.860215053763441
2.948191593352884
3.007820136852395
3.0498533724340176
3.090909090909091
3.1270772238514173
3.157380254154448
3.1818181818181817
3.19941348973607
3.209188660801564
3.1544477028347995
3.0635386119257086
3.004887585532747
2.956011730205278
2.90811339198436
2.857282502443793
2.80058651026393
2.73802541544477
2.670576735092864
2.60019550342131
2.530791788856305
2.463343108504399
2.39980449657869
2.3421309872922778
2.290322580645161
2.243401759530792
2.201368523949169
2.164222873900293
2.1300097751710654
2.0948191593352883
2.059628543499511
2.0234604105571847
1.986314760508309
1.949169110459433
1.911045943304008
1.8729227761485825
1.8347996089931573
1.7976539589442817
1.7605083088954057
1.7282502443792769
1.6989247311827955
1.6686217008797657
1.6363636363636365
1.6050830889540566
1.5757575757575757
1.547409579667644
1.5190615835777126
1.4858260019550342
1.457478005865103
1.436950146627566
1.414467253176931
1.392961876832845
1.375366568914956
1.3607038123167154
1.346041055718475
1.3313782991202343
1.316715542521994
1.303030303030303
1.289345063538612
1.2766373411534702
1.2649071358748778
1.2531769305962854
1.241446725317693
1.23069403714565
1.2228739002932552
1.2160312805474096
1.206256109481916
1.1964809384164223
1.1867057673509287
1.1759530791788857
1.166177908113392
1.1564027370478984
1.147605083088954
1.1397849462365592
1.1319648093841643
1.1241446725317692
1.1173020527859236
1.1143695014662756
1.1124144672531768
1.1085043988269794
1.1055718475073313
1.1026392961876832
1.099706744868035
1.0957966764418376
1.0928641251221896
1.0909090909090908
1.088954056695992
1.0879765395894427
1.0869990224828934
1.088954056695992
1.0909090909090908
1.0899315738025417
1.0879765395894427
1.0869990224828934
1.0850439882697946
1.0879765395894427
1.0928641251221896
1.1016617790811338
1.1221896383186705
1.1808406647116323
1.2473118279569892
1.3069403714565004
1.3792766373411536
1.4643206256109482
1.573802541544477
1.6989247311827955
1.8299120234604105
1.9853372434017595
2.120234604105572
2.209188660801564
2.294232649071359
2.3812316715542523
2.450635386119257
2.4946236559139785
2.525904203323558
2.5542521994134897
2.581622678396872
2.5992179863147604
2.616813294232649
2.63049853372434
2.638318670576735
2.6402737047898337
2.635386119257087
2.6129032258064515
2.5855327468230693
2.560117302052786
2.5102639296187683
2.442815249266862
2.3929618768328447
2.350928641251222
2.2952101661779083
2.219941348973607
2.1515151515151514
2.104594330400782
2.046920821114369
1.9980449657869013
1.964809384164223
1.9315738025415443
1.895405669599218
1.8592375366568916
1.833822091886608
1.8142717497556209
1.782991202346041
1.7448680351906158
1.7174975562072337
1.6959921798631477
1.6608015640273706
1.619745845552297
1.58455522971652
1.5591397849462365
1.5356793743890518
1.5063538611925709
1.478005865102639
1.4496578690127078
1.423264907135875
1.396871945259042
1.3782991202346042
1.3577712609970674
1.3313782991202343
1.3088954056695992
1.289345063538612
1.2717497556207231
1.2561094819159335
1.2443792766373412
1.2346041055718475
1.2228739002932552
1.2111436950146628
1.1994134897360704
1.1886608015640274
1.1779081133919844
1.1671554252199414
1.1573802541544478
1.1485826001955035
1.1397849462365592
1.1319648093841643
1.126099706744868
1.1221896383186705
1.1173020527859236
1.1114369501466277
1.104594330400782
1.0977517106549364
1.0909090909090908
1.0840664711632453
1.078201368523949
1.072336265884653
1.067448680351906
1.0635386119257086
1.0596285434995112
1.0586510263929618
1.0596285434995112
1.0586510263929618
1.0576735092864125
1.056695992179863
1.0557184750733135
1.0547409579667644
1.053763440860215
1.0518084066471165
1.0498533724340176
1.0469208211143697
1.0439882697947214
1.0439882697947214
1.0469208211143697
1.050830889540567
1.0596285434995112
1.078201368523949
1.1124144672531768
1.1652003910068427
1.2375366568914956
1.3304007820136852
1.4418377321603129
1.5650048875855327
1.6959921798631477
1.8269794721407624
1.9374389051808407
2.0303030303030303
2.124144672531769
2.210166177908113
2.283479960899316
2.3440860215053765
2.3919843597262958
2.4301075268817205
2.458455522971652
2.479960899315738
2.496578690127077
2.509286412512219
2.5141739980449658
2.5131964809384164
2.512218963831867
2.50733137829912
2.496578690127077
2.47702834799609
2.4486803519061584
2.4115347018572826
2.366568914956012
2.314760508308896
2.259042033235582
2.2023460410557183
2.147605083088954
2.099706744868035
2.0576735092864125
2.0175953079178885
1.9804496578690127
1.946236559139785
1.913978494623656
1.8836754643206255
1.8533724340175952
1.823069403714565
1.7917888563049853
1.7605083088954057
1.7272727272727273
1.6979472140762464
1.6705767350928642
1.6392961876832846
1.607038123167155
1.5757575757575757
1.544477028347996
1.5151515151515151
1.4858260019550342
1.458455522971652
1.4330400782013686
1.4105571847507332
1.3900293255131966
1.3714565004887584
1.356793743890518
1.3450635386119256
1.324535679374389
1.300097751710655
1.2825024437927663
1.2697947214076246
1.2590420332355816
1.249266862170088
1.2404692082111437
1.2316715542521994
1.2238514173998043
1.2160312805474096
1.2111436950146628
1.2072336265884651
1.2013685239491692
1.195503421309873
1.187683284457478
1.1798631476050832
1.1720430107526882
1.164222873900293
1.1564027370478984
1.1485826001955035
1.1407624633431086
1.1329423264907137
1.1241446725317692
1.118279569892473
1.1143695014662756
1.1094819159335287
1.104594330400782
1.0987292277614855
1.0928641251221896
1.086021505376344
1.0801564027370478
1.0742913000977516
1.0694037145650048
1.0654936461388074
1.0625610948191593
1.0635386119257086
1.0664711632453567
1.0684261974584557
1.0694037145650048
1.0703812316715542
1.0713587487781036
1.0742913000977516
1.0801564027370478
1.0948191593352885
1.1221896383186705
1.166177908113392
1.2297165200391007
1.313782991202346
1.401759530791789
1.495601173020528
1.6138807429130009
1.7458455522971652
1.881720430107527
2.013685239491691
2.136852394916911
2.2482893450635384
2.345063538611926
2.4271749755620724
2.495601173020528
2.5532746823069403
2.593352883675464
2.621700879765396
2.652003910068426
2.6803519061583576
2.705767350928641
2.727272727272727
2.742913000977517
2.752688172043011
2.755620723362659
2.750733137829912
2.736070381231672
2.7116324535679373
2.677419354838709
2.636363636363636
2.5884652981427174
2.5317693059628543
2.466275659824047
2.3958944281524928
2.32355816226784
2.251221896383187
2.182795698924731
2.1192570869990224
2.06158357771261
2.010752688172043
1.964809384164223
1.927663734115347
1.895405669599218
1.8631476050830889
1.83088954056696
1.7996089931573802
1.76930596285435
1.7380254154447703
1.7067448680351909
1.6735092864125125
1.640273704789834
1.6050830889540566
1.5708699902248289
1.541544477028348
1.5141739980449658
1.4838709677419355
1.452590420332356
1.4213098729227762
1.391006842619746
1.3626588465298142
1.3362658846529814
1.310850439882698
1.2873900293255132
1.2658846529814272
1.24633431085044
1.227761485826002
1.2140762463343109
1.2023460410557183
1.1886608015640274
1.1749755620723363
1.1622678396871946
1.1495601173020529
1.1368523949169111
1.1251221896383188
1.1124144672531768
1.099706744868035
1.0879765395894427
1.0772238514173995
1.0703812316715542
1.0654936461388074
1.0586510263929618
1.050830889540567
1.043010752688172
1.0361681329423265
1.029325513196481
1.0234604105571847
1.0175953079178883
1.0117302052785924
1.0058651026392962
1.0
0.9951124144672532
0.9931573802541545
0.9931573802541545
0.9902248289345064
0.9863147605083088
0.9824046920821116
0.9794721407624634
0.9765395894428152
0.975562072336266
0.9745845552297164
0.9736070381231672
0.9726295210166178
0.9726295210166178
0.9745845552297164
0.9804496578690128
0.9882697947214076
1.0039100684261977
1.032258064516129
1.078201368523949
1.1436950146627567
1.2316715542521994
1.3401759530791788
1.4652981427174976
1.6021505376344083
1.7429130009775171
1.881720430107527
1.9960899315738023
2.0928641251221896
2.1915933528836757
2.281524926686217
2.3597262952101663
2.426197458455523
2.482893450635386
2.529814271749756
2.56891495601173
2.601173020527859
2.6285434995112413
2.6510263929618767
2.66177908113392
2.665689149560117
2.668621700879765
2.6666666666666665
2.6578690127077222
2.6402737047898337
2.613880742913001
2.5777126099706744
2.5317693059628543
2.47702834799609
2.4144672531769307
2.346041055718475
2.2737047898338223
2.207233626588465
2.145650048875855
2.0821114369501466
2.0205278592375366
1.964809384164223
1.9149560117302051
1.8699902248289344
1.83088954056696
1.796676441837732
1.7663734115347018
1.7380254154447703
1.7096774193548387
1.6842619745845553
1.6608015640273706
1.6334310850439884
1.603128054740958
1.5728250244379276
1.541544477028348
1.509286412512219
1.47702834799609
1.4457478005865103
1.414467253176931
1.3841642228739004
1.3548387096774193
1.3264907135874875
1.3040078201368523
1.284457478005865
1.2639296187683284
1.2424242424242424
1.2209188660801564
1.2003910068426198
1.181818181818182
1.1652003910068427
1.1495601173020529
1.1348973607038124
1.1202346041055715
1.1065493646138806
1.096774193548387
1.088954056695992
1.0791788856304985
1.0684261974584557
1.0586510263929618
1.0488758553274682
1.040078201368524
1.032258064516129
1.0254154447702837
1.0195503421309873
1.013685239491691
1.007820136852395
1.0019550342130987
0.9990224828934506
0.997067448680352
0.9931573802541545
0.9882697947214076
0.9833822091886608
0.9775171065493646
0.9726295210166178
0.967741935483871
0.9638318670576737
0.9608993157380256
0.9589442815249268
0.956989247311828
0.9579667644183774
0.9608993157380256
0.9628543499511242
0.9638318670576737
0.9638318670576737
0.9628543499511242
0.9618768328445748
0.9608993157380256
0.9618768328445748
0.9794721407624634
1.0117302052785924
1.0478983382209188
1.0977517106549364
1.1544477028347997
1.224828934506354
1.3225806451612905
1.4437927663734116
1.581622678396872
1.729227761485826
1.8797653958944285
2.026392961876833
2.163245356793744
2.2854349951124147
2.3919843597262958
2.4819159335288368
2.5464320625610948
2.593352883675464
2.638318670576735
2.678396871945259
2.713587487781036
2.742913000977517
2.7673509286412514
2.7869012707722387
2.7996089931573804
2.8054740957966766
2.803519061583578
2.792766373411535
2.771260997067449
2.740957966764418
2.701857282502444
2.6510263929618767
2.590420332355816
2.5219941348973607
2.447702834799609
2.372434017595308
2.2981427174975564
2.2267839687194524
2.1622678396871944
2.104594330400782
2.0547409579667644
2.0146627565982405
1.981427174975562
1.9501466275659824
1.919843597262952
1.8914956011730208
1.8631476050830889
1.833822091886608
1.804496578690127
1.7732160312805474
1.7409579667644184
1.70772238514174
1.672531769305963
1.6363636363636365
1.6050830889540566
1.576735092864125
1.544477028347996
1.512218963831867
1.479960899315738
1.4486803519061584
1.4193548387096775
1.3919843597262953
1.3665689149560116
1.343108504398827
1.321603128054741
1.3010752688172045
1.2864125122189638
1.273704789833822
1.2590420332355816
1.2453567937438903
1.2316715542521994
1.2189638318670577
1.2072336265884651
1.195503421309873
1.1837732160312806
1.1720430107526882
1.1612903225806452
1.1505376344086022
1.1436950146627567
1.13880742913001
1.1329423264907137
1.126099706744868
1.118279569892473
1.110459433040078
1.1026392961876832
1.0948191593352885
1.0879765395894427
1.0811339198435972
1.0742913000977516
1.0684261974584557
1.06158357771261
1.0586510263929618
1.0586510263929618
1.056695992179863
1.053763440860215
1.050830889540567
1.0478983382209188
1.0449657869012707
1.043010752688172
1.0420332355816226
1.0410557184750733
1.040078201368524
1.0391006842619743
1.0410557184750733
1.04594330400782
1.0518084066471165
1.0654936461388074
1.0918866080156402
1.1368523949169111
1.2043010752688172
1.2961876832844574
1.412512218963832
1.547409579667644
1.6959921798631477
1.8504398826979471
2.003910068426197
2.1309872922776147
2.239491691104594
2.347996089931574
2.4486803519061584
2.536656891495601
2.610948191593353
2.6725317693059627
2.724340175953079
2.768328445747801
2.8054740957966766
2.835777126099707
2.8611925708699903
2.873900293255132
2.877810361681329
2.8807429130009776
2.877810361681329
2.866080156402737
2.8455522971652005
2.8132942326490715
2.7702834799608995
2.716520039100684
2.6529814271749754
2.582600195503421
2.50733137829912
2.429130009775171
2.358748778103617
2.294232649071359
2.2297165200391005
2.1681329423264906
2.112414467253177
2.0625610948191597
2.018572825024438
1.9794721407624636
1.9442815249266865
1.9100684261974583
1.87683284457478
1.8435972629521016
1.8142717497556209
1.7859237536656891
1.75366568914956
1.7194525904203324
1.6842619745845553
1.6490713587487782
1.6129032258064515
1.576735092864125
1.541544477028348
1.5063538611925709
1.4721407624633431
1.439882697947214
1.4086021505376345
1.3841642228739004
1.3636363636363635
1.3401759530791788
1.316715542521994
1.2942326490713587
1.2727272727272727
1.252199413489736
1.2346041055718475
1.2189638318670577
1.2043010752688172
1.1915933528836755
1.1808406647116323
1.173998044965787
1.1691104594330402
1.1622678396871946
1.1534701857282503
1.144672531769306
1.1348973607038124
1.1251221896383188
1.115347018572825
1.1055718475073313
1.096774193548387
1.0879765395894427
1.0811339198435972
1.0742913000977516
1.0713587487781036
1.0703812316715542
1.067448680351906
1.0635386119257086
1.0596285434995112
1.056695992179863
1.0586510263929618
1.0684261974584557
1.0909090909090908
1.1290322580645162
1.1886608015640274
1.2697947214076246
1.3558162267839686
1.4506353861192571
1.5698924731182795
1.7038123167155426
1.842619745845552
1.9794721407624636
2.1094819159335287
2.2267839687194524
2.3284457478005867
2.4144672531769307
2.4858260019550342
2.544477028347996
2.592375366568915
2.624633431085044
2.64613880742913
2.667644183773216
2.687194525904203
2.701857282502444
2.7116324535679373
2.7145650048875853
2.7096774193548385
2.6959921798631474
2.6725317693059627
2.6373411534701856
2.591397849462365
2.5405669599217986
2.484848484848485
2.418377321603128
2.3440860215053765
2.267839687194526
2.193548387096774
2.12316715542522
2.058651026392962
2.0019550342130987
1.9521016617790807
1.9090909090909087
1.870967741935484
1.836754643206256
1.8084066471163245
1.7820136852394917
1.75366568914956
1.7243401759530792
1.6930596285434996
1.66177908113392
1.629521016617791
1.595307917888563
1.5610948191593352
1.5268817204301075
1.4936461388074291
1.4604105571847508
1.434017595307918
1.4105571847507332
1.3851417399804498
1.356793743890518
1.327468230694037
1.300097751710655
1.273704789833822
1.2482893450635386
1.224828934506354
1.203323558162268
1.1827956989247312
1.164222873900293
1.1466275659824048
1.133919843597263
1.1251221896383188
1.1133919843597262
1.1006842619745845
1.088954056695992
1.078201368523949
1.067448680351906
1.0576735092864125
1.0478983382209188
1.0381231671554252
1.0283479960899315
1.018572825024438
1.0127077223851415
1.0097751710654936
1.0039100684261977
0.997067448680352
0.989247311827957
0.9824046920821116
0.9765395894428152
0.9716520039100685
0.9667644183773216
0.9628543499511242
0.9589442815249268
0.95405669599218
0.9530791788856304
0.95405669599218
0.9530791788856304
0.9511241446725318
0.9501466275659824
0.9481915933528836
0.9472140762463344
0.946236559139785
0.9452590420332356
0.9452590420332356
0.9452590420332356
0.9452590420332356
0.946236559139785
0.9501466275659824
0.9560117302052786
0.9589442815249268
0.9618768328445748
0.9638318670576737
0.9657869012707724
0.967741935483871
0.9696969696969696
0.9706744868035192
0.9726295210166178
0.9736070381231672
0.975562072336266
0.9794721407624634
0.9872922776148584
0.9980449657869012
1.0195503421309873
1.056695992179863
1.1163245356793745
1.203323558162268
1.3196480938416422
1.4633431085043989
1.6304985337243405
1.812316715542522
2.0
2.1837732160312804
2.3362658846529816
2.464320625610948
2.592375366568915
2.710654936461388
2.8132942326490715
2.900293255131965
2.972629521016618
3.0332355816226784
3.0840664711632453
3.126099706744868
3.161290322580645
3.188660801564027
3.2023460410557183
3.2052785923753664
3.206256109481916
3.20039100684262
3.1847507331378297
3.158357771260997
3.120234604105572
3.069403714565005
3.007820136852395
2.935483870967742
2.855327468230694
2.76930596285435
2.6803519061583576
2.60019550342131
2.525904203323558
2.449657869012708
2.378299120234604
2.312805474095797
2.254154447702835
2.201368523949169
2.15347018572825
2.1094819159335287
2.067448680351906
2.026392961876833
1.9853372434017595
1.948191593352884
1.9130009775171064
1.873900293255132
1.833822091886608
1.7917888563049853
1.7497556207233629
1.70772238514174
1.6666666666666667
1.6275659824046922
1.5894428152492668
1.552297165200391
1.5161290322580645
1.4809384164222874
1.452590420332356
1.4281524926686218
1.4007820136852396
1.3734115347018572
1.3470185728250244
1.321603128054741
1.2991202346041055
1.2776148582600195
1.2570869990224829
1.2375366568914956
1.2189638318670577
1.2013685239491692
1.1886608015640274
1.1788856304985338
1.1671554252199414
1.155425219941349
1.144672531769306
1.1329423264907137
1.1221896383186705
1.1114369501466277
1.1016617790811338
1.0918866080156402
1.0821114369501466
1.0733137829912025
1.0654936461388074
1.06158357771261
1.0596285434995112
1.0547409579667644
1.0478983382209188
1.040078201368524
1.0332355816226784
1.0263929618768328
1.0205278592375366
1.0146627565982405
1.0087976539589445
1.002932551319648
0.9980449657869012
0.997067448680352
0.9980449657869012
0.997067448680352
0.9960899315738024
0.9941348973607038
0.9921798631476052
0.9902248289345064
0.989247311827957
0.9902248289345064
0.9960899315738024
1.0127077223851415
1.0439882697947214
1.0948191593352885
1.155425219941349
1.2316715542521994
1.3372434017595307
1.4672531769305963
1.6138807429130009
1.7712609970674489
1.9315738025415443
2.086021505376344
2.2297165200391005
2.358748778103617
2.4711632453567938
2.565982404692082
2.634408602150537
2.6852394916911044
2.735092864125122
2.780058651026393
2.819159335288368
2.852394916911046
2.8797653958944283
2.9012707722385143
2.9159335288367547
2.9227761485826003
2.919843597262952
2.905180840664712
2.878787878787879
2.843597262952102
2.798631476050831
2.7419354838709675
2.673509286412512
2.598240469208211
2.5180840664711632
2.436950146627566
2.358748778103617
2.2854349951124147
2.218963831867057
2.160312805474096
2.10850439882698
2.0664711632453567
2.03128054740958
1.997067448680352
1.962854349951124
1.9296187683284456
1.8963831867057677
1.8631476050830889
1.827956989247312
1.7917888563049853
1.7546432062561097
1.718475073313783
1.6813294232649072
1.643206256109482
1.6109481915933528
1.5806451612903225
1.547409579667644
1.5131964809384164
1.478005865102639
1.444770283479961
1.4134897360703813
1.3841642228739004
1.356793743890518
1.3313782991202343
1.3088954056695992
1.2873900293255132
1.2717497556207231
1.260019550342131
1.24633431085044
1.2316715542521994
1.217008797653959
1.203323558162268
1.1886608015640274
1.1749755620723363
1.160312805474096
1.1456500488758554
1.130987292277615
1.1163245356793745
1.099706744868035
1.0869990224828934
1.0762463343108504
1.06158357771261
1.04594330400782
1.0303030303030305
1.0156402737047898
1.0009775171065494
0.9872922776148584
0.9765395894428152
0.9824046920821116
0.997067448680352
1.002932551319648
1.0087976539589445
1.013685239491691
1.0166177908113392
1.0195503421309873
1.0224828934506354
1.0254154447702837
1.029325513196481
1.035190615835777
1.0410557184750733
1.0478983382209188
1.0547409579667644
1.06158357771261
1.0703812316715542
1.078201368523949
1.0840664711632453
1.0909090909090908
1.099706744868035
1.1143695014662756
1.13880742913001
1.1779081133919844
1.2346041055718475
1.3128054740957966
1.4105571847507332
1.525904203323558
1.653958944281525
1.7712609970674489
1.881720430107527
2.003910068426197
2.1251221896383186
2.2375366568914954
2.3382209188660803
2.4252199413489737
2.498533724340176
2.560117302052786
2.6129032258064515
2.6578690127077222
2.6959921798631474
2.721407624633431
2.7390029325513194
2.757575757575758
2.7751710654936463
2.7869012707722387
2.790811339198436
2.7859237536656893
2.7702834799608995
2.742913000977517
2.7038123167155423
2.653958944281525
2.593352883675464
2.525904203323558
2.4604105571847508
2.396871945259042
2.3274682306940373
2.259042033235582
2.193548387096774
2.133919843597263
2.080156402737048
2.0332355816226784
1.991202346041056
1.95405669599218
1.919843597262952
1.8875855327468232
1.8602150537634408
