ppg
3.004887585532747
3.024437927663734
3.038123167155425
3.0439882697947214
3.042033235581622
3.032258064516129
3.013685239491691
2.988269794721408
2.956011730205278
2.917888563049853
2.874877810361681
2.825024437927664
2.76930596285435
2.705767350928641
2.636363636363636
2.5620723362658846
2.482893450635386
2.4027370478983383
2.3225806451612905
2.2453567937438903
2.172043010752688
2.103616813294233
2.046920821114369
1.9980449657869013
1.9501466275659824
1.905180840664712
1.8631476050830889
1.8240469208211143
1.7869012707722385
1.7526881720430108
1.721407624633431
1.6911045943304008
1.66177908113392
1.632453567937439
1.606060606060606
1.5826001955034212
1.5571847507331378
1.5298142717497556
1.5024437927663734
1.4760508308895406
1.4506353861192571
1.4252199413489737
1.3998044965786902
1.3734115347018572
1.3470185728250244
1.321603128054741
1.2981427174975562
1.2795698924731185
1.262952101661779
1.2443792766373412
1.2238514173998043
1.203323558162268
1.1827956989247312
1.1612903225806452
1.141739980449658
1.1241446725317692
1.10752688172043
1.0918866080156402
1.0772238514173995
1.067448680351906
1.0596285434995112
1.0488758553274682
1.0371456500488758
1.024437927663734
1.0127077223851415
1.002932551319648
0.9951124144672532
0.9902248289345064
0.9853372434017597
0.9794721407624634
0.9736070381231672
0.9667644183773216
0.9628543499511242
0.959921798631476
0.95405669599218
0.9491691104594332
0.9501466275659824
0.9638318670576737
0.9980449657869012
1.0625610948191593
1.1612903225806452
1.2942326490713587
1.455522971652004
1.6363636363636365
1.7996089931573802
1.9501466275659824
2.112414467253177
2.2688172043010755
2.410557184750733
2.5347018572825024
2.641251221896383
2.732160312805474
2.8084066471163247
2.870967741935484
2.921798631476051
2.961876832844575
2.9931573802541545
3.0097751710654936
3.01564027370479
3.0195503421309877
3.0175953079178885
3.0097751710654936
2.9960899315738025
2.975562072336266
2.9501466275659824
2.916911045943304
2.875855327468231
2.8269794721407626
2.771260997067449
2.7145650048875853
2.654936461388074
2.5865102639296187
2.5112414467253177
2.43108504398827
2.3499511241446727
2.269794721407625
2.1925708699902247
2.1192570869990224
2.050830889540567
1.989247311827957
1.9345063538611929
1.8914956011730208
1.855327468230694
1.8201368523949168
1.7888563049853372
1.7595307917888563
1.7302052785923754
1.7018572825024438
1.6735092864125125
1.643206256109482
1.6129032258064515
1.5826001955034212
1.5532746823069403
1.5249266862170088
1.500488758553275
1.479960899315738
1.457478005865103
1.434017595307918
1.409579667644184
1.3851417399804498
1.3607038123167154
1.343108504398827
1.3294232649071358
1.310850439882698
1.2913000977517106
1.2697947214076246
1.252199413489736
1.238514173998045
1.2228739002932552
1.2052785923753666
1.1886608015640274
1.1730205278592376
1.1564027370478984
1.1407624633431086
1.126099706744868
1.1114369501466277
1.096774193548387
1.0840664711632453
1.0733137829912025
1.0664711632453567
1.0625610948191593
1.0557184750733135
1.0478983382209188
1.0410557184750733
1.035190615835777
1.0283479960899315
1.021505376344086
1.0166177908113392
1.0127077223851415
1.0087976539589445
1.0039100684261977
1.0009775171065494
0.9980449657869012
0.9921798631476052
0.9863147605083088
0.9872922776148584
1.0009775171065494
1.0381231671554252
1.1036168132942326
1.2003910068426198
1.327468230694037
1.479960899315738
1.6500488758553276
1.827956989247312
1.981427174975562
2.1163245356793743
2.2561094819159337
2.388074291300098
2.50733137829912
2.611925708699902
2.699902248289345
2.774193548387097
2.8367546432062563
2.886608015640274
2.9257086999022484
2.9550342130987293
2.9696969696969697
2.9745845552297165
2.9775171065493646
2.975562072336266
2.967741935483871
2.95405669599218
2.9345063538611926
2.909090909090909
2.878787878787879
2.8406647116324537
2.795698924731183
2.742913000977517
2.6823069403714563
2.622678396871945
2.5620723362658846
2.49266862170088
2.419354838709677
2.3440860215053765
2.269794721407625
2.196480938416422
2.126099706744868
2.0635386119257086
2.007820136852395
1.9579667644183771
1.9130009775171064
1.87683284457478
1.8465298142717497
1.8172043010752688
1.7888563049853372
1.761485826001955
1.7331378299120237
1.7038123167155426
1.6744868035190617
1.6451612903225807
1.616813294232649
1.5894428152492668
1.5620723362658846
1.5356793743890518
1.5131964809384164
1.4936461388074291
1.4731182795698925
1.4506353861192571
1.426197458455523
1.401759530791789
1.3782991202346042
1.3558162267839686
1.3333333333333333
1.310850439882698
1.2883675464320623
1.267839687194526
1.252199413489736
1.2394916911045943
1.2238514173998043
1.2072336265884651
1.1906158357771262
1.1749755620723363
1.1583577712609971
1.141739980449658
1.1251221896383188
1.110459433040078
1.096774193548387
1.0840664711632453
1.0733137829912025
1.0664711632453567
1.0625610948191593
1.056695992179863
1.0498533724340176
1.043010752688172
1.0371456500488758
1.0312805474095796
1.0254154447702837
1.0205278592375366
1.0166177908113392
1.0127077223851415
1.007820136852395
1.0039100684261977
1.0019550342130987
0.9960899315738024
0.9882697947214076
0.9843597262952102
0.9902248289345064
1.0127077223851415
1.06158357771261
1.141739980449658
1.2541544477028348
1.396871945259042
1.5620723362658846
1.739980449657869
1.8963831867057677
2.037145650048876
2.1867057673509285
2.3284457478005867
2.4565004887585533
2.56891495601173
2.665689149560117
2.7468230694037143
2.8132942326490715
2.8670576735092865
2.911045943304008
2.945259042033236
2.963831867057673
2.972629521016618
2.979472140762464
2.983382209188661
2.9824046920821115
2.9745845552297165
2.960899315738025
2.9393939393939394
2.9100684261974585
2.8729227761485827
2.827956989247312
2.777126099706745
2.720430107526881
2.6637341153470184
2.6050830889540566
2.5386119257087
2.466275659824047
2.3919843597262958
2.317693059628544
2.24633431085044
2.1788856304985336
2.115347018572825
2.0576735092864125
2.006842619745845
1.9608993157380252
1.9237536656891496
1.8905180840664717
1.858260019550342
1.8269794721407624
1.7976539589442817
1.7683284457478006
1.7380254154447703
1.7086999022482894
1.6803519061583578
1.6520039100684265
1.6226783968719452
1.5943304007820136
1.5708699902248289
1.5503421309872922
1.5268817204301075
1.5024437927663734
1.478005865102639
1.4535679374389052
1.4281524926686218
1.401759530791789
1.375366568914956
1.3499511241446724
1.3255131964809383
1.303030303030303
1.2825024437927663
1.267839687194526
1.2561094819159335
1.2404692082111437
1.2228739002932552
1.203323558162268
1.1857282502443791
1.1691104594330402
1.152492668621701
1.1368523949169111
1.1202346041055715
1.104594330400782
1.0899315738025417
1.0801564027370478
1.0742913000977516
1.0664711632453567
1.0576735092864125
1.0478983382209188
1.0381231671554252
1.0283479960899315
1.0205278592375366
1.013685239491691
1.0058651026392962
0.9980449657869012
0.9921798631476052
0.9872922776148584
0.9863147605083088
0.9872922776148584
0.9853372434017597
0.9804496578690128
0.9745845552297164
0.9687194525904204
0.9657869012707724
0.9706744868035192
0.9921798631476052
1.040078201368524
1.1202346041055715
1.2336265884652982
1.35386119257087
1.4838709677419355
1.6451612903225807
1.8201368523949168
1.9960899315738023
2.163245356793744
2.315738025415445
2.450635386119257
2.565982404692082
2.6637341153470184
2.7468230694037143
2.817204301075269
2.874877810361681
2.913000977517106
2.940371456500489
2.967741935483871
2.988269794721408
3.0009775171065494
3.006842619745845
3.006842619745845
2.99902248289345
2.98435972629521
2.961876832844575
2.9335288367546437
2.8993157380254155
2.8611925708699903
2.819159335288368
2.768328445747801
2.7096774193548385
2.644183773216031
2.572825024437928
2.4975562072336266
2.420332355816227
2.343108504398827
2.267839687194526
2.196480938416422
2.1300097751710654
2.069403714565005
2.0195503421309877
1.9775171065493649
1.9374389051808407
1.900293255131965
1.866080156402737
1.835777126099707
1.8074291300097751
1.780058651026393
1.75366568914956
1.726295210166178
1.6989247311827955
1.6705767350928642
1.64613880742913
1.6236559139784943
1.6001955034213098
1.5747800586510263
1.5493646138807429
1.5249266862170088
1.500488758553275
1.4760508308895406
1.4506353861192571
1.4242424242424243
1.3978494623655917
1.3734115347018572
1.3499511241446724
1.3304007820136852
1.3128054740957966
1.2942326490713587
1.2746823069403714
1.2541544477028348
1.2346041055718475
1.217008797653959
1.2003910068426198
1.1837732160312806
1.1681329423264908
1.152492668621701
1.1358748778103618
1.1251221896383188
1.1173020527859236
1.1085043988269794
1.0987292277614855
1.088954056695992
1.0811339198435972
1.0742913000977516
1.0684261974584557
1.06158357771261
1.0527859237536656
1.0449657869012707
1.0381231671554252
1.0312805474095796
1.0283479960899315
1.0273704789833822
1.0224828934506354
1.0166177908113392
1.0117302052785924
1.0097751710654936
1.0127077223851415
1.0303030303030305
1.0713587487781036
1.1407624633431086
1.2424242424242424
1.3743890518084063
1.509286412512219
1.6490713587487782
1.8142717497556209
1.9872922776148585
2.157380254154448
2.314760508308896
2.455522971652004
2.576735092864125
2.6803519061583576
2.768328445747801
2.841642228739003
2.903225806451613
2.9550342130987293
2.9872922776148583
3.0087976539589443
3.03128054740958
3.0498533724340176
3.064516129032258
3.0733137829912023
3.075268817204301
3.069403714565005
3.056695992179863
3.038123167155425
3.0117302052785924
2.9775171065493646
2.93841642228739
2.8944281524926687
2.843597262952102
2.7859237536656893
2.720430107526881
2.6480938416422286
2.5718475073313782
2.493646138807429
2.4164222873900294
2.3411534701857284
2.267839687194526
2.198435972629521
2.134897360703812
2.0821114369501466
2.038123167155425
1.9960899315738023
1.956989247311828
1.921798631476051
1.889540566959922
1.8592375366568916
1.828934506353861
1.7986314760508308
1.7683284457478006
1.7390029325513197
1.7096774193548387
1.6842619745845553
1.66177908113392
1.6363636363636365
1.6109481915933528
1.585532746823069
1.560117302052786
1.5347018572825024
1.5102639296187683
1.4868035190615836
1.4633431085043989
1.439882697947214
1.4164222873900294
1.392961876832845
1.3724340175953078
1.3548387096774193
1.3362658846529814
1.316715542521994
1.2981427174975562
1.2805474095796676
1.2619745845552297
1.2443792766373412
1.2267839687194526
1.2101661779081134
1.1935483870967742
1.1779081133919844
1.1671554252199414
1.1593352883675463
1.1495601173020529
1.1378299120234605
1.1251221896383188
1.1133919843597262
1.1036168132942326
1.0957966764418376
1.0879765395894427
1.0811339198435972
1.0742913000977516
1.0654936461388074
1.0606060606060606
1.0576735092864125
1.0518084066471165
1.0488758553274682
1.0557184750733135
1.0801564027370478
1.1290322580645162
1.209188660801564
1.3225806451612905
1.466275659824047
1.6334310850439884
1.81524926686217
2.0009775171065494
2.157380254154448
2.29227761485826
2.4301075268817205
2.5591397849462365
2.674486803519061
2.7751710654936463
2.863147605083089
2.9374389051808407
3.0
3.0518084066471163
3.0928641251221896
3.1251221896383186
3.142717497556207
3.1515151515151514
3.1593352883675463
3.164222873900293
3.1652003910068425
3.160312805474096
3.147605083088954
3.129032258064516
3.102639296187683
3.069403714565005
3.029325513196481
2.9824046920821115
2.9286412512218964
2.8729227761485827
2.811339198435973
2.739980449657869
2.66177908113392
2.5806451612903225
2.498533724340176
2.419354838709677
2.343108504398827
2.270772238514174
2.204301075268817
2.144672531769306
2.089931573802541
2.0449657869012707
2.006842619745845
1.9687194525904204
1.9315738025415443
1.8944281524926687
1.8592375366568916
1.825024437927664
1.7927663734115349
1.7624633431085044
1.7331378299120237
1.7038123167155426
1.6744868035190617
1.64613880742913
1.6226783968719452
1.5992179863147604
1.5708699902248289
1.541544477028348
1.512218963831867
1.4838709677419355
1.4545454545454546
1.426197458455523
1.3988269794721409
1.3724340175953078
1.346041055718475
1.3206256109481915
1.3020527859237536
1.2864125122189638
1.2668621700879763
1.2473118279569892
1.2287390029325511
1.2111436950146628
1.195503421309873
1.1798631476050832
1.160312805474096
1.1407624633431086
1.1241446725317692
1.1085043988269794
1.0957966764418376
1.088954056695992
1.0840664711632453
1.0772238514173995
1.0694037145650048
1.06158357771261
1.0547409579667644
1.0478983382209188
1.040078201368524
1.0312805474095796
1.021505376344086
1.0117302052785924
1.0048875855327468
1.0048875855327468
1.013685239491691
1.0371456500488758
1.0840664711632453
1.1593352883675463
1.2649071358748778
1.3988269794721409
1.555229716520039
1.7253176930596286
1.8983382209188664
2.0635386119257086
2.217986314760508
2.356793743890518
2.463343108504399
2.548387096774193
2.632453567937439
2.7096774193548385
2.777126099706745
2.833822091886608
2.881720430107527
2.921798631476051
2.95405669599218
2.979472140762464
2.99902248289345
3.0117302052785924
3.013685239491691
3.007820136852395
2.99902248289345
2.986314760508309
2.967741935483871
2.943304007820137
2.9120234604105573
2.873900293255132
2.827956989247312
2.7751710654936463
2.7145650048875853
2.6480938416422286
2.576735092864125
2.50733137829912
2.4389051808406648
2.366568914956012
2.294232649071359
2.2238514173998043
2.156402737047898
2.093841642228739
2.037145650048876
1.9853372434017595
1.9393939393939397
1.8973607038123168
1.8592375366568916
1.827956989247312
1.8005865102639296
1.772238514173998
1.7448680351906158
1.7165200391006843
1.6881720430107527
1.6608015640273706
1.632453567937439
1.6021505376344083
1.5718475073313782
1.541544477028348
1.512218963831867
1.482893450635386
1.4594330400782014
1.4389051808406648
1.414467253176931
1.3900293255131966
1.3655913978494625
1.343108504398827
1.321603128054741
1.2991202346041055
1.2776148582600195
1.2561094819159335
1.2355816226783969
1.2140762463343109
1.198435972629521
1.1867057673509287
1.1710654936461389
1.1544477028347997
1.1368523949169111
1.1192570869990224
1.1036168132942326
1.088954056695992
1.075268817204301
1.0635386119257086
1.0527859237536656
1.0420332355816226
1.032258064516129
1.0273704789833822
1.0234604105571847
1.0175953079178883
1.010752688172043
1.0039100684261977
0.9980449657869012
0.9921798631476052
0.9863147605083088
0.9794721407624634
0.9716520039100685
0.9657869012707724
0.9657869012707724
0.9765395894428152
1.0019550342130987
1.050830889540567
1.1290322580645162
1.2375366568914956
1.3743890518084063
1.5327468230694037
1.7028347996089932
1.8748778103616808
2.0410557184750733
2.1945259042033234
2.333333333333333
2.439882697947214
2.5239491691104594
2.6050830889540566
2.679374389051808
2.745845552297165
2.801564027370479
2.8484848484848486
2.886608015640274
2.916911045943304
2.93841642228739
2.9530791788856305
2.959921798631476
2.959921798631476
2.952101661779081
2.93841642228739
2.921798631476051
2.900293255131965
2.873900293255132
2.841642228739003
2.801564027370479
2.755620723362659
2.702834799608993
2.643206256109482
2.5777126099706744
2.506353861192571
2.4379276637341154
2.3714565004887587
2.300097751710655
2.2267839687194524
2.1544477028347995
2.086021505376344
2.024437927663734
1.9687194525904204
1.919843597262952
1.87683284457478
1.8387096774193548
1.8025415444770283
1.76930596285435
1.7409579667644184
1.715542521994135
1.6881720430107527
1.6588465298142718
1.6285434995112416
1.5992179863147604
1.5708699902248289
1.541544477028348
1.5131964809384164
1.4868035190615836
1.4594330400782014
1.4330400782013686
1.4105571847507332
1.391006842619746
1.3695014662756595
1.3470185728250244
1.3225806451612905
1.2981427174975562
1.2756598240469208
1.2541544477028348
1.2316715542521994
1.209188660801564
1.1867057673509287
1.1652003910068427
1.1436950146627567
1.1270772238514175
1.1143695014662756
1.099706744868035
1.0850439882697946
1.0703812316715542
1.0557184750733135
1.0410557184750733
1.0263929618768328
1.0117302052785924
0.9990224828934506
0.9882697947214076
0.9775171065493646
0.9726295210166178
0.9696969696969696
0.9628543499511242
0.9560117302052786
0.9491691104594332
0.9423264907135877
0.935483870967742
0.9296187683284456
0.9227761485826002
0.916911045943304
0.9110459433040078
0.9071358748778104
0.9032258064516128
0.9032258064516128
0.9071358748778104
0.916911045943304
0.9433040078201368
0.9931573802541545
1.0733137829912025
1.18475073313783
1.324535679374389
1.4858260019550342
1.6578690127077225
1.8318670576735088
1.997067448680352
2.1309872922776147
2.242424242424242
2.3519061583577714
2.4516129032258065
2.5405669599217986
2.618768328445748
2.684261974584555
2.7390029325513194
2.7839687194525906
2.8211143695014664
2.849462365591398
2.8690127077223853
2.881720430107527
2.8826979472140764
2.875855327468231
2.8670576735092865
2.857282502443793
2.843597262952102
2.8240469208211145
2.7976539589442817
2.764418377321604
2.7233626588465296
2.675464320625611
2.619745845552297
2.558162267839687
2.496578690127077
2.434017595307918
2.3704789833822093
2.30791788856305
2.244379276637341
2.1808406647116323
2.120234604105572
2.0635386119257086
2.010752688172043
1.9618768328445748
1.9178885630498532
1.8778103616813293
1.839687194525904
1.8093841642228736
1.782991202346041
1.7556207233626588
1.729227761485826
1.7038123167155426
1.678396871945259
1.6529814271749756
1.6285434995112416
1.6021505376344083
1.5747800586510263
1.547409579667644
1.521016617790811
1.499511241446725
1.479960899315738
1.458455522971652
1.4349951124144673
1.4105571847507332
1.3870967741935485
1.364613880742913
1.3421309872922775
1.3196480938416422
1.2991202346041055
1.278592375366569
1.2590420332355816
1.241446725317693
1.227761485826002
1.217008797653959
1.2043010752688172
1.1906158357771262
1.176930596285435
1.163245356793744
1.1485826001955035
1.1348973607038124
1.1202346041055715
1.1065493646138806
1.0948191593352885
1.083088954056696
1.0762463343108504
1.0713587487781036
1.0635386119257086
1.0557184750733135
1.0478983382209188
1.040078201368524
1.0312805474095796
1.0234604105571847
1.0166177908113392
1.010752688172043
1.0068426197458455
1.002932551319648
1.0
1.0
1.0019550342130987
1.0019550342130987
0.9990224828934506
0.9941348973607038
0.989247311827957
0.989247311827957
0.9990224828934506
1.0263929618768328
1.0772238514173995
1.155425219941349
1.2639296187683284
1.3782991202346042
1.499511241446725
1.6471163245356797
1.804496578690127
1.9608993157380252
2.10752688172043
2.2385141739980448
2.3528836754643208
2.449657869012708
2.5317693059628543
2.601173020527859
2.658846529814272
2.705767350928641
2.736070381231672
2.7565982404692084
2.776148582600196
2.793743890518084
2.8084066471163247
2.8181818181818183
2.820136852394917
2.81622678396872
2.8054740957966766
2.787878787878788
2.764418377321604
2.735092864125122
2.701857282502444
2.665689149560117
2.6236559139784945
2.5747800586510263
2.5180840664711632
2.455522971652004
2.389051808406647
2.320625610948192
2.251221896383187
2.182795698924731
2.1192570869990224
2.059628543499511
2.010752688172043
1.9687194525904204
1.9266862170087975
1.8875855327468232
1.8514173998044965
1.818181818181818
1.7878787878787878
1.758553274682307
1.7302052785923754
1.7038123167155426
1.678396871945259
1.6529814271749756
1.6265884652981428
1.6041055718475072
1.5826001955034212
1.5591397849462365
1.5356793743890518
1.512218963831867
1.487781036168133
1.4633431085043989
1.439882697947214
1.4173998044965788
1.3949169110459434
1.3734115347018572
1.3519061583577712
1.3343108504398826
1.3206256109481915
1.3040078201368523
1.2864125122189638
1.2688172043010753
1.2512218963831867
1.2326490713587488
1.2140762463343109
1.1964809384164223
1.1798631476050832
1.163245356793744
1.147605083088954
1.1329423264907137
1.1221896383186705
1.1143695014662756
1.1036168132942326
1.093841642228739
1.0840664711632453
1.075268817204301
1.0664711632453567
1.056695992179863
1.0488758553274682
1.0420332355816226
1.035190615835777
1.0303030303030305
1.029325513196481
1.032258064516129
1.032258064516129
1.029325513196481
1.0263929618768328
1.021505376344086
1.0146627565982405
1.007820136852395
1.002932551319648
1.0048875855327468
1.0205278592375366
1.056695992179863
1.1192570869990224
1.1945259042033236
1.2873900293255132
1.412512218963832
1.560117302052786
1.7194525904203324
1.8797653958944285
2.0332355816226784
2.1739980449657867
2.2981427174975564
2.406647116324536
2.4995112414467253
2.5777126099706744
2.633431085043988
2.675464320625611
2.716520039100684
2.7517106549364616
2.780058651026393
2.803519061583578
2.8211143695014664
2.831867057673509
2.8367546432062563
2.8377321603128056
2.835777126099707
2.8289345063538613
2.817204301075269
2.798631476050831
2.774193548387097
2.744868035190616
2.70772238514174
2.6637341153470184
2.6129032258064515
2.5562072336265884
2.4946236559139785
2.429130009775171
2.360703812316716
2.290322580645161
2.2218963831867056
2.1622678396871944
2.10850439882698
2.0557184750733137
2.004887585532747
1.9589442815249267
1.916911045943304
1.878787878787879
1.8435972629521016
1.8113391984359728
1.7810361681329423
1.7517106549364614
1.7243401759530792
1.6979472140762464
1.6764418377321604
1.6559139784946235
1.6334310850439884
1.6109481915933528
1.5865102639296187
1.5620723362658846
1.5386119257087
1.5141739980449658
1.4887585532746823
1.4643206256109482
1.4408602150537635
1.4173998044965788
1.3988269794721409
1.3822091886608017
1.3636363636363635
1.3450635386119256
1.3255131964809383
1.305962854349951
1.2873900293255132
1.2697947214076246
1.252199413489736
1.2346041055718475
1.2179863147605083
1.2013685239491692
1.1867057673509287
1.1759530791788857
1.1681329423264908
1.1573802541544478
1.1466275659824048
1.1358748778103618
1.1251221896383188
1.115347018572825
1.10752688172043
1.1065493646138806
1.1094819159335287
1.1085043988269794
1.104594330400782
1.1036168132942326
1.1036168132942326
1.099706744868035
1.0928641251221896
1.0840664711632453
1.078201368523949
1.0821114369501466
1.1016617790811338
1.144672531769306
1.2179863147605083
1.3225806451612905
1.456500488758553
1.6138807429130009
1.7634408602150538
1.9071358748778104
2.065493646138808
2.219941348973607
2.3626588465298144
2.489736070381232
2.5992179863147604
2.69208211143695
2.771260997067449
2.8377321603128056
2.89345063538612
2.940371456500489
2.970674486803519
2.9902248289345064
3.0097751710654936
3.026392961876833
3.0391006842619745
3.04594330400782
3.046920821114369
3.042033235581622
3.03128054740958
3.01564027370479
2.995112414467253
2.967741935483871
2.9335288367546437
2.8944281524926687
2.8514173998044967
2.7996089931573804
2.739980449657869
2.673509286412512
2.60019550342131
2.5219941348973607
2.441837732160313
2.361681329423265
2.283479960899316
2.209188660801564
2.1407624633431084
2.086021505376344
2.0391006842619745
1.994134897360704
1.9521016617790807
1.9149560117302051
1.8807429130009776
1.8484848484848484
1.818181818181818
1.7888563049853372
1.7605083088954057
1.7311827956989247
1.699902248289345
1.6695992179863148
1.6441837732160314
1.6217008797653958
1.5962854349951123
1.5698924731182795
1.543499511241447
1.517106549364614
1.4916911045943304
1.466275659824047
1.4408602150537635
1.4164222873900294
1.3919843597262953
1.3685239491691104
1.3499511241446724
1.335288367546432
1.316715542521994
1.2971652003910068
1.2766373411534702
1.2570869990224829
