ppg
1.8406647116324533
1.822091886608016
1.8035190615835777
1.7898338220918866
1.7781036168132942
1.7653958944281525
1.7517106549364614
1.7380254154447703
1.7243401759530792
1.7116324535679377
1.6989247311827955
1.6871945259042034
1.6764418377321604
1.6666666666666667
1.6578690127077225
1.6520039100684265
1.6480938416422288
1.643206256109482
1.6363636363636365
1.6285434995112416
1.619745845552297
1.6109481915933528
1.6021505376344083
1.5933528836754642
1.5835777126099706
1.5747800586510263
1.565982404692082
1.5581622678396871
1.5532746823069403
1.552297165200391
1.5542521994134897
1.5620723362658846
1.581622678396872
1.6158357771260996
1.6666666666666667
1.7350928641251222
1.8201368523949168
1.9188660801564028
2.026392961876833
2.1378299120234603
2.233626588465298
2.3196480938416424
2.410557184750733
2.4995112414467253
2.5835777126099706
2.6608015640273703
2.730205278592375
2.791788856304985
2.84652981427175
2.89345063538612
2.932551319648094
2.963831867057673
2.989247311827957
3.002932551319648
3.0087976539589443
3.013685239491691
3.0146627565982405
3.0127077223851417
3.006842619745845
2.9960899315738025
2.981427174975562
2.959921798631476
2.932551319648094
2.8993157380254155
2.860215053763441
2.817204301075269
2.771260997067449
2.718475073313783
2.659824046920821
2.598240469208211
2.536656891495601
2.47702834799609
2.420332355816227
2.367546432062561
2.3196480938416424
2.2766373411534704
2.2385141739980448
2.206256109481916
2.1788856304985336
2.150537634408602
2.1221896383186705
2.0948191593352883
2.0684261974584555
2.0439882697947214
2.0205278592375366
1.9980449657869013
1.975562072336266
1.9550342130987293
1.9345063538611929
1.9149560117302051
1.8993157380254155
1.884652981427175
1.869012707722385
1.8523949169110456
1.8347996089931573
1.8172043010752688
1.7996089931573802
1.7820136852394917
1.7644183773216031
1.7468230694037146
1.7302052785923754
1.7145650048875856
1.7028347996089932
1.6920821114369502
1.6793743890518085
1.664711632453568
1.6500488758553276
1.635386119257087
1.6217008797653958
1.608993157380254
1.5962854349951123
1.58455522971652
1.573802541544477
1.5650048875855327
1.5562072336265884
1.5513196480938416
1.5483870967741935
1.543499511241447
1.5386119257087
1.5327468230694037
1.5268817204301075
1.521016617790811
1.5151515151515151
1.5083088954056696
1.5024437927663734
1.4965786901270772
1.490713587487781
1.4868035190615836
1.4838709677419355
1.479960899315738
1.4750733137829912
1.4731182795698925
1.47702834799609
1.490713587487781
1.5161290322580645
1.5571847507331378
1.6158357771260996
1.6911045943304008
1.780058651026393
1.878787878787879
1.9696969696969695
2.0557184750733137
2.150537634408602
2.247311827956989
2.3421309872922778
2.43108504398827
2.5141739980449658
2.590420332355816
2.658846529814272
2.719452590420332
2.7722385141739982
2.81622678396872
2.84652981427175
2.8670576735092865
2.886608015640274
2.903225806451613
2.913978494623656
2.918866080156403
2.919843597262952
2.9159335288367547
2.9071358748778104
2.89345063538612
2.874877810361681
2.8514173998044967
2.8211143695014664
2.787878787878788
2.750733137829912
2.705767350928641
2.654936461388074
2.5992179863147604
2.5405669599217986
2.4819159335288368
2.4242424242424243
2.36950146627566
2.3196480938416424
2.2737047898338223
2.232649071358749
2.198435972629521
2.16911045943304
2.139784946236559
2.1114369501466275
2.0840664711632453
2.058651026392962
2.034213098729228
2.0117302052785924
1.989247311827957
1.9687194525904204
1.948191593352884
1.927663734115347
1.90811339198436
1.7859237536656891
1.6109481915933528
1.5131964809384164
1.4535679374389052
1.414467253176931
1.3841642228739004
1.359726295210166
1.3372434017595307
1.3176930596285434
1.2981427174975562
1.2795698924731185
1.2619745845552297
1.249266862170088
1.2375366568914956
1.2238514173998043
1.2101661779081134
1.195503421309873
1.1808406647116323
1.1671554252199414
1.1544477028347997
1.142717497556207
1.1319648093841643
1.121212121212121
1.1124144672531768
1.1036168132942326
1.0977517106549364
1.0948191593352885
1.088954056695992
1.0821114369501466
1.0762463343108504
1.0713587487781036
1.0664711632453567
1.06158357771261
1.0576735092864125
1.053763440860215
1.050830889540567
1.0469208211143697
1.0469208211143697
1.0478983382209188
1.0469208211143697
1.0449657869012707
1.043010752688172
1.043010752688172
1.0469208211143697
1.0586510263929618
1.0821114369501466
1.1202346041055715
1.1759530791788857
1.249266862170088
1.3401759530791788
1.4301075268817205
1.521994134897361
1.6314760508308896
1.7487781036168133
1.868035190615836
1.9833822091886608
2.0928641251221896
2.1925708699902247
2.283479960899316
2.3655913978494625
2.4379276637341154
2.5024437927663734
2.549364613880743
2.58455522971652
2.619745845552297
2.650048875855328
2.674486803519061
2.69208211143695
2.7038123167155423
2.708699902248289
2.708699902248289
2.7038123167155423
2.6930596285435
2.677419354838709
2.6559139784946235
2.6295210166177907
2.5972629521016617
2.5591397849462365
2.5131964809384164
2.4604105571847508
2.4027370478983383
2.3411534701857284
2.27761485826002
2.21505376344086
2.155425219941349
2.0987292277614857
2.04594330400782
2.0019550342130987
1.962854349951124
1.9257086999022484
1.8905180840664717
1.8563049853372435
1.8240469208211143
1.7927663734115349
1.7634408602150538
1.7341153470185728
1.7067448680351909
1.6803519061583578
1.6549364613880744
1.6304985337243405
1.6099706744868034
1.5913978494623655
1.5708699902248289
1.5493646138807429
1.5268817204301075
1.5034213098729228
1.479960899315738
1.456500488758553
1.434017595307918
1.4115347018572826
1.3900293255131966
1.3685239491691104
1.3509286412512218
1.335288367546432
1.3176930596285434
1.2991202346041055
1.2805474095796676
1.2619745845552297
1.2443792766373412
1.2267839687194526
1.2101661779081134
1.1935483870967742
1.1788856304985338
1.164222873900293
1.1544477028347997
1.1466275659824048
1.1358748778103618
1.1241446725317692
1.1133919843597262
1.1026392961876832
1.0918866080156402
1.0821114369501466
1.0733137829912025
1.0654936461388074
1.0576735092864125
1.0488758553274682
1.040078201368524
1.0342130987292275
1.0303030303030305
1.0234604105571847
1.0146627565982405
1.0068426197458455
0.9980449657869012
0.9902248289345064
0.9843597262952102
0.981427174975562
0.9843597262952102
0.9951124144672532
1.0195503421309873
1.0527859237536656
1.0977517106549364
1.1612903225806452
1.2424242424242424
1.33822091886608
1.444770283479961
1.5571847507331378
1.6695992179863148
1.7781036168132942
1.8807429130009776
1.975562072336266
2.06158357771261
2.1378299120234603
2.1955034213098727
2.241446725317693
2.2873900293255134
2.3284457478005867
2.363636363636364
2.391006842619746
2.412512218963832
2.4271749755620724
2.4349951124144678
2.436950146627566
2.4330400782013686
2.423264907135875
2.407624633431085
2.386119257086999
2.358748778103617
2.3255131964809386
2.2844574780058653
2.236559139784946
2.182795698924731
2.124144672531769
2.0625610948191597
2.0
1.93841642228739
1.8797653958944285
1.825024437927664
1.7810361681329423
1.7429130009775171
1.7067448680351909
1.672531769305963
1.6412512218963833
1.6129032258064515
1.5865102639296187
1.5620723362658846
1.5386119257087
1.5161290322580645
1.4946236559139785
1.474095796676442
1.456500488758553
1.4418377321603129
1.4242424242424243
1.4066471163245358
1.3890518084066472
1.3714565004887584
1.3548387096774193
1.33822091886608
1.321603128054741
1.3049853372434017
1.2873900293255132
1.2697947214076246
1.2531769305962854
1.2404692082111437
1.2297165200391007
1.2150537634408602
1.198435972629521
1.181818181818182
1.166177908113392
1.1515151515151516
1.1368523949169111
1.1231671554252198
1.110459433040078
1.0977517106549364
1.0850439882697946
1.0772238514173995
1.0713587487781036
1.0625610948191593
1.0527859237536656
1.043010752688172
1.0342130987292275
1.0263929618768328
1.0195503421309873
1.0127077223851415
1.0068426197458455
1.0019550342130987
0.997067448680352
0.9912023460410556
0.989247311827957
0.989247311827957
0.9872922776148584
0.9824046920821116
0.9765395894428152
0.9696969696969696
0.9628543499511242
0.956989247311828
0.9550342130987292
0.9579667644183774
0.9696969696969696
0.9951124144672532
1.0303030303030305
1.0772238514173995
1.144672531769306
1.23069403714565
1.332355816226784
1.444770283479961
1.563049853372434
1.7253176930596286
1.9090909090909087
2.060606060606061
2.190615835777126
2.303030303030303
2.401759530791789
2.47702834799609
2.536656891495601
2.5972629521016617
2.6529814271749754
2.7008797653958942
2.740957966764418
2.773216031280548
2.798631476050831
2.81622678396872
2.8260019550342133
2.827956989247312
2.823069403714565
2.811339198435973
2.793743890518084
2.771260997067449
2.742913000977517
2.708699902248289
2.6666666666666665
2.616813294232649
2.5591397849462365
2.4946236559139785
2.4252199413489737
2.3528836754643208
2.280547409579668
2.210166177908113
2.1495601173020527
2.0957966764418376
2.0410557184750733
1.9902248289345064
1.943304007820137
1.900293255131965
1.86119257086999
1.825024437927664
1.7917888563049853
1.761485826001955
1.732160312805474
1.704789833822092
1.6823069403714566
1.6627565982404693
1.640273704789834
1.6177908113391983
1.5962854349951123
1.5747800586510263
1.5532746823069403
1.5317693059628543
1.5102639296187683
1.487781036168133
1.466275659824047
1.4457478005865103
1.4252199413489737
1.409579667644184
1.3958944281524928
1.3792766373411536
1.3616813294232648
1.343108504398827
1.324535679374389
1.305962854349951
1.2883675464320623
1.2697947214076246
1.2512218963831867
1.2346041055718475
1.2189638318670577
1.2072336265884651
1.1974584555229717
1.1857282502443791
1.1730205278592376
1.160312805474096
1.1466275659824048
1.133919843597263
1.1231671554252198
1.1133919843597262
1.104594330400782
1.0948191593352885
1.0840664711632453
1.078201368523949
1.0733137829912025
1.0654936461388074
1.056695992179863
1.0478983382209188
1.0391006842619743
1.0303030303030305
1.0205278592375366
1.0117302052785924
1.0039100684261977
0.9990224828934506
0.9980449657869012
1.0058651026392962
1.024437927663734
1.0557184750733135
1.1036168132942326
1.1730205278592376
1.262952101661779
1.3714565004887584
1.495601173020528
1.629521016617791
1.7673509286412512
1.905180840664712
2.0391006842619745
2.164222873900293
2.2658846529814274
2.3519061583577714
2.439882697947214
2.5249266862170088
2.6021505376344085
2.6715542521994133
2.732160312805474
2.782991202346041
2.8240469208211145
2.8563049853372435
2.881720430107527
2.900293255131965
2.911045943304008
2.9120234604105573
2.906158357771261
2.898338220918866
2.887585532746823
2.870967741935484
2.8484848484848486
2.8181818181818183
2.780058651026393
2.7331378299120237
2.677419354838709
2.6148582600195502
2.547409579667644
2.482893450635386
2.419354838709677
2.350928641251222
2.2825024437927666
2.2160312805474094
2.15347018572825
2.0957966764418376
2.0439882697947214
1.9960899315738023
1.9530791788856303
1.9130009775171064
1.8758553274682308
1.8406647116324533
1.8113391984359728
1.7859237536656891
1.7595307917888563
1.732160312805474
1.7057673509286413
1.6793743890518085
1.653958944281525
1.629521016617791
1.6050830889540566
1.581622678396872
1.5591397849462365
1.5376344086021505
1.520039100684262
1.5034213098729228
1.4838709677419355
1.4633431085043989
1.4428152492668622
1.4222873900293256
1.401759530791789
1.3812316715542523
1.3607038123167154
1.3401759530791788
1.3206256109481915
1.3020527859237536
1.284457478005865
1.2717497556207231
1.2609970674486803
1.2473118279569892
1.2336265884652982
1.219941348973607
1.2072336265884651
1.195503421309873
1.18475073313783
1.173998044965787
1.164222873900293
1.1544477028347997
1.1456500488758554
1.1407624633431086
1.1368523949169111
1.130987292277615
1.1231671554252198
1.115347018572825
1.1094819159335287
1.1036168132942326
1.096774193548387
1.088954056695992
1.0821114369501466
1.0742913000977516
1.067448680351906
1.0635386119257086
1.0654936461388074
1.0733137829912025
1.088954056695992
1.118279569892473
1.1652003910068427
1.2326490713587488
1.3206256109481915
1.4271749755620724
1.547409579667644
1.6774193548387095
1.8113391984359728
1.945259042033236
2.059628543499511
2.160312805474096
2.2658846529814274
2.36950146627566
2.466275659824047
2.555229716520039
2.636363636363636
2.70772238514174
2.76930596285435
2.8211143695014664
2.8641251221896384
2.898338220918866
2.9237536656891496
2.936461388074292
2.941348973607038
2.9442815249266863
2.943304007820137
2.9374389051808407
2.9266862170087977
2.9100684261974585
2.8856304985337244
2.855327468230694
2.817204301075269
2.7702834799608995
2.7145650048875853
2.6578690127077222
2.5992179863147604
2.5317693059628543
2.4604105571847508
2.389051808406647
2.320625610948192
2.2551319648093844
2.1955034213098727
2.1407624633431084
2.089931573802541
2.043010752688172
2.0
1.959921798631476
1.9266862170087975
1.8973607038123168
1.8670576735092863
1.836754643206256
1.8074291300097751
1.7790811339198436
1.7517106549364614
1.7243401759530792
1.696969696969697
1.6705767350928642
1.6451612903225807
1.6207233626588464
1.6011730205278591
1.5884652981427174
1.5747800586510263
1.5562072336265884
1.5347018572825024
1.512218963831867
1.4897360703812317
1.466275659824047
1.4437927663734116
1.4222873900293256
1.4007820136852396
1.380254154447703
1.359726295210166
1.3450635386119256
1.332355816226784
1.316715542521994
1.300097751710655
1.2834799608993157
1.2688172043010753
1.2551319648093842
1.2424242424242424
1.23069403714565
1.219941348973607
1.209188660801564
1.1994134897360704
1.1935483870967742
1.1906158357771262
1.18475073313783
1.176930596285435
1.1691104594330402
1.160312805474096
1.1505376344086022
1.141739980449658
1.1329423264907137
1.1251221896383188
1.1173020527859236
1.1094819159335287
1.1016617790811338
1.0977517106549364
1.096774193548387
1.0957966764418376
1.0987292277614855
1.110459433040078
1.1358748778103618
1.1788856304985338
1.2434017595307918
1.3294232649071358
1.4349951124144673
1.5562072336265884
1.6881720430107527
1.8074291300097751
1.9188660801564028
2.0410557184750733
2.1652003910068425
2.2844574780058653
2.396871945259042
2.4995112414467253
2.593352883675464
2.67644183773216
2.748778103616813
2.8103616813294234
2.8611925708699903
2.8944281524926687
2.9159335288367547
2.936461388074292
2.9530791788856305
2.963831867057673
2.9696969696969697
2.9696969696969697
2.964809384164223
2.9550342130987293
2.93841642228739
2.913000977517106
2.8797653958944283
2.8377321603128056
2.791788856304985
2.740957966764418
2.6803519061583576
2.611925708699902
2.5386119257087
2.463343108504399
2.388074291300098
2.315738025415445
2.2482893450635384
2.1867057673509285
2.131964809384164
2.0840664711632453
2.0449657869012707
2.0117302052785924
1.978494623655914
1.9472140762463344
1.916911045943304
1.8875855327468232
1.8592375366568916
1.833822091886608
1.8103616813294232
1.7878787878787878
1.7663734115347018
1.7448680351906158
1.7253176930596286
1.70772238514174
1.6911045943304008
1.672531769305963
1.6529814271749756
1.632453567937439
1.6129032258064515
1.5943304007820136
1.5757575757575757
1.5581622678396871
1.541544477028348
1.5249266862170088
1.5083088954056696
1.495601173020528
1.4848484848484849
1.4721407624633431
1.457478005865103
1.4428152492668622
1.4281524926686218
1.414467253176931
1.4007820136852396
1.3870967741935485
1.3743890518084063
1.3626588465298142
1.3528836754643203
1.3450635386119256
1.3401759530791788
1.3362658846529814
1.3294232649071358
1.3206256109481915
1.3118279569892473
1.3020527859237536
1.2932551319648091
1.284457478005865
1.2756598240469208
1.2658846529814272
1.2570869990224829
1.2482893450635386
1.2434017595307918
1.2394916911045943
1.2316715542521994
1.2238514173998043
1.2160312805474096
1.2082111436950147
1.2043010752688172
1.209188660801564
1.224828934506354
1.2561094819159335
1.3069403714565004
1.3773216031280548
1.4672531769305963
1.5581622678396871
1.6529814271749756
1.7673509286412512
1.8905180840664717
2.016617790811339
2.139784946236559
2.2580645161290325
2.3685239491691106
2.4701857282502444
2.560117302052786
2.6392961876832843
2.70772238514174
2.7565982404692084
2.791788856304985
2.8269794721407626
2.8563049853372435
2.8807429130009776
2.898338220918866
2.909090909090909
2.913000977517106
2.911045943304008
2.903225806451613
2.889540566959922
2.868035190615836
2.8406647116324537
2.807429130009776
2.768328445747801
2.720430107526881
2.664711632453568
2.6021505376344085
2.532746823069404
2.4604105571847508
2.386119257086999
2.312805474095797
2.242424242424242
2.176930596285435
2.1163245356793743
2.0664711632453567
2.024437927663734
1.9833822091886608
1.945259042033236
1.9100684261974583
1.8758553274682308
1.8435972629521016
1.8132942326490715
1.7839687194525904
1.7546432062561097
1.7272727272727273
1.7008797653958945
1.675464320625611
1.6549364613880744
1.6363636363636365
1.6158357771260996
1.5943304007820136
1.5728250244379276
1.5513196480938416
1.5288367546432062
1.5053763440860215
1.4819159335288368
1.4594330400782014
1.4379276637341154
1.41544477028348
1.3978494623655917
1.3812316715542523
1.3616813294232648
1.3401759530791788
1.3186705767350928
1.2981427174975562
1.278592375366569
1.260019550342131
1.2434017595307918
1.227761485826002
1.2121212121212122
1.1964809384164223
1.181818181818182
1.1720430107526882
1.164222873900293
1.1534701857282503
1.141739980449658
1.1300097751710656
1.1192570869990224
1.10752688172043
1.096774193548387
1.086021505376344
1.075268817204301
1.0664711632453567
1.0576735092864125
1.0527859237536656
1.0498533724340176
1.0439882697947214
1.0361681329423265
1.0263929618768328
1.0146627565982405
1.0048875855327468
0.9960899315738024
0.9921798631476052
0.997067448680352
1.0156402737047898
1.0518084066471165
1.1085043988269794
1.173998044965787
1.2512218963831867
1.3519061583577712
1.4701857282502444
1.598240469208211
1.7302052785923754
1.8621700879765395
1.994134897360704
2.121212121212121
2.2346041055718477
2.335288367546432
2.423264907135875
2.489736070381232
2.5405669599217986
2.590420332355816
2.636363636363636
2.674486803519061
2.704789833822092
2.727272727272727
2.742913000977517
2.750733137829912
2.7517106549364616
2.745845552297165
2.732160312805474
2.7116324535679373
2.6852394916911044
2.6529814271749754
2.6129032258064515
2.5650048875855327
2.509286412512219
2.4457478005865103
2.377321603128055
2.3059628543499517
2.2346041055718477
2.1652003910068425
2.1006842619745845
2.042033235581622
1.994134897360704
1.95405669599218
1.9159335288367547
1.8807429130009776
1.8484848484848484
1.818181818181818
1.7888563049853372
1.7605083088954057
1.7350928641251222
1.710654936461388
1.6881720430107527
1.6656891495601174
1.6480938416422288
1.6314760508308896
1.6129032258064515
1.5933528836754642
1.573802541544477
1.5532746823069403
1.5317693059628543
1.509286412512219
1.487781036168133
1.466275659824047
1.4457478005865103
1.4252199413489737
1.404692082111437
1.3890518084066472
1.3763440860215057
1.359726295210166
1.343108504398827
1.3264907135874875
1.310850439882698
1.295210166177908
1.2795698924731185
1.2649071358748778
1.2502443792766371
1.2355816226783969
1.2218963831867058
1.2130987292277615
1.2072336265884651
1.1994134897360704
1.1915933528836755
1.1827956989247312
1.1730205278592376
1.163245356793744
1.1544477028347997
1.1456500488758554
1.1378299120234605
1.1300097751710656
1.1221896383186705
1.1143695014662756
1.110459433040078
1.1085043988269794
1.1036168132942326
1.096774193548387
1.0899315738025417
1.0821114369501466
1.0742913000977516
1.067448680351906
1.0635386119257086
1.0654936461388074
1.0772238514173995
1.1016617790811338
1.1368523949169111
1.1867057673509287
1.260019550342131
1.3558162267839686
1.4721407624633431
1.603128054740958
1.7429130009775171
1.8856304985337244
2.027370478983382
2.163245356793744
2.291300097751711
2.410557184750733
2.5190615835777126
2.6041055718475072
2.6725317693059627
2.742913000977517
2.8084066471163247
2.8670576735092865
2.917888563049853
2.959921798631476
2.9931573802541545
3.0175953079178885
3.0332355816226784
3.042033235581622
3.043010752688172
3.034213098729228
3.0195503421309877
3.002932551319648
2.9804496578690127
2.9530791788856305
2.918866080156403
2.87683284457478
2.8260019550342133
2.7673509286412514
2.7008797653958942
2.6285434995112413
2.552297165200391
2.474095796676442
2.403714565004888
2.340175953079179
2.275659824046921
2.2130987292277613
2.155425219941349
2.103616813294233
2.056695992179863
2.013685239491691
1.975562072336266
1.9403714565004888
1.9071358748778104
1.87683284457478
1.8504398826979471
1.826001955034213
1.7996089931573802
1.772238514173998
1.7448680351906158
1.718475073313783
1.6930596285434996
1.667644183773216
1.643206256109482
1.6187683284457477
1.595307917888563
1.573802541544477
1.5513196480938416
1.5317693059628543
1.5141739980449658
1.4936461388074291
1.4721407624633431
1.4506353861192571
1.4301075268817205
1.4086021505376345
1.388074291300098
1.367546432062561
1.348973607038123
1.3304007820136852
1.3128054740957966
1.2991202346041055
1.289345063538612
1.2776148582600195
1.2668621700879763
1.2551319648093842
1.2443792766373412
1.2346041055718475
1.2258064516129032
1.217008797653959
1.209188660801564
1.2023460410557183
1.1964809384164223
1.1906158357771262
1.187683284457478
1.1867057673509287
1.1837732160312806
1.1798631476050832
1.1749755620723363
1.1681329423264908
1.160312805474096
1.1515151515151516
1.1436950146627567
1.1358748778103618
1.1300097751710656
1.1290322580645162
1.1358748778103618
1.152492668621701
1.1827956989247312
1.2316715542521994
1.3020527859237536
1.392961876832845
1.504398826979472
1.6314760508308896
1.76930596285435
1.9120234604105573
2.053763440860215
2.1915933528836757
2.321603128054741
2.426197458455523
2.5131964809384164
2.603128054740958
2.6901270772238512
2.7702834799608995
2.8426197458455524
2.905180840664712
2.9579667644183774
3.0009775171065494
3.035190615835777
3.06158357771261
3.081133919843597
3.0879765395894427
3.085043988269794
3.081133919843597
3.0733137829912023
3.060606060606061
3.042033235581622
3.016617790811339
2.983382209188661
2.9423264907135875
2.89247311827957
2.832844574780059
2.7653958944281527
2.69208211143695
2.622678396871945
2.5562072336265884
2.484848484848485
2.4144672531769307
2.346041055718475
2.2825024437927666
2.222873900293255
2.1681329423264906
2.117302052785924
2.070381231671554
2.027370478983382
1.986314760508309
1.951124144672532
1.920821114369501
1.889540566959922
1.858260019550342
1.828934506353861
1.8005865102639296
1.772238514173998
1.7438905180840665
1.7174975562072337
1.6911045943304008
1.6656891495601174
1.6412512218963833
1.6207233626588464
1.603128054740958
1.565982404692082
1.5190615835777126
1.4858260019550342
1.458455522971652
1.4349951124144673
1.4115347018572826
1.3890518084066472
1.367546432062561
1.3470185728250244
1.327468230694037
1.3079178885630498
1.2932551319648091
1.281524926686217
1.2668621700879763
1.252199413489736
1.2375366568914956
1.2228739002932552
1.2101661779081134
1.1974584555229717
1.1857282502443791
1.1759530791788857
1.1671554252199414
1.1583577712609971
1.1534701857282503
1.1505376344086022
1.1456500488758554
1.1397849462365592
1.1329423264907137
1.1241446725317692
1.1163245356793745
1.1085043988269794
1.099706744868035
1.0918866080156402
1.083088954056696
1.0742913000977516
1.0654936461388074
