ppg
1.7223851417399805
1.7057673509286413
1.6930596285434996
1.6803519061583578
1.6666666666666667
1.653958944281525
1.6412512218963833
1.6275659824046922
1.6138807429130009
1.6001955034213098
1.587487781036168
1.5747800586510263
1.563049853372434
1.5513196480938416
1.541544477028348
1.5327468230694037
1.52297165200391
1.5141739980449658
1.5053763440860215
1.498533724340176
1.4936461388074291
1.4868035190615836
1.478983382209189
1.4711632453567938
1.4623655913978495
1.4545454545454546
1.4486803519061584
1.4428152492668622
1.435972629521017
1.4271749755620724
1.41544477028348
1.401759530791789
1.3890518084066472
1.3763440860215057
1.3655913978494625
1.359726295210166
1.3587487781036167
1.367546432062561
1.3919843597262953
1.4271749755620724
1.478983382209189
1.5571847507331378
1.6608015640273706
1.7869012707722385
1.9305962854349952
2.0821114369501466
2.233626588465298
2.380254154447703
2.5161290322580645
2.6402737047898337
2.7497556207233624
2.8289345063538613
2.8856304985337244
2.9345063538611926
2.9716520039100685
2.995112414467253
3.002932551319648
2.997067448680352
2.975562072336266
2.940371456500489
2.89345063538612
2.835777126099707
2.7702834799608995
2.697947214076246
2.627565982404692
2.557184750733138
2.4789833822091887
2.3958944281524928
2.312805474095797
2.2297165200391005
2.1485826001955037
2.071358748778104
1.9980449657869013
1.9296187683284456
1.8641251221896384
1.801564027370479
1.750733137829912
1.7057673509286413
1.6598240469208212
1.616813294232649
1.5786901270772238
1.5464320625610948
1.517106549364614
1.4897360703812317
1.4633431085043989
1.4379276637341154
1.4115347018572826
1.3870967741935485
1.3685239491691104
1.35386119257087
1.33822091886608
1.321603128054741
1.3040078201368523
1.284457478005865
1.2658846529814272
1.2502443792766371
1.2375366568914956
1.2267839687194526
1.217008797653959
1.2082111436950147
1.1974584555229717
1.187683284457478
1.1788856304985338
1.166177908113392
1.1505376344086022
1.1358748778103618
1.1231671554252198
1.1114369501466277
1.1016617790811338
1.0918866080156402
1.0811339198435972
1.0694037145650048
1.056695992179863
1.0498533724340176
1.0469208211143697
1.04594330400782
1.0527859237536656
1.0733137829912025
1.110459433040078
1.1710654936461389
1.2561094819159335
1.3655913978494625
1.495601173020528
1.6392961876832846
1.7917888563049853
1.946236559139785
2.0762463343108504
2.189638318670577
2.30791788856305
2.419354838709677
2.517106549364614
2.5972629521016617
2.6559139784946235
2.6959921798631474
2.718475073313783
2.7233626588465296
2.7126099706744866
2.689149560117302
2.656891495601173
2.6177908113391983
2.56891495601173
2.5112414467253177
2.44672531769306
2.376344086021505
2.300097751710655
2.220918866080156
2.1407624633431084
2.06158357771261
1.9833822091886608
1.906158357771261
1.8318670576735088
1.7702834799608993
1.7174975562072337
1.6637341153470186
1.6129032258064515
1.5650048875855327
1.521016617790811
1.4809384164222874
1.4437927663734116
1.409579667644184
1.3782991202346042
1.3509286412512218
1.327468230694037
1.3088954056695992
1.2932551319648091
1.2756598240469208
1.2609970674486803
1.2482893450635386
1.2355816226783969
1.2238514173998043
1.2121212121212122
1.2003910068426198
1.1896383186705768
1.1798631476050832
1.1700879765395895
1.1612903225806452
1.1564027370478984
1.152492668621701
1.1466275659824048
1.1378299120234605
1.1270772238514175
1.1163245356793745
1.1055718475073313
1.093841642228739
1.0821114369501466
1.0694037145650048
1.056695992179863
1.0439882697947214
1.0361681329423265
1.029325513196481
1.018572825024438
1.0058651026392962
0.9941348973607038
0.9863147605083088
0.9843597262952102
0.9931573802541545
1.018572825024438
1.064516129032258
1.1329423264907137
1.2258064516129032
1.3411534701857282
1.455522971652004
1.5728250244379276
1.7116324535679377
1.8602150537634408
2.007820136852395
2.145650048875855
2.2688172043010755
2.375366568914956
2.462365591397849
2.527859237536657
2.573802541544477
2.601173020527859
2.6099706744868034
2.606060606060606
2.591397849462365
2.5640273704789838
2.5239491691104594
2.472140762463343
2.409579667644184
2.340175953079179
2.2668621700879767
2.188660801564027
2.10850439882698
2.0097751710654936
1.921798631476051
1.868035190615836
1.81524926686217
1.7546432062561097
1.694037145650049
1.6363636363636365
1.581622678396872
1.5298142717497556
1.4809384164222874
1.436950146627566
1.3978494623655917
1.364613880742913
1.3362658846529814
1.3157380254154447
1.2991202346041055
1.2795698924731185
1.2619745845552297
1.2473118279569892
1.2355816226783969
1.2258064516129032
1.217008797653959
1.2082111436950147
1.2003910068426198
1.1945259042033236
1.1896383186705768
1.18475073313783
1.1837732160312806
1.1837732160312806
1.181818181818182
1.1779081133919844
1.1730205278592376
1.1681329423264908
1.1622678396871946
1.1564027370478984
1.1515151515151516
1.1456500488758554
1.1397849462365592
1.1329423264907137
1.1290322580645162
1.126099706744868
1.1202346041055715
1.1114369501466277
1.1026392961876832
1.0948191593352885
1.0899315738025417
1.088954056695992
1.096774193548387
1.115347018572825
1.1485826001955035
1.2013685239491692
1.2746823069403714
1.35386119257087
1.4437927663734116
1.560117302052786
1.6920821114369502
1.8318670576735088
1.975562072336266
2.1163245356793743
2.2482893450635384
2.366568914956012
2.469208211143695
2.5542521994134897
2.621700879765396
2.6637341153470184
2.687194525904203
2.701857282502444
2.705767350928641
2.6989247311827955
2.678396871945259
2.644183773216031
2.60019550342131
2.547409579667644
2.4887585532746823
2.4252199413489737
2.358748778103617
2.29227761485826
2.2355816226783967
2.182795698924731
2.126099706744868
2.071358748778104
2.018572825024438
1.9687194525904204
1.9237536656891496
1.8836754643206255
1.847507331378299
1.8162267839687196
1.7888563049853372
1.7624633431085044
1.739980449657869
1.7194525904203324
1.6989247311827955
1.6803519061583578
1.6637341153470186
1.6490713587487782
1.6363636363636365
1.6236559139784943
1.6109481915933528
1.598240469208211
1.585532746823069
1.5728250244379276
1.563049853372434
1.5532746823069403
1.542521994134897
1.5317693059628543
1.521994134897361
1.5131964809384164
1.504398826979472
1.495601173020528
1.487781036168133
1.478983382209189
1.4711632453567938
1.4623655913978495
1.4545454545454546
1.4486803519061584
1.4408602150537635
1.4301075268817205
1.4173998044965788
1.4037145650048877
1.391006842619746
1.3782991202346042
1.3655913978494625
1.3528836754643203
1.3411534701857282
1.3333333333333333
1.3333333333333333
1.343108504398827
1.364613880742913
1.4301075268817205
1.5073313782991202
1.576735092864125
1.6774193548387095
1.801564027370479
1.9413489736070384
2.089931573802541
2.2375366568914954
2.3792766373411536
2.5102639296187683
2.6295210166177907
2.718475073313783
2.78494623655914
2.8475073313782997
2.898338220918866
2.9345063538611926
2.9550342130987293
2.9589442815249267
2.9472140762463344
2.920821114369501
2.881720430107527
2.832844574780059
2.7751710654936463
2.7145650048875853
2.6510263929618767
2.5777126099706744
2.4975562072336266
2.4144672531769307
2.3313782991202348
2.249266862170088
2.1681329423264906
2.089931573802541
2.013685239491691
1.9403714565004888
1.871945259042033
1.8084066471163245
1.7546432062561097
1.7096774193548387
1.6637341153470186
1.619745845552297
1.5777126099706744
1.5386119257087
1.504398826979472
1.4750733137829912
1.447702834799609
1.423264907135875
1.4007820136852396
1.3792766373411536
1.3636363636363635
1.3509286412512218
1.3362658846529814
1.321603128054741
1.305962854349951
1.289345063538612
1.2746823069403714
1.2619745845552297
1.2502443792766371
1.238514173998045
1.227761485826002
1.217008797653959
1.2043010752688172
1.1945259042033236
1.18475073313783
1.1720430107526882
1.1573802541544478
1.142717497556207
1.1290322580645162
1.118279569892473
1.110459433040078
1.1036168132942326
1.0957966764418376
1.0869990224828934
1.0762463343108504
1.0684261974584557
1.064516129032258
1.06158357771261
1.0635386119257086
1.0762463343108504
1.1055718475073313
1.1564027370478984
1.2316715542521994
1.3304007820136852
1.4506353861192571
1.587487781036168
1.7350928641251222
1.8875855327468232
2.0205278592375366
2.1378299120234603
2.260997067448681
2.378299120234604
2.4819159335288368
2.565982404692082
2.63049853372434
2.677419354838709
2.70772238514174
2.720430107526881
2.718475073313783
2.7038123167155423
2.679374389051808
2.644183773216031
2.5972629521016617
2.5405669599217986
2.47702834799609
2.407624633431085
2.334310850439883
2.259042033235582
2.1818181818181817
2.103616813294233
2.024437927663734
1.946236559139785
1.8729227761485825
1.8113391984359728
1.7556207233626588
1.696969696969697
1.6412512218963833
1.5894428152492668
1.543499511241447
1.5034213098729228
1.466275659824047
1.4330400782013686
1.4056695992179864
1.3812316715542523
1.3587487781036167
1.3411534701857282
1.3255131964809383
1.3079178885630498
1.2883675464320623
1.2697947214076246
1.2502443792766371
1.2336265884652982
1.2228739002932552
1.2140762463343109
1.2043010752688172
1.1945259042033236
1.18475073313783
1.1749755620723363
1.1681329423264908
1.163245356793744
1.1573802541544478
1.1495601173020529
1.141739980449658
1.133919843597263
1.1241446725317692
1.1133919843597262
1.1016617790811338
1.0899315738025417
1.0762463343108504
1.0625610948191593
1.1036168132942326
1.0909090909090908
1.0791788856304985
1.0684261974584557
1.0606060606060606
1.0547409579667644
1.0449657869012707
1.0332355816226784
1.0205278592375366
1.0087976539589445
0.9990224828934506
0.9941348973607038
0.997067448680352
1.0146627565982405
1.0518084066471165
1.1124144672531768
1.1827956989247312
1.2668621700879763
1.3782991202346042
1.5102639296187683
1.6578690127077225
1.8132942326490715
1.9687194525904204
2.118279569892473
2.2580645161290325
2.380254154447703
2.4819159335288368
2.5610948191593352
2.618768328445748
2.652003910068426
2.668621700879765
2.677419354838709
2.6725317693059627
2.653958944281525
2.624633431085044
2.58455522971652
2.533724340175953
2.4731182795698925
2.404692082111437
2.3313782991202348
2.254154447702835
2.182795698924731
2.114369501466276
2.0391006842619745
1.962854349951124
1.8885630498533723
1.8172043010752688
1.7487781036168133
1.6852394916911049
1.6285434995112416
1.5786901270772238
1.5376344086021505
1.5034213098729228
1.4750733137829912
1.455522971652004
1.4379276637341154
1.4164222873900294
1.3949169110459434
1.3734115347018572
1.3548387096774193
1.3391984359726294
1.324535679374389
1.310850439882698
1.2971652003910068
1.2834799608993157
1.2697947214076246
1.2590420332355816
1.2512218963831867
1.2434017595307918
1.2355816226783969
1.2297165200391007
1.2258064516129032
1.2238514173998043
1.2209188660801564
1.2160312805474096
1.2101661779081134
1.2023460410557183
1.195503421309873
1.1886608015640274
1.18475073313783
1.1827956989247312
1.176930596285435
1.1710654936461389
1.1652003910068427
1.1573802541544478
1.1485826001955035
1.1407624633431086
1.1358748778103618
1.1348973607038124
1.1407624633431086
1.1612903225806452
1.1915933528836755
1.2355816226783969
1.3040078201368523
1.3958944281524928
1.509286412512219
1.640273704789834
1.7849462365591398
1.9364613880742916
2.089931573802541
2.241446725317693
2.3841642228739004
2.512218963831867
2.624633431085044
2.7067448680351904
2.7653958944281527
2.817204301075269
2.855327468230694
2.87683284457478
2.8836754643206257
2.875855327468231
2.854349951124145
2.820136852394917
2.7751710654936463
2.7233626588465296
2.664711632453568
2.6070381231671558
2.547409579667644
2.479960899315738
2.410557184750733
2.3421309872922778
2.2766373411534704
2.2140762463343107
2.15347018572825
2.0948191593352883
2.0391006842619745
1.9872922776148585
1.9413489736070384
1.8973607038123168
1.86119257086999
1.83088954056696
1.8005865102639296
1.7741935483870968
1.750733137829912
1.7282502443792769
1.7057673509286413
1.683284457478006
1.6608015640273706
1.6392961876832846
1.619745845552297
1.6001955034213098
1.5835777126099706
1.5679374389051808
1.5513196480938416
1.5366568914956011
1.521994134897361
1.509286412512219
1.498533724340176
1.4887585532746823
1.478983382209189
1.4701857282502444
1.458455522971652
1.444770283479961
1.43108504398827
1.4213098729227762
1.4134897360703813
1.4037145650048877
1.3919843597262953
1.388074291300098
1.3870967741935485
1.3792766373411536
1.3685239491691104
1.3558162267839686
1.3421309872922775
1.3284457478005864
1.3147605083088951
1.3049853372434017
1.3010752688172045
1.303030303030303
1.316715542521994
1.348973607038123
1.4037145650048877
1.4858260019550342
1.5933528836754642
1.7233626588465298
1.871945259042033
2.0332355816226784
2.196480938416422
2.334310850439883
2.455522971652004
2.581622678396872
2.7008797653958942
2.807429130009776
2.8993157380254155
2.973607038123167
3.0303030303030303
3.067448680351906
3.086021505376344
3.086021505376344
3.067448680351906
3.032258064516129
2.9872922776148583
2.9345063538611926
2.8699902248289346
2.7976539589442817
2.720430107526881
2.638318670576735
2.552297165200391
2.462365591397849
2.3714565004887587
2.281524926686217
2.1925708699902247
2.1055718475073317
2.0127077223851417
1.93841642228739
1.884652981427175
1.8240469208211143
1.7653958944281525
1.710654936461388
1.6608015640273706
1.6148582600195502
1.573802541544477
1.5395894428152492
1.5083088954056696
1.478983382209189
1.4496578690127078
1.426197458455523
1.4056695992179864
1.3851417399804498
1.3636363636363635
1.3411534701857282
1.3196480938416422
1.2991202346041055
1.2795698924731185
1.2619745845552297
1.2473118279569892
1.2346041055718475
1.2228739002932552
1.2140762463343109
1.209188660801564
1.2013685239491692
1.1915933528836755
1.1808406647116323
1.1700879765395895
1.1583577712609971
1.1466275659824048
1.133919843597263
1.1202346041055715
1.1065493646138806
1.093841642228739
1.0821114369501466
1.075268817204301
1.0694037145650048
1.0596285434995112
1.0498533724340176
1.043010752688172
1.0391006842619743
1.043010752688172
1.0606060606060606
1.096774193548387
1.1534701857282503
1.2355816226783969
1.343108504398827
1.4535679374389052
1.5698924731182795
1.7126099706744868
1.870967741935484
2.032258064516129
2.188660801564027
2.334310850439883
2.466275659824047
2.5806451612903225
2.675464320625611
2.750733137829912
2.807429130009776
2.843597262952102
2.855327468230694
2.850439882697948
2.834799608993157
2.807429130009776
2.766373411534702
2.7126099706744866
2.650048875855328
2.581622678396872
2.505376344086021
2.4242424242424243
2.3382209188660803
2.2521994134897363
2.175953079178885
2.086021505376344
2.0009775171065494
1.9403714565004888
1.8758553274682308
1.8103616813294232
1.7487781036168133
1.6920821114369502
1.6373411534701858
1.5865102639296187
1.541544477028348
1.499511241446725
1.4604105571847508
1.4291300097751711
1.404692082111437
1.3812316715542523
1.3577712609970674
1.327468230694037
1.3010752688172045
1.2825024437927663
1.2649071358748778
1.2502443792766371
1.238514173998045
1.227761485826002
1.2179863147605083
1.2121212121212122
1.2082111436950147
1.2013685239491692
1.1915933528836755
1.1798631476050832
1.1671554252199414
1.1544477028347997
1.1436950146627567
1.133919843597263
1.1241446725317692
1.1143695014662756
1.1055718475073313
1.096774193548387
1.0899315738025417
1.086021505376344
1.0801564027370478
1.0694037145650048
1.0576735092864125
1.0439882697947214
1.0303030303030305
1.018572825024438
1.010752688172043
1.0058651026392962
1.007820136852395
1.0332355816226784
1.0664711632453567
1.1016617790811338
1.1652003910068427
1.2942326490713587
1.4281524926686218
1.5366568914956011
1.6744868035190617
1.8269794721407624
1.9833822091886608
2.136852394916911
2.281524926686217
2.4086021505376345
2.517106549364614
2.5962854349951123
2.652003910068426
2.6989247311827955
2.732160312805474
2.748778103616813
2.747800586510264
2.730205278592375
2.6989247311827955
2.653958944281525
2.5777126099706744
2.501466275659824
2.443792766373412
2.3812316715542523
2.2932551319648096
2.1847507331378297
2.1094819159335287
2.03128054740958
1.9345063538611929
1.8514173998044965
1.793743890518084
1.737047898338221
1.667644183773216
1.619745845552297
1.576735092864125
1.5327468230694037
1.4975562072336266
1.4711632453567938
1.4418377321603129
1.4066471163245358
1.3773216031280548
1.3509286412512218
1.3264907135874875
1.3049853372434017
1.284457478005865
1.267839687194526
1.2541544477028348
1.24633431085044
1.241446725317693
1.2355816226783969
1.2287390029325511
1.2228739002932552
1.2189638318670577
1.2150537634408602
1.2101661779081134
1.2072336265884651
1.2043010752688172
1.2013685239491692
1.2003910068426198
1.2023460410557183
1.2043010752688172
1.2023460410557183
1.1994134897360704
1.195503421309873
1.1896383186705768
1.1837732160312806
1.1779081133919844
1.1720430107526882
1.164222873900293
1.1564027370478984
1.1505376344086022
1.147605083088954
1.1505376344086022
1.1612903225806452
1.18475073313783
1.224828934506354
1.284457478005865
1.3695014662756595
1.478005865102639
1.606060606060606
1.7497556207233629
1.903225806451613
2.0576735092864125
2.189638318670577
2.286412512218964
2.376344086021505
2.474095796676442
2.5669599217986314
2.6451612903225805
2.705767350928641
2.7468230694037143
2.7722385141739982
2.782991202346041
2.7781036168132944
2.7595307917888565
2.730205278592375
2.6911045943304006
2.6480938416422286
2.601173020527859
2.544477028347996
2.482893450635386
2.4173998044965788
2.3499511241446727
2.283479960899316
2.219941348973607
2.1593352883675463
2.1006842619745845
2.046920821114369
1.9980449657869013
1.956989247311828
1.9227761485826005
1.8905180840664717
1.858260019550342
1.8269794721407624
1.7996089931573802
1.7761485826001957
1.7546432062561097
1.7350928641251222
1.7165200391006843
1.6979472140762464
1.6803519061583578
1.6637341153470186
1.651026392961877
1.6383186705767352
1.6226783968719452
1.6080156402737047
1.5943304007820136
1.5806451612903225
1.5669599217986314
1.5532746823069403
1.542521994134897
1.533724340175953
1.5249266862170088
1.5151515151515151
1.5083088954056696
1.5024437927663734
1.495601173020528
1.4868035190615836
1.4760508308895406
1.466275659824047
1.457478005865103
1.4486803519061584
1.4389051808406648
1.4271749755620724
1.4134897360703813
1.3988269794721409
1.3841642228739004
1.3734115347018572
1.364613880742913
1.3558162267839686
1.3509286412512218
1.3499511241446724
1.3587487781036167
1.3822091886608017
1.426197458455523
1.4946236559139785
1.5865102639296187
1.7028347996089932
1.8377321603128052
1.963831867057673
2.0869990224828934
2.2297165200391005
2.377321603128055
2.5190615835777126
2.6480938416422286
2.7624633431085046
2.859237536656892
2.93841642228739
2.9980449657869013
3.0361681329423265
3.0557184750733137
3.0576735092864125
3.043010752688172
3.01564027370479
2.975562072336266
2.924731182795699
2.8641251221896384
2.7976539589442817
2.7253176930596283
2.64613880742913
2.563049853372434
2.47702834799609
2.388074291300098
2.2991202346041058
2.2218963831867056
2.150537634408602
2.0762463343108504
2.004887585532747
1.935483870967742
1.869012707722385
1.8084066471163245
1.750733137829912
1.6989247311827955
1.6529814271749756
1.6099706744868034
1.56891495601173
1.530791788856305
1.500488758553275
1.47702834799609
1.4516129032258065
1.4252199413489737
1.3998044965786902
1.3773216031280548
1.3558162267839686
1.3333333333333333
1.313782991202346
1.2942326490713587
1.2756598240469208
1.2590420332355816
1.24633431085044
1.2365591397849462
1.2258064516129032
1.2150537634408602
1.2043010752688172
1.1935483870967742
1.1808406647116323
1.1671554252199414
1.152492668621701
1.1378299120234605
1.1231671554252198
1.10752688172043
1.0928641251221896
1.083088954056696
1.0762463343108504
1.0664711632453567
1.0547409579667644
1.0410557184750733
1.0263929618768328
1.0127077223851415
1.0009775171065494
0.9960899315738024
1.002932551319648
1.0254154447702837
1.067448680351906
1.1221896383186705
1.1925708699902249
1.2903225806451613
1.4115347018572826
1.5513196480938416
1.7038123167155426
1.8631476050830889
2.022482893450636
2.1739980449657867
2.313782991202346
2.4389051808406648
2.5454545454545454
2.6295210166177907
2.686217008797654
2.721407624633431
2.745845552297165
2.758553274682307
2.7595307917888565
2.7468230694037143
2.721407624633431
2.684261974584555
2.635386119257087
2.576735092864125
2.509286412512219
2.4349951124144678
2.3655913978494625
2.297165200391007
2.219941348973607
2.1407624633431084
2.060606060606061
1.981427174975562
1.903225806451613
1.827956989247312
1.7565982404692082
1.6911045943304008
1.6314760508308896
1.5786901270772238
1.533724340175953
1.498533724340176
1.4701857282502444
1.4389051808406648
1.4086021505376345
1.3822091886608017
1.3577712609970674
1.3343108504398826
1.3128054740957966
1.29227761485826
1.270772238514174
1.2512218963831867
1.2346041055718475
1.2228739002932552
1.2150537634408602
1.206256109481916
1.1964809384164223
1.18475073313783
1.1730205278592376
1.1622678396871946
1.1495601173020529
1.1378299120234605
1.1270772238514175
1.1173020527859236
1.1085043988269794
1.1016617790811338
1.096774193548387
1.0909090909090908
1.0840664711632453
1.0742913000977516
1.0635386119257086
1.050830889540567
1.0381231671554252
1.0254154447702837
1.0127077223851415
1.0019550342130987
0.9931573802541545
0.9863147605083088
0.9853372434017597
0.9902248289345064
1.0019550342130987
1.0283479960899315
1.0742913000977516
1.141739980449658
1.2326490713587488
1.3440860215053765
1.4711632453567938
1.6099706744868034
1.7575757575757576
1.906158357771261
2.0332355816226784
2.144672531769306
2.260019550342131
2.366568914956012
2.4604105571847508
2.535679374389052
2.591397849462365
2.6285434995112413
2.6480938416422286
2.650048875855328
2.636363636363636
2.6099706744868034
2.567937438905181
2.520039100684262
2.466275659824047
2.401759530791789
2.329423264907136
2.2521994134897363
2.1652003910068425
2.075268817204301
1.9931573802541545
1.9159335288367547
1.8416422287390029
1.772238514173998
1.70772238514174
1.6549364613880744
1.6080156402737047
1.5581622678396871
1.5102639296187683
1.4643206256109482
1.423264907135875
1.388074291300098
1.356793743890518
1.3294232649071358
1.3049853372434017
1.2825024437927663
1.2609970674486803
1.2443792766373412
1.2346041055718475
1.2287390029325511
1.2209188660801564
1.2130987292277615
1.2052785923753666
1.1964809384164223
1.1886608015640274
1.1798631476050832
1.173998044965787
1.1681329423264908
1.163245356793744
1.1583577712609971
1.1564027370478984
1.1573802541544478
1.1583577712609971
1.1583577712609971
1.1583577712609971
1.1583577712609971
1.1573802541544478
1.1544477028347997
1.1515151515151516
1.1466275659824048
1.1397849462365592
1.1319648093841643
1.1241446725317692
1.1192570869990224
1.1163245356793745
1.1143695014662756
1.1143695014662756
1.118279569892473
1.1319648093841643
1.1612903225806452
1.209188660801564
1.2756598240469208
1.3626588465298142
1.4682306940371457
1.5884652981427174
1.7008797653958945
1.8113391984359728
1.93841642228739
2.0684261974584555
2.193548387096774
2.30791788856305
2.4086021505376345
2.493646138807429
2.5620723362658846
2.6129032258064515
2.6480938416422286
2.6695992179863146
2.675464320625611
2.6666666666666665
2.644183773216031
2.610948191593353
2.5669599217986314
2.515151515151515
2.458455522971652
2.396871945259042
2.334310850439883
2.270772238514174
2.207233626588465
2.146627565982405
