ppg
1.3655913978494625
1.3470185728250244
1.3313782991202343
1.3196480938416422
1.3128054740957966
1.310850439882698
1.3128054740957966
1.3186705767350928
1.3294232649071358
1.343108504398827
1.356793743890518
1.370478983382209
1.3841642228739004
1.3958944281524928
1.404692082111437
1.4134897360703813
1.4291300097751711
1.457478005865103
1.5083088954056696
1.5894428152492668
1.689149560117302
1.8172043010752688
1.9843597262952104
2.1730205278592374
2.340175953079179
2.487781036168133
2.638318670576735
2.7722385141739982
2.878787878787879
2.9550342130987293
3.0
3.016617790811339
3.010752688172043
2.9872922776148583
2.948191593352884
2.898338220918866
2.8406647116324537
2.7810361681329425
2.718475073313783
2.6471163245356792
2.5718475073313782
2.493646138807429
2.4144672531769307
2.334310850439883
2.254154447702835
2.1739980449657867
2.0948191593352883
2.016617790811339
1.9393939393939397
1.873900293255132
1.8162267839687196
1.7546432062561097
1.6920821114369502
1.6304985337243405
1.5708699902248289
1.5141739980449658
1.4604105571847508
1.409579667644184
1.3626588465298142
1.3206256109481915
1.284457478005865
1.2541544477028348
1.2346041055718475
1.2209188660801564
1.209188660801564
1.2003910068426198
1.1964809384164223
1.1964809384164223
1.2003910068426198
1.2072336265884651
1.2160312805474096
1.2258064516129032
1.2346041055718475
1.241446725317693
1.24633431085044
1.2502443792766371
1.2531769305962854
1.2639296187683284
1.2903225806451613
1.3421309872922775
1.426197458455523
1.5464320625610948
1.699902248289345
1.878787878787879
2.069403714565005
2.2580645161290325
2.4134897360703813
2.5376344086021505
2.6529814271749754
2.7468230694037143
2.8132942326490715
2.8533724340175954
2.868035190615836
2.860215053763441
2.833822091886608
2.791788856304985
2.73802541544477
2.675464320625611
2.6050830889540566
2.5376344086021505
2.4711632453567938
2.396871945259042
2.317693059628544
2.2355816226783967
2.1524926686217007
2.069403714565005
1.9872922776148585
1.906158357771261
1.8269794721407624
1.750733137829912
1.6764418377321604
1.6148582600195502
1.560117302052786
1.500488758553275
1.439882697947214
1.380254154447703
1.3235581622678396
1.2697947214076246
1.219941348973607
1.1759530791788857
1.1358748778103618
1.1016617790811338
1.0733137829912025
1.0518084066471165
1.0410557184750733
1.0371456500488758
1.0361681329423265
1.0381231671554252
1.0439882697947214
1.0527859237536656
1.064516129032258
1.0772238514173995
1.0899315738025417
1.1006842619745845
1.1085043988269794
1.1133919843597262
1.1192570869990224
1.1280547409579669
1.1436950146627567
1.1749755620723363
1.23069403714565
1.316715542521994
1.4379276637341154
1.5913978494623655
1.76930596285435
1.959921798631476
2.150537634408602
2.329423264907136
2.486803519061584
2.6021505376344085
2.6832844574780057
2.747800586510264
2.788856304985337
2.806451612903226
2.801564027370479
2.777126099706745
2.7390029325513194
2.689149560117302
2.63049853372434
2.5640273704789838
2.4916911045943304
2.423264907135875
2.355816226783969
2.280547409579668
2.2023460410557183
2.1221896383186705
2.042033235581622
1.9618768328445748
1.881720430107527
1.8035190615835777
1.7272727272727273
1.6529814271749756
1.5806451612903225
1.512218963831867
1.456500488758553
1.4086021505376345
1.356793743890518
1.305962854349951
1.2570869990224829
1.2121212121212122
1.1710654936461389
1.1348973607038124
1.104594330400782
1.0791788856304985
1.0606060606060606
1.0478983382209188
1.043010752688172
1.0439882697947214
1.0469208211143697
1.0527859237536656
1.0625610948191593
1.075268817204301
1.0899315738025417
1.104594330400782
1.1163245356793745
1.126099706744868
1.133919843597263
1.142717497556207
1.1573802541544478
1.1788856304985338
1.2150537634408602
1.278592375366569
1.3763440860215057
1.509286412512219
1.675464320625611
1.865102639296188
2.064516129032258
2.259042033235582
2.436950146627566
2.5884652981427174
2.7096774193548385
2.789833822091887
2.8377321603128056
2.8670576735092865
2.875855327468231
2.865102639296188
2.8367546432062563
2.7947214076246336
2.742913000977517
2.684261974584555
2.619745845552297
2.550342130987292
2.4760508308895406
2.3978494623655915
2.326490713587488
2.257086999022483
2.179863147605083
2.1006842619745845
2.0195503421309877
1.9393939393939397
1.8621700879765395
1.7869012707722385
1.7135874877810362
1.643206256109482
1.5747800586510263
1.509286412512219
1.4545454545454546
1.4076246334310851
1.3587487781036167
1.310850439882698
1.2668621700879763
1.2267839687194526
1.1915933528836755
1.1622678396871946
1.13880742913001
1.121212121212121
1.1094819159335287
1.104594330400782
1.1055718475073313
1.1124144672531768
1.1221896383186705
1.133919843597263
1.1485826001955035
1.164222873900293
1.1788856304985338
1.1915933528836755
1.2023460410557183
1.2130987292277615
1.227761485826002
1.2512218963831867
1.2932551319648091
1.348973607038123
1.426197458455523
1.544477028347996
1.7008797653958945
1.8866080156402736
2.0879765395894427
2.29227761485826
2.4858260019550342
2.656891495601173
2.7976539589442817
2.905180840664712
2.979472140762464
3.0234604105571847
3.0391006842619745
3.0332355816226784
2.997067448680352
2.93841642228739
2.881720430107527
2.822091886608016
2.757575757575758
2.687194525904203
2.613880742913001
2.536656891495601
2.4574780058651027
2.377321603128055
2.304007820136853
2.2346041055718477
2.1593352883675463
2.081133919843597
2.002932551319648
1.9266862170087975
1.8514173998044965
1.7790811339198436
1.7086999022482894
1.640273704789834
1.5757575757575757
1.5151515151515151
1.458455522971652
1.412512218963832
1.3743890518084063
1.3343108504398826
1.2961876832844574
1.2619745845552297
1.2316715542521994
1.206256109481916
1.1857282502443791
1.1710654936461389
1.1622678396871946
1.1583577712609971
1.1583577712609971
1.164222873900293
1.1749755620723363
1.187683284457478
1.2013685239491692
1.2140762463343109
1.224828934506354
1.2326490713587488
1.2404692082111437
1.252199413489736
1.2766373411534702
1.324535679374389
1.4037145650048877
1.4965786901270772
1.6109481915933528
1.7683284457478006
1.9550342130987293
2.155425219941349
2.3528836754643208
2.5347018572825024
2.6901270772238512
2.8132942326490715
2.902248289345064
2.9589442815249267
2.986314760508309
2.988269794721408
2.970674486803519
2.93841642228739
2.89345063538612
2.8367546432062563
2.7702834799608995
2.696969696969697
2.6177908113391983
2.532746823069404
2.444770283479961
2.3548387096774195
2.2639296187683287
2.1739980449657867
2.093841642228739
2.0205278592375366
1.9423264907135875
1.8621700879765395
1.7820136852394917
1.7028347996089932
1.6256109481915937
1.5503421309872922
1.47702834799609
1.4076246334310851
1.3421309872922775
1.281524926686217
1.2267839687194526
1.18475073313783
1.1505376344086022
1.1143695014662756
1.0801564027370478
1.0498533724340176
1.0254154447702837
1.0058651026392962
0.9931573802541545
0.9863147605083088
0.9853372434017597
0.9902248289345064
0.9980449657869012
1.0087976539589445
1.021505376344086
1.0332355816226784
1.043010752688172
1.050830889540567
1.056695992179863
1.0635386119257086
1.0742913000977516
1.0957966764418376
1.1378299120234605
1.209188660801564
1.3147605083088951
1.455522971652004
1.5992179863147604
1.750733137829912
1.9315738025415443
2.120234604105572
2.300097751710655
2.458455522971652
2.587487781036168
2.684261974584555
2.748778103616813
2.7839687194525906
2.793743890518084
2.782013685239492
2.755620723362659
2.717497556207233
2.6666666666666665
2.606060606060606
2.536656891495601
2.4613880742913
2.3822091886608017
2.300097751710655
2.2160312805474094
2.129032258064516
2.042033235581622
1.9560117302052784
1.870967741935484
1.7976539589442817
1.7311827956989247
1.6588465298142718
1.5865102639296187
1.5151515151515151
1.4457478005865103
1.380254154447703
1.3176930596285434
1.2580645161290325
1.2023460410557183
1.1505376344086022
1.1036168132942326
1.067448680351906
1.0391006842619743
1.010752688172043
0.9853372434017597
0.9648093841642228
0.9501466275659824
0.9413489736070382
0.93841642228739
0.9393939393939394
0.9442815249266864
0.95405669599218
0.9667644183773216
0.9804496578690128
0.9960899315738024
1.010752688172043
1.0224828934506354
1.0312805474095796
1.040078201368524
1.053763440860215
1.0801564027370478
1.1290322580645162
1.2072336265884651
1.3206256109481915
1.469208211143695
1.64613880742913
1.8142717497556209
1.978494623655914
2.160312805474096
2.337243401759531
2.495601173020528
2.625610948191593
2.724340175953079
2.790811339198436
2.827956989247312
2.8377321603128056
2.8240469208211145
2.792766373411535
2.747800586510264
2.696969696969697
2.641251221896383
2.576735092864125
2.504398826979472
2.4271749755620724
2.347018572825025
2.2639296187683287
2.1788856304985336
2.093841642228739
2.0087976539589443
1.9237536656891496
1.839687194525904
1.7683284457478006
1.7028347996089932
1.632453567937439
1.5610948191593352
1.4897360703812317
1.4203323558162269
1.3558162267839686
1.295210166177908
1.238514173998045
1.187683284457478
1.141739980449658
1.1006842619745845
1.064516129032258
1.0391006842619743
1.021505376344086
1.0039100684261977
0.989247311827957
0.9804496578690128
0.9765395894428152
0.978494623655914
0.9843597262952102
0.9951124144672532
1.0087976539589445
1.024437927663734
1.0391006842619743
1.0547409579667644
1.0694037145650048
1.0811339198435972
1.0948191593352885
1.115347018572825
1.1515151515151516
1.2130987292277615
1.3069403714565004
1.435972629521017
1.598240469208211
1.7869012707722385
1.9902248289345064
2.1945259042033234
2.363636363636364
2.5034213098729228
2.638318670576735
2.752688172043011
2.8396871945259043
2.8993157380254155
2.9315738025415445
2.93841642228739
2.924731182795699
2.89345063538612
2.8475073313782997
2.791788856304985
2.7331378299120237
2.6715542521994133
2.601173020527859
2.525904203323558
2.44672531769306
2.3655913978494625
2.281524926686217
2.1974584555229715
2.112414467253177
2.0361681329423265
1.964809384164223
1.8914956011730208
1.827956989247312
1.7702834799608993
1.70772238514174
1.6441837732160314
1.581622678396872
1.521016617790811
1.4643206256109482
1.412512218963832
1.3636363636363635
1.3186705767350928
1.278592375366569
1.2443792766373412
1.2160312805474096
1.1974584555229717
1.1857282502443791
1.1759530791788857
1.1710654936461389
1.1700879765395895
1.173998044965787
1.1827956989247312
1.195503421309873
1.2101661779081134
1.224828934506354
1.238514173998045
1.2512218963831867
1.2619745845552297
1.2727272727272727
1.2864125122189638
1.3118279569892473
1.3587487781036167
1.435972629521017
1.547409579667644
1.6950146627565983
1.871945259042033
2.0684261974584555
2.272727272727273
2.469208211143695
2.6471163245356792
2.7810361681329425
2.878787878787879
2.961876832844575
3.022482893450636
3.0557184750733137
3.064516129032258
3.0518084066471163
3.021505376344086
2.9765395894428157
2.919843597262952
2.854349951124145
2.782013685239492
2.7116324535679373
2.641251221896383
2.563049853372434
2.4789833822091887
2.3929618768328447
2.3059628543499517
2.217986314760508
2.1309872922776147
2.0449657869012707
1.9589442815249267
1.8748778103616808
1.7927663734115349
1.7135874877810362
1.64613880742913
1.5865102639296187
1.5239491691104594
1.4613880742913
1.4007820136852396
1.3450635386119256
1.2932551319648091
1.24633431085044
1.2043010752688172
1.1671554252199414
1.1368523949169111
1.1124144672531768
1.0977517106549364
1.0899315738025417
1.0840664711632453
1.0821114369501466
1.0840664711632453
1.088954056695992
1.0977517106549364
1.1085043988269794
1.1192570869990224
1.1300097751710656
1.1378299120234605
1.142717497556207
1.1485826001955035
1.160312805474096
1.181818181818182
1.2209188660801564
1.2883675464320623
1.391006842619746
1.5288367546432062
1.696969696969697
1.884652981427175
2.0791788856304985
2.2668621700879767
2.436950146627566
2.581622678396872
2.684261974584555
2.7536656891495603
2.8054740957966766
2.835777126099707
2.8455522971652005
2.835777126099707
2.807429130009776
2.764418377321604
2.7096774193548385
2.64613880742913
2.575757575757576
2.4995112414467253
2.419354838709677
2.3440860215053765
2.270772238514174
2.189638318670577
2.1055718475073317
2.0195503421309877
1.932551319648094
1.8465298142717497
1.7634408602150538
1.6823069403714566
1.6041055718475072
1.5278592375366569
1.455522971652004
1.3958944281524928
1.3450635386119256
1.2903225806451613
1.2355816226783969
1.1837732160312806
1.1358748778103618
1.0928641251221896
1.053763440860215
1.021505376344086
0.9941348973607038
0.9726295210166178
0.956989247311828
0.9491691104594332
0.9491691104594332
0.9550342130987292
0.9638318670576737
0.9745845552297164
0.9882697947214076
1.0039100684261977
1.0175953079178883
1.029325513196481
1.0391006842619743
1.0478983382209188
1.0576735092864125
1.075268817204301
1.1006842619745845
1.142717497556207
1.2130987292277615
1.3176930596285434
1.456500488758553
1.624633431085044
1.812316715542522
2.007820136852395
2.1974584555229715
2.3714565004887587
2.5190615835777126
2.636363636363636
2.721407624633431
2.771260997067449
2.7947214076246336
2.801564027370479
2.790811339198436
2.7653958944281527
2.7262952101661777
2.675464320625611
2.6148582600195502
2.5464320625610948
2.4731182795698925
2.3949169110459434
2.312805474095797
2.239491691104594
2.1700879765395893
2.0928641251221896
2.0117302052785924
1.9286412512218964
1.8465298142717497
1.7653958944281525
1.6852394916911049
1.6080156402737047
1.533724340175953
1.4633431085043989
1.396871945259042
1.3333333333333333
1.2834799608993157
1.2404692082111437
1.1945259042033236
1.1495601173020529
1.1085043988269794
1.072336265884653
1.0420332355816226
1.0166177908113392
0.997067448680352
0.9833822091886608
0.9745845552297164
0.9716520039100685
0.975562072336266
0.9843597262952102
0.9951124144672532
1.0087976539589445
1.024437927663734
1.040078201368524
1.0547409579667644
1.067448680351906
1.078201368523949
1.0918866080156402
1.1143695014662756
1.1534701857282503
1.2189638318670577
1.2991202346041055
1.3998044965786902
1.542521994134897
1.7174975562072337
1.911045943304008
2.110459433040078
2.3010752688172045
2.4701857282502444
2.610948191593353
2.721407624633431
2.7996089931573804
2.8475073313782997
2.8670576735092865
2.866080156402737
2.850439882697948
2.820136852394917
2.777126099706745
2.7253176930596283
2.664711632453568
2.598240469208211
2.5268817204301075
2.4516129032258065
2.372434017595308
2.290322580645161
2.2160312805474094
2.145650048875855
2.067448680351906
1.9872922776148585
1.9071358748778104
1.828934506353861
1.7526881720430108
1.678396871945259
1.606060606060606
1.5366568914956011
1.4721407624633431
1.4115347018572826
1.3558162267839686
1.3118279569892473
1.2746823069403714
1.2355816226783969
1.2101661779081134
1.1945259042033236
1.173998044965787
1.155425219941349
1.1407624633431086
1.130987292277615
1.1280547409579669
1.1300097751710656
1.1368523949169111
1.1485826001955035
1.164222873900293
1.1808406647116323
1.198435972629521
1.2140762463343109
1.2287390029325511
1.2404692082111437
1.2512218963831867
1.267839687194526
1.2961876832844574
1.346041055718475
1.4252199413489737
1.5395894428152492
1.66177908113392
1.7976539589442817
1.9696969696969695
2.157380254154448
2.345063538611926
2.520039100684262
2.670576735092864
2.791788856304985
2.8807429130009776
2.9393939393939394
2.970674486803519
2.9775171065493646
2.9657869012707723
2.9393939393939394
2.9012707722385143
2.852394916911046
2.7947214076246336
2.730205278592375
2.659824046920821
2.5865102639296187
2.5102639296187683
2.432062561094819
2.3519061583577714
2.271749755620724
2.1925708699902247
2.1221896383186705
2.056695992179863
1.9853372434017595
1.9120234604105573
1.839687194525904
1.76930596285435
1.7018572825024438
1.6373411534701858
1.5757575757575757
1.5180840664711632
1.4633431085043989
1.412512218963832
1.3724340175953078
1.3401759530791788
1.3069403714565004
1.2766373411534702
1.2502443792766371
1.2287390029325511
1.2130987292277615
1.2023460410557183
1.1974584555229717
1.1974584555229717
1.2013685239491692
1.2082111436950147
1.2179863147605083
1.23069403714565
1.2424242424242424
1.2512218963831867
1.2570869990224829
1.2609970674486803
1.2649071358748778
1.2766373411534702
1.303030303030303
1.35386119257087
1.4349951124144673
1.5513196480938416
1.6989247311827955
1.8455522971652003
1.994134897360704
2.166177908113392
2.3411534701857284
2.5024437927663734
2.638318670576735
2.744868035190616
2.820136852394917
2.866080156402737
2.884652981427175
2.8807429130009776
2.8582600195503423
2.820136852394917
2.774193548387097
2.721407624633431
2.658846529814272
2.590420332355816
2.5161290322580645
2.4379276637341154
2.356793743890518
2.274682306940372
2.1915933528836757
2.10850439882698
2.0254154447702835
1.9423264907135875
1.8699902248289344
1.8054740957966764
1.7360703812316716
1.6666666666666667
1.598240469208211
1.5317693059628543
1.4672531769305963
1.4056695992179864
1.3470185728250244
1.2913000977517106
1.2404692082111437
1.1935483870967742
1.1515151515151516
1.121212121212121
1.0987292277614855
1.0772238514173995
1.0586510263929618
1.0439882697947214
1.0342130987292275
1.029325513196481
1.0303030303030305
1.035190615835777
1.0449657869012707
1.0576735092864125
1.0703812316715542
1.0840664711632453
1.096774193548387
1.1065493646138806
1.1143695014662756
1.1221896383186705
1.1329423264907137
1.1564027370478984
1.2003910068426198
1.2727272727272727
1.3792766373411536
1.5180840664711632
1.6823069403714566
1.86119257086999
2.021505376344086
2.164222873900293
2.3118279569892475
2.44672531769306
2.558162267839687
2.641251221896383
2.6959921798631474
2.724340175953079
2.730205278592375
2.716520039100684
2.686217008797654
2.643206256109482
2.595307917888563
2.5434995112414467
2.4819159335288368
2.4134897360703813
2.3411534701857284
2.2658846529814274
2.188660801564027
2.110459433040078
2.032258064516129
1.9530791788856303
1.8748778103616808
1.7986314760508308
1.7243401759530792
1.6608015640273706
1.6041055718475072
1.541544477028348
1.478005865102639
1.41544477028348
1.3558162267839686
1.300097751710655
1.2482893450635386
1.2003910068426198
1.1564027370478984
1.118279569892473
1.0850439882697946
1.06158357771261
1.04594330400782
1.0303030303030305
1.018572825024438
1.0117302052785924
1.0097751710654936
1.0127077223851415
1.0195503421309873
1.0303030303030305
1.0439882697947214
1.0576735092864125
1.0713587487781036
1.086021505376344
1.099706744868035
1.1124144672531768
1.1241446725317692
1.1397849462365592
1.1671554252199414
1.2160312805474096
1.2932551319648091
1.4027370478983383
1.544477028347996
1.7116324535679377
1.895405669599218
2.0821114369501466
2.239491691104594
2.3714565004887587
2.498533724340176
2.6070381231671558
2.6901270772238512
2.745845552297165
2.776148582600196
2.782991202346041
2.771260997067449
2.742913000977517
2.7008797653958942
2.649071358748778
2.595307917888563
2.539589442815249
2.4750733137829912
2.404692082111437
2.3313782991202348
2.2551319648093844
2.177908113391984
2.1006842619745845
2.022482893450636
1.943304007820137
1.865102639296188
1.7898338220918866
1.7174975562072337
1.6559139784946235
1.6011730205278591
1.542521994134897
1.4819159335288368
1.423264907135875
1.367546432062561
1.3157380254154447
1.267839687194526
1.224828934506354
1.1857282502443791
1.1515151515151516
1.1231671554252198
1.104594330400782
1.0928641251221896
1.0821114369501466
1.0742913000977516
1.072336265884653
1.075268817204301
1.0840664711632453
1.0977517106549364
1.1143695014662756
1.1319648093841643
1.147605083088954
1.160312805474096
1.1720430107526882
1.1827956989247312
1.1964809384164223
1.217008797653959
1.2531769305962854
1.313782991202346
1.4066471163245358
1.5327468230694037
1.689149560117302
1.869012707722385
2.060606060606061
2.2502443792766376
2.4252199413489737
2.5610948191593352
2.664711632453568
2.7565982404692084
2.827956989247312
2.875855327468231
2.900293255131965
2.903225806451613
2.889540566959922
2.8611925708699903
2.820136852394917
2.76930596285435
2.7116324535679373
2.6480938416422286
2.5865102639296187
2.5239491691104594
2.4545454545454546
2.380254154447703
2.303030303030303
2.2248289345063537
2.147605083088954
2.070381231671554
1.994134897360704
1.9188660801564028
1.8455522971652003
1.7741935483870968
1.7135874877810362
1.6598240469208212
1.6021505376344083
1.543499511241447
1.4868035190615836
1.434017595307918
1.3851417399804498
1.3411534701857282
1.3020527859237536
1.267839687194526
1.2394916911045943
1.2160312805474096
1.198435972629521
1.1886608015640274
1.1857282502443791
1.1857282502443791
1.1886608015640274
1.195503421309873
1.2052785923753666
1.2179863147605083
1.2316715542521994
1.2443792766373412
1.2561094819159335
1.2668621700879763
1.278592375366569
1.2932551319648091
1.316715542521994
1.3587487781036167
1.4271749755620724
1.5298142717497556
1.667644183773216
1.8347996089931573
2.022482893450636
2.2170087976539588
2.4056695992179864
2.576735092864125
2.720430107526881
2.834799608993157
2.909090909090909
2.9530791788856305
2.979472140762464
2.9872922776148583
2.9765395894428157
2.9501466275659824
2.909090909090909
2.857282502443793
2.7966764418377323
2.7282502443792764
2.653958944281525
2.573802541544477
2.498533724340176
2.426197458455523
2.347018572825025
2.264907135874878
2.1818181818181817
2.0987292277614857
2.01564027370479
1.9335288367546437
1.8523949169110456
1.7741935483870968
1.6979472140762464
1.624633431085044
1.5542521994134897
1.495601173020528
1.4457478005865103
1.3919843597262953
1.33822091886608
1.2864125122189638
1.238514173998045
1.195503421309873
1.1583577712609971
1.1270772238514175
1.099706744868035
1.0791788856304985
1.064516129032258
1.0586510263929618
1.0596285434995112
1.06158357771261
1.0664711632453567
1.075268817204301
1.0869990224828934
1.0987292277614855
1.110459433040078
1.1192570869990224
1.1251221896383188
1.1300097751710656
1.13880742913001
1.1612903225806452
1.195503421309873
1.249266862170088
1.3372434017595307
1.4594330400782014
1.611925708699902
1.7878787878787878
1.9736070381231672
2.156402737047898
2.326490713587488
2.4731182795698925
2.591397849462365
2.6803519061583576
2.7341153470185726
2.7614858260019552
2.773216031280548
2.7673509286412514
2.744868035190616
2.70772238514174
2.658846529814272
2.601173020527859
2.535679374389052
2.4652981427174976
2.3919843597262958
2.314760508308896
2.2346041055718477
2.1622678396871944
2.0948191593352883
2.0195503421309877
1.9403714565004888
1.86119257086999
1.782991202346041
1.7057673509286413
1.6304985337243405
1.5571847507331378
1.4858260019550342
1.418377321603128
1.3548387096774193
1.3049853372434017
1.262952101661779
1.2179863147605083
1.1730205278592376
1.1300097751710656
1.0909090909090908
1.0576735092864125
1.029325513196481
1.0068426197458455
0.9902248289345064
0.9794721407624634
0.975562072336266
0.978494623655914
0.9872922776148584
0.997067448680352
1.0087976539589445
1.0224828934506354
1.0381231671554252
1.0527859237536656
1.0654936461388074
1.0762463343108504
1.0869990224828934
1.1006842619745845
1.126099706744868
1.1700879765395895
1.2267839687194526
1.3040078201368523
1.418377321603128
1.5669599217986314
1.739980449657869
1.9257086999022484
2.112414467253177
2.2873900293255134
2.439882697947214
2.5650048875855327
2.659824046920821
2.7253176930596283
2.7614858260019552
2.773216031280548
2.7702834799608995
2.752688172043011
