ppg
1.4222873900293256
1.3998044965786902
1.3782991202346042
1.3577712609970674
1.33822091886608
1.3196480938416422
1.3010752688172045
1.284457478005865
1.2697947214076246
1.2590420332355816
1.2512218963831867
1.2404692082111437
1.2287390029325511
1.2160312805474096
1.203323558162268
1.1925708699902249
1.1837732160312806
1.1759530791788857
1.1681329423264908
1.1593352883675463
1.1515151515151516
1.147605083088954
1.1436950146627567
1.1368523949169111
1.1280547409579669
1.118279569892473
1.110459433040078
1.104594330400782
1.1016617790811338
1.104594330400782
1.1173020527859236
1.1456500488758554
1.195503421309873
1.2717497556207231
1.3577712609970674
1.457478005865103
1.5865102639296187
1.7331378299120237
1.8875855327468232
2.040078201368524
2.1837732160312804
2.3118279569892475
2.4222873900293256
2.515151515151515
2.589442815249267
2.6451612903225805
2.679374389051808
2.696969696969697
2.708699902248289
2.7126099706744866
2.708699902248289
2.697947214076246
2.681329423264907
2.658846529814272
2.63049853372434
2.595307917888563
2.5532746823069403
2.505376344086021
2.449657869012708
2.3929618768328447
2.333333333333333
2.26197458455523
2.1847507331378297
2.1055718475073317
2.026392961876833
1.951124144672532
1.881720430107527
1.8201368523949168
1.750733137829912
1.683284457478006
1.6392961876832846
1.611925708699902
1.595307917888563
1.5826001955034212
1.573802541544477
1.565982404692082
1.5610948191593352
1.5571847507331378
1.552297165200391
1.5464320625610948
1.541544477028348
1.5347018572825024
1.5278592375366569
1.521016617790811
1.5161290322580645
1.5112414467253177
1.504398826979472
1.4965786901270772
1.4858260019550342
1.4731182795698925
1.457478005865103
1.4418377321603129
1.4242424242424243
1.4056695992179864
1.3870967741935485
1.3695014662756595
1.356793743890518
1.346041055718475
1.3333333333333333
1.3186705767350928
1.303030303030303
1.2864125122189638
1.2697947214076246
1.2531769305962854
1.2365591397849462
1.219941348973607
1.203323558162268
1.1857282502443791
1.1681329423264908
1.1564027370478984
1.147605083088954
1.1368523949169111
1.1251221896383188
1.1133919843597262
1.1016617790811338
1.0899315738025417
1.0791788856304985
1.0694037145650048
1.0635386119257086
1.0664711632453567
1.0869990224828934
1.121212121212121
1.1749755620723363
1.2590420332355816
1.3724340175953078
1.509286412512219
1.6627565982404693
1.822091886608016
1.978494623655914
2.124144672531769
2.251221896383187
2.358748778103617
2.444770283479961
2.5102639296187683
2.550342130987292
2.573802541544477
2.589442815249267
2.595307917888563
2.593352883675464
2.5855327468230693
2.5718475073313782
2.5532746823069403
2.529814271749756
2.5034213098729228
2.4711632453567938
2.434017595307918
2.3949169110459434
2.3499511241446727
2.294232649071359
2.228739002932551
2.155425219941349
2.075268817204301
1.989247311827957
1.9012707722385145
1.8132942326490715
1.7272727272727273
1.6451612903225807
1.5679374389051808
1.5063538611925709
1.456500488758553
1.4086021505376345
1.367546432062561
1.335288367546432
1.310850439882698
1.2932551319648091
1.2825024437927663
1.2766373411534702
1.2727272727272727
1.2697947214076246
1.2658846529814272
1.2609970674486803
1.2590420332355816
1.2561094819159335
1.2482893450635386
1.2365591397849462
1.2209188660801564
1.203323558162268
1.1837732160312806
1.163245356793744
1.141739980449658
1.1202346041055715
1.1006842619745845
1.083088954056696
1.0733137829912025
1.072336265884653
1.0791788856304985
1.1006842619745845
1.141739980449658
1.2052785923753666
1.2903225806451613
1.3958944281524928
1.5151515151515151
1.6412512218963833
1.7683284457478006
1.8875855327468232
1.994134897360704
2.075268817204301
2.134897360703812
2.1847507331378297
2.219941348973607
2.2404692082111435
2.24633431085044
2.2404692082111435
2.222873900293255
2.1955034213098727
2.157380254154448
2.1114369501466275
2.058651026392962
2.007820136852395
1.95405669599218
1.8885630498533723
1.81524926686217
1.7350928641251222
1.6520039100684265
1.5669599217986314
1.4838709677419355
1.4037145650048877
1.3313782991202343
1.270772238514174
1.2228739002932552
1.187683284457478
1.1671554252199414
1.1583577712609971
1.155425219941349
1.1583577712609971
1.1671554252199414
1.1798631476050832
1.1925708699902249
1.2052785923753666
1.2179863147605083
1.23069403714565
1.2424242424242424
1.2531769305962854
1.262952101661779
1.2697947214076246
1.2746823069403714
1.278592375366569
1.2795698924731185
1.278592375366569
1.2776148582600195
1.2756598240469208
1.2717497556207231
1.2668621700879763
1.2619745845552297
1.2561094819159335
1.2512218963831867
1.2482893450635386
1.2473118279569892
1.2434017595307918
1.238514173998045
1.2336265884652982
1.2287390029325511
1.2228739002932552
1.2160312805474096
1.209188660801564
1.203323558162268
1.1974584555229717
1.1925708699902249
1.1906158357771262
1.1906158357771262
1.1886608015640274
1.1867057673509287
1.1837732160312806
1.1808406647116323
1.1788856304985338
1.176930596285435
1.176930596285435
1.1779081133919844
1.1798631476050832
1.181818181818182
1.18475073313783
1.1886608015640274
1.1935483870967742
1.195503421309873
1.1964809384164223
1.1964809384164223
1.195503421309873
1.1974584555229717
1.2072336265884651
1.2316715542521994
1.278592375366569
1.3558162267839686
1.4672531769305963
1.5865102639296187
1.718475073313783
1.8836754643206255
2.065493646138808
2.249266862170088
2.4242424242424243
2.582600195503421
2.718475073313783
2.83088954056696
2.918866080156403
2.9853372434017595
3.032258064516129
3.06158357771261
3.072336265884653
3.069403714565005
3.059628543499511
3.0439882697947214
3.021505376344086
2.9931573802541545
2.9589442815249267
2.917888563049853
2.870967741935484
2.81622678396872
2.7546432062561097
2.684261974584555
2.613880742913001
2.541544477028348
2.4574780058651027
2.3655913978494625
2.271749755620724
2.176930596285435
2.086021505376344
2.0009775171065494
1.924731182795699
1.857282502443793
1.7996089931573802
1.75366568914956
1.7174975562072337
1.6920821114369502
1.6744868035190617
1.6608015640273706
1.6334310850439884
1.5992179863147604
1.5786901270772238
1.564027370478983
1.5513196480938416
1.5386119257087
1.5239491691104594
1.5083088954056696
1.490713587487781
1.4760508308895406
1.4623655913978495
1.4457478005865103
1.4271749755620724
1.4086021505376345
1.391006842619746
1.3743890518084063
1.3577712609970674
1.3401759530791788
1.3206256109481915
1.3010752688172045
1.281524926686217
1.2619745845552297
1.2473118279569892
1.2355816226783969
1.2228739002932552
1.2111436950146628
1.198435972629521
1.1867057673509287
1.1749755620723363
1.164222873900293
1.1534701857282503
1.1436950146627567
1.1348973607038124
1.1270772238514175
1.1221896383186705
1.1192570869990224
1.1133919843597262
1.1065493646138806
1.0987292277614855
1.0909090909090908
1.0821114369501466
1.0742913000977516
1.0654936461388074
1.0557184750733135
1.0449657869012707
1.0361681329423265
1.0332355816226784
1.040078201368524
1.06158357771261
1.1036168132942326
1.173998044965787
1.2746823069403714
1.4027370478983383
1.5532746823069403
1.7174975562072337
1.8866080156402736
2.048875855327468
2.1974584555229715
2.326490713587488
2.420332355816227
2.487781036168133
2.5464320625610948
2.589442815249267
2.616813294232649
2.631476050830889
2.635386119257087
2.63049853372434
2.6177908113391983
2.598240469208211
2.572825024437928
2.5425219941348973
2.509286412512219
2.4711632453567938
2.4252199413489737
2.3704789833822093
2.304985337243402
2.2297165200391005
2.146627565982405
2.056695992179863
1.9618768328445748
1.866080156402737
1.7712609970674489
1.6803519061583578
1.5962854349951123
1.5288367546432062
1.4750733137829912
1.4242424242424243
1.380254154447703
1.346041055718475
1.321603128054741
1.3049853372434017
1.2942326490713587
1.2883675464320623
1.2864125122189638
1.2864125122189638
1.2864125122189638
1.2873900293255132
1.2883675464320623
1.2864125122189638
1.281524926686217
1.2746823069403714
1.2668621700879763
1.2580645161290325
1.2482893450635386
1.2375366568914956
1.2267839687194526
1.2160312805474096
1.2052785923753666
1.1945259042033236
1.1867057673509287
1.1808406647116323
1.1720430107526882
1.1622678396871946
1.1505376344086022
1.13880742913001
1.1290322580645162
1.1192570869990224
1.110459433040078
1.1036168132942326
1.0987292277614855
1.0948191593352885
1.093841642228739
1.0948191593352885
1.093841642228739
1.0918866080156402
1.0899315738025417
1.088954056695992
1.088954056695992
1.0899315738025417
1.0899315738025417
1.0899315738025417
1.0899315738025417
1.0899315738025417
1.0918866080156402
1.0957966764418376
1.1016617790811338
1.10752688172043
1.1173020527859236
1.1348973607038124
1.166177908113392
1.217008797653959
1.2942326490713587
1.3998044965786902
1.5298142717497556
1.6823069403714566
1.8494623655913975
1.9990224828934504
2.133919843597263
2.278592375366569
2.4164222873900294
2.5405669599217986
2.64613880742913
2.730205278592375
2.793743890518084
2.838709677419355
2.868035190615836
2.8826979472140764
2.886608015640274
2.878787878787879
2.86217008797654
2.838709677419355
2.811339198435973
2.779081133919844
2.7419354838709675
2.697947214076246
2.6480938416422286
2.590420332355816
2.5249266862170088
2.4516129032258065
2.3704789833822093
2.2854349951124147
2.207233626588465
2.131964809384164
2.050830889540567
1.9696969696969695
1.8914956011730208
1.8201368523949168
1.758553274682307
1.70772238514174
1.6686217008797657
1.6392961876832846
1.6177908113391983
1.6021505376344083
1.5913978494623655
1.585532746823069
1.5806451612903225
1.573802541544477
1.5669599217986314
1.5591397849462365
1.5493646138807429
1.5366568914956011
1.521994134897361
1.5063538611925709
1.490713587487781
1.4750733137829912
1.4604105571847508
1.447702834799609
1.4349951124144673
1.4193548387096775
1.4027370478983383
1.3861192570869991
1.3685239491691104
1.348973607038123
1.3294232649071358
1.310850439882698
1.295210166177908
1.2805474095796676
1.2658846529814272
1.2531769305962854
1.2453567937438903
1.2404692082111437
1.2336265884652982
1.2258064516129032
1.2179863147605083
1.2101661779081134
1.203323558162268
1.1974584555229717
1.1915933528836755
1.1857282502443791
1.1808406647116323
1.1759530791788857
1.173998044965787
1.1730205278592376
1.1700879765395895
1.1652003910068427
1.1593352883675463
1.1544477028347997
1.152492668621701
1.1593352883675463
1.1827956989247312
1.227761485826002
1.300097751710655
1.4037145650048877
1.5347018572825024
1.664711632453568
1.7986314760508308
1.956989247311828
2.1221896383186705
2.2825024437927666
2.4281524926686218
2.5542521994134897
2.6578690127077222
2.739980449657869
2.801564027370479
2.8455522971652005
2.874877810361681
2.8885630498533725
2.8905180840664717
2.887585532746823
2.878787878787879
2.8641251221896384
2.844574780058651
2.820136852394917
2.790811339198436
2.755620723362659
2.713587487781036
2.6803519061583576
2.64613880742913
2.587487781036168
2.5219941348973607
2.4516129032258065
2.367546432062561
2.2766373411534704
2.182795698924731
2.0879765395894427
1.9980449657869013
1.913978494623656
1.8377321603128052
1.7712609970674489
1.7145650048875856
1.6686217008797657
1.635386119257087
1.6109481915933528
1.590420332355816
1.5747800586510263
1.564027370478983
1.5542521994134897
1.543499511241447
1.5317693059628543
1.520039100684262
1.5073313782991202
1.4926686217008798
1.47702834799609
1.4633431085043989
1.4496578690127078
1.4320625610948192
1.4115347018572826
1.3900293255131966
1.367546432062561
1.343108504398827
1.3196480938416422
1.2981427174975562
1.2825024437927663
1.278592375366569
1.2932551319648091
1.3294232649071358
1.3782991202346042
1.4437927663734116
1.5366568914956011
1.6500488758553276
1.7761485826001957
1.9042033235581624
2.027370478983382
2.1378299120234603
2.231671554252199
2.3059628543499517
2.357771260997068
2.389051808406647
2.40078201368524
2.3978494623655915
2.3851417399804498
2.360703812316716
2.3274682306940373
2.2854349951124147
2.2346041055718477
2.174975562072336
2.1055718475073317
2.029325513196481
1.946236559139785
1.8563049853372435
1.761485826001955
1.6764418377321604
1.5972629521016617
1.512218963831867
1.4271749755620724
1.346041055718475
1.273704789833822
1.2121212121212122
1.164222873900293
1.130987292277615
1.1114369501466277
1.104594330400782
1.1085043988269794
1.1192570869990224
1.1358748778103618
1.1564027370478984
1.1788856304985338
1.2003910068426198
1.2209188660801564
1.2394916911045943
1.2551319648093842
1.267839687194526
1.278592375366569
1.2873900293255132
1.29227761485826
1.295210166177908
1.2981427174975562
1.3010752688172045
1.3020527859237536
1.3020527859237536
1.300097751710655
1.2961876832844574
1.2932551319648091
1.2883675464320623
1.281524926686217
1.273704789833822
1.2649071358748778
1.2551319648093842
1.2482893450635386
1.2434017595307918
1.2365591397849462
1.2287390029325511
1.2209188660801564
1.2130987292277615
1.206256109481916
1.2013685239491692
1.1974584555229717
1.1925708699902249
1.187683284457478
1.1837732160312806
1.181818181818182
1.1827956989247312
1.1857282502443791
1.1867057673509287
1.187683284457478
1.1886608015640274
1.1915933528836755
1.195503421309873
1.1994134897360704
1.2043010752688172
1.2082111436950147
1.2121212121212122
1.2150537634408602
1.2179863147605083
1.219941348973607
1.219941348973607
1.2238514173998043
1.2394916911045943
1.2776148582600195
1.3470185728250244
1.452590420332356
1.5962854349951123
1.772238514173998
1.9696969696969695
2.176930596285435
2.3812316715542523
2.548387096774193
2.6881720430107525
2.8260019550342133
2.948191593352884
3.0498533724340176
3.129032258064516
3.185728250244379
3.222873900293255
3.244379276637341
3.2521994134897363
3.2482893450635384
3.2346041055718477
3.2111436950146626
3.1808406647116323
3.147605083088954
3.1094819159335287
3.065493646138808
3.0146627565982405
2.956989247311828
2.8905180840664717
2.8152492668621703
2.7311827956989245
2.6392961876832843
2.5405669599217986
2.4389051808406648
2.347996089931574
2.2639296187683287
2.175953079178885
2.09188660801564
2.016617790811339
1.951124144672532
1.8973607038123168
1.8543499511241448
1.8191593352883677
1.7917888563049853
1.7702834799608993
1.75366568914956
1.7409579667644184
1.7302052785923754
1.718475073313783
1.704789833822092
1.6881720430107527
1.6695992179863148
1.6500488758553276
1.6285434995112416
1.6041055718475072
1.5796676441837731
1.5562072336265884
1.5327468230694037
1.509286412512219
1.490713587487781
1.4721407624633431
1.4496578690127078
1.4252199413489737
1.4007820136852396
1.3773216031280548
1.35386119257087
1.3304007820136852
1.3069403714565004
1.2854349951124144
1.2639296187683284
1.2424242424242424
1.2258064516129032
1.2140762463343109
1.2013685239491692
1.187683284457478
1.173998044965787
1.160312805474096
1.147605083088954
1.1358748778103618
1.1241446725317692
1.1143695014662756
1.104594330400782
1.096774193548387
1.0899315738025417
1.086021505376344
1.0850439882697946
1.083088954056696
1.0791788856304985
1.072336265884653
1.064516129032258
1.0576735092864125
1.0527859237536656
1.0576735092864125
1.0801564027370478
1.1270772238514175
1.2043010752688172
1.2942326490713587
1.401759530791789
1.5464320625610948
1.715542521994135
1.895405669599218
2.074291300097752
2.241446725317693
2.391006842619746
2.5190615835777126
2.6236559139784945
2.705767350928641
2.766373411534702
2.807429130009776
2.8269794721407626
2.831867057673509
2.8299120234604107
2.820136852394917
2.8025415444770285
2.777126099706745
2.744868035190616
2.7067448680351904
2.66177908113392
2.6099706744868034
2.549364613880743
2.479960899315738
2.4115347018572826
2.340175953079179
2.2561094819159337
2.164222873900293
2.034213098729228
1.8875855327468232
1.76930596285435
1.6705767350928642
1.585532746823069
1.512218963831867
1.4516129032258065
1.401759530791789
1.3655913978494625
1.3401759530791788
1.3196480938416422
1.305962854349951
1.2961876832844574
1.289345063538612
1.2825024437927663
1.2766373411534702
1.2697947214076246
1.2609970674486803
1.2512218963831867
1.2394916911045943
1.2267839687194526
1.217008797653959
1.209188660801564
1.198435972629521
1.1867057673509287
1.1730205278592376
1.1583577712609971
1.142717497556207
1.1270772238514175
1.110459433040078
1.0909090909090908
1.0713587487781036
1.0498533724340176
1.032258064516129
1.018572825024438
1.0019550342130987
0.9853372434017597
0.9687194525904204
0.9530791788856304
0.9393939393939394
0.927663734115347
0.9159335288367546
0.906158357771261
0.8973607038123167
0.8885630498533724
0.8807429130009775
0.8778103616813294
0.8778103616813294
0.8748778103616813
0.8699902248289345
0.863147605083089
0.855327468230694
0.8475073313782991
0.8387096774193549
0.8299120234604106
0.8220918866080157
0.8142717497556208
0.8093841642228738
0.8113391984359726
0.820136852394917
0.8396871945259042
0.8778103616813294
0.9393939393939394
1.0283479960899315
1.1456500488758554
1.2883675464320623
1.4496578690127078
1.6207233626588464
1.7917888563049853
1.9550342130987293
2.104594330400782
2.2218963831867056
2.314760508308896
2.403714565004888
2.479960899315738
2.541544477028348
2.5884652981427174
2.622678396871945
2.6451612903225805
2.6578690127077222
2.66177908113392
2.6578690127077222
2.64613880742913
2.6265884652981426
2.601173020527859
2.56891495601173
2.5288367546432062
2.4780058651026398
2.4173998044965788
2.3489736070381237
2.2737047898338223
2.1925708699902247
2.10752688172043
2.021505376344086
1.9374389051808407
1.857282502443793
1.7917888563049853
1.7380254154447703
1.6871945259042034
1.6422287390029326
1.6050830889540566
1.5786901270772238
1.5610948191593352
1.5503421309872922
1.544477028347996
1.541544477028348
1.5395894428152492
1.5376344086021505
1.5356793743890518
1.5327468230694037
1.5268817204301075
1.520039100684262
1.5131964809384164
1.504398826979472
1.4946236559139785
1.4838709677419355
1.4731182795698925
1.4623655913978495
1.4506353861192571
1.435972629521017
1.4213098729227762
1.4086021505376345
1.3978494623655917
1.3851417399804498
1.3714565004887584
1.3548387096774193
1.3372434017595307
1.3206256109481915
1.305962854349951
1.2932551319648091
1.2825024437927663
1.2697947214076246
1.2570869990224829
1.2482893450635386
1.2394916911045943
1.2287390029325511
1.2179863147605083
1.2072336265884651
1.1964809384164223
1.1867057673509287
1.1779081133919844
1.1691104594330402
1.1612903225806452
1.1534701857282503
1.1456500488758554
1.1378299120234605
1.1319648093841643
1.1280547409579669
1.1221896383186705
1.1192570869990224
1.1251221896383188
1.144672531769306
1.1867057673509287
1.2561094819159335
1.3548387096774193
1.4819159335288368
1.6314760508308896
1.7956989247311828
1.9403714565004888
2.071358748778104
2.210166177908113
2.3421309872922778
2.4594330400782014
2.557184750733138
2.635386119257087
2.6959921798631474
2.7390029325513194
2.7673509286412514
2.7839687194525906
2.788856304985337
2.7859237536656893
2.774193548387097
2.7565982404692084
2.736070381231672
2.710654936461388
2.678396871945259
2.6402737047898337
2.5962854349951123
2.5434995112414467
2.482893450635386
2.4144672531769307
2.3391984359726297
2.2561094819159337
2.176930596285435
2.099706744868035
2.0127077223851417
1.924731182795699
1.8377321603128052
1.7556207233626588
1.6803519061583578
1.6148582600195502
1.5591397849462365
1.5141739980449658
1.478983382209189
1.4506353861192571
1.4291300097751711
1.414467253176931
1.4037145650048877
1.393939393939394
1.383186705767351
1.3714565004887584
1.3587487781036167
1.3450635386119256
1.3294232649071358
1.313782991202346
1.2981427174975562
1.2805474095796676
1.2609970674486803
1.2443792766373412
1.23069403714565
1.2140762463343109
1.1964809384164223
1.1759530791788857
1.1544477028347997
1.133919843597263
1.1133919843597262
1.0928641251221896
1.072336265884653
1.053763440860215
1.035190615835777
1.018572825024438
1.007820136852395
1.0
0.989247311827957
0.978494623655914
0.967741935483871
0.9579667644183774
0.9491691104594332
0.9403714565004888
0.9315738025415444
0.9237536656891496
0.916911045943304
0.9100684261974584
0.9071358748778104
0.9051808406647116
0.9012707722385142
0.8963831867057673
0.8895405669599218
0.8817204301075269
0.8758553274682307
0.8729227761485826
0.8787878787878788
0.8983382209188661
0.9374389051808406
1.0019550342130987
1.0791788856304985
1.1730205278592376
1.2981427174975562
1.4457478005865103
1.607038123167155
1.772238514173998
1.9335288367546437
2.083088954056696
2.2160312805474094
2.329423264907136
2.4222873900293256
2.547409579667644
2.678396871945259
2.7497556207233624
2.7869012707722387
2.8084066471163247
2.817204301075269
2.8152492668621703
2.8044965786901277
2.7869012707722387
2.764418377321604
2.736070381231672
2.701857282502444
2.6608015640273703
2.6129032258064515
2.563049853372434
2.509286412512219
2.444770283479961
2.3734115347018574
2.2952101661779083
2.2140762463343107
2.1309872922776147
2.050830889540567
1.9745845552297163
1.905180840664712
1.844574780058651
1.793743890518084
1.75366568914956
1.7253176930596286
1.7057673509286413
1.6901270772238517
1.6803519061583578
1.6764418377321604
1.675464320625611
1.675464320625611
1.6735092864125125
1.6715542521994136
1.6695992179863148
1.667644183773216
1.6637341153470186
1.6608015640273706
1.6578690127077225
1.6529814271749756
1.6471163245356797
1.6392961876832846
1.629521016617791
1.6187683284457477
1.606060606060606
1.5923753665689149
1.5786901270772238
1.563049853372434
1.5454545454545454
1.5288367546432062
1.5151515151515151
1.504398826979472
1.4916911045943304
1.478005865102639
1.4643206256109482
1.4506353861192571
1.4379276637341154
1.426197458455523
1.4134897360703813
1.4007820136852396
1.3890518084066472
1.3773216031280548
1.3695014662756595
1.3626588465298142
1.35386119257087
1.346041055718475
1.3391984359726294
1.3333333333333333
1.327468230694037
1.321603128054741
1.3147605083088951
1.3079178885630498
1.3020527859237536
1.3010752688172045
1.3118279569892473
1.3333333333333333
1.3714565004887584
1.436950146627566
1.530791788856305
1.6529814271749756
1.7986314760508308
1.9608993157380252
2.129032258064516
2.294232649071359
2.447702834799609
2.5835777126099706
2.6989247311827955
2.7810361681329425
2.8396871945259043
2.89247311827957
2.9335288367546437
2.963831867057673
2.98435972629521
2.994134897360704
2.995112414467253
2.988269794721408
2.9745845552297165
2.95405669599218
2.9286412512218964
2.897360703812317
2.8611925708699903
2.820136852394917
2.7702834799608995
2.7116324535679373
2.64613880742913
2.573802541544477
2.493646138807429
2.4086021505376345
2.320625610948192
2.23069403714565
2.142717497556207
2.058651026392962
1.988269794721408
1.9286412512218964
1.8699902248289344
1.8191593352883677
1.7771260997067448
1.7438905180840665
1.718475073313783
1.6989247311827955
1.6852394916911049
1.675464320625611
1.6686217008797657
1.6627565982404693
1.656891495601173
1.651026392961877
1.6441837732160314
1.6334310850439884
1.619745845552297
1.6041055718475072
1.587487781036168
1.5698924731182795
1.5513196480938416
1.5327468230694037
1.5141739980449658
1.495601173020528
1.4750733137829912
1.458455522971652
1.4437927663734116
1.426197458455523
1.4066471163245358
1.3861192570869991
1.3665689149560116
1.348973607038123
1.332355816226784
1.3176930596285434
1.303030303030303
1.289345063538612
1.2756598240469208
1.262952101661779
1.2541544477028348
1.2482893450635386
1.2404692082111437
1.2326490713587488
1.2267839687194526
1.2218963831867058
