ppg
2.209188660801564
2.1388074291300097
2.078201368523949
2.024437927663734
1.9716520039100685
1.920821114369501
1.87683284457478
1.835777126099707
1.790811339198436
1.7429130009775171
1.694037145650049
1.6451612903225807
1.5962854349951123
1.5493646138807429
1.5034213098729228
1.458455522971652
1.4134897360703813
1.367546432062561
1.3225806451612905
1.2873900293255132
1.2551319648093842
1.217008797653959
1.176930596285435
1.1368523949169111
1.096774193548387
1.0576735092864125
1.0205278592375366
0.9863147605083088
0.95405669599218
0.9227761485826002
0.8934506353861192
0.873900293255132
0.8582600195503421
0.8406647116324536
0.8260019550342131
0.8172043010752689
0.8191593352883676
0.8347996089931574
0.8670576735092864
0.9159335288367546
0.9804496578690128
1.0586510263929618
1.1495601173020529
1.2502443792766371
1.3450635386119256
1.436950146627566
1.5376344086021505
1.640273704789834
1.7390029325513197
1.8299120234604105
1.9130009775171064
1.9872922776148585
2.050830889540567
2.104594330400782
2.1495601173020527
2.1867057673509285
2.2111436950146626
2.225806451612903
2.2346041055718477
2.2375366568914954
2.232649071358749
2.219941348973607
2.19941348973607
2.172043010752688
2.1417399804496577
2.1094819159335287
2.0762463343108504
2.0439882697947214
2.013685239491691
1.988269794721408
1.9657869012707725
1.9442815249266865
1.9237536656891496
1.903225806451613
1.884652981427175
1.8670576735092863
1.8504398826979471
1.833822091886608
1.81524926686217
1.7927663734115349
1.7683284457478006
1.7448680351906158
1.7194525904203324
1.689149560117302
1.6559139784946235
1.619745845552297
1.5835777126099706
1.5483870967741935
1.5131964809384164
1.47702834799609
1.4408602150537635
1.4056695992179864
1.3714565004887584
1.3372434017595307
1.3098729227761483
1.2854349951124144
1.2590420332355816
1.2316715542521994
1.203323558162268
1.1749755620723363
1.1505376344086022
1.130987292277615
1.1173020527859236
1.1114369501466277
1.1143695014662756
1.1280547409579669
1.1505376344086022
1.1837732160312806
1.2336265884652982
1.300097751710655
1.3782991202346042
1.4682306940371457
1.56891495601173
1.675464320625611
1.782991202346041
1.889540566959922
1.991202346041056
2.086021505376344
2.1730205278592374
2.241446725317693
2.297165200391007
2.350928641251222
2.39980449657869
2.441837732160313
2.474095796676442
2.4946236559139785
2.505376344086021
2.505376344086021
2.495601173020528
2.4760508308895406
2.4486803519061584
2.4173998044965788
2.3851417399804498
2.3489736070381237
2.310850439882698
2.272727272727273
2.2346041055718477
2.1974584555229715
2.164222873900293
2.1358748778103616
2.1094819159335287
2.0840664711632453
2.06158357771261
2.042033235581622
2.0234604105571847
2.003910068426197
1.9833822091886608
1.959921798631476
1.9335288367546437
1.905180840664712
1.8748778103616808
1.842619745845552
1.8074291300097751
1.7712609970674489
1.7350928641251222
1.6989247311827955
1.667644183773216
1.6392961876832846
1.607038123167155
1.5728250244379276
1.5376344086021505
1.501466275659824
1.4633431085043989
1.423264907135875
1.383186705767351
1.3440860215053765
1.3069403714565004
1.2717497556207231
1.2434017595307918
1.2218963831867058
1.1945259042033236
1.166177908113392
1.1397849462365592
1.1143695014662756
1.0928641251221896
1.078201368523949
1.072336265884653
1.0791788856304985
1.099706744868035
1.1368523949169111
1.1906158357771262
1.249266862170088
1.3157380254154447
1.3998044965786902
1.4946236559139785
1.5962854349951123
1.7008797653958945
1.804496578690127
1.905180840664712
2.0009775171065494
2.088954056695992
2.1700879765395893
2.2453567937438903
2.304007820136853
2.3519061583577714
2.40078201368524
2.4457478005865103
2.4838709677419355
2.5131964809384164
2.532746823069404
2.5425219941348973
2.5434995112414467
2.5347018572825024
2.5180840664711632
2.4946236559139785
2.4652981427174976
2.4330400782013686
2.398826979472141
2.361681329423265
2.3225806451612905
2.2844574780058653
2.247311827956989
2.212121212121212
2.1808406647116323
2.1515151515151514
2.1251221896383186
2.0977517106549364
2.0684261974584555
2.040078201368524
2.0127077223851417
1.9824046920821117
1.949169110459433
1.9130009775171064
1.873900293255132
1.83088954056696
1.7849462365591398
1.7360703812316716
1.686217008797654
1.6373411534701858
1.5884652981427174
1.541544477028348
1.5024437927663734
1.4672531769305963
1.4271749755620724
1.3861192570869991
1.3440860215053765
1.3040078201368523
1.2658846529814272
1.2287390029325511
1.1915933528836755
1.155425219941349
1.1202346041055715
1.086021505376344
1.06158357771261
1.0439882697947214
1.029325513196481
1.0224828934506354
1.0283479960899315
1.0518084066471165
1.0948191593352885
1.1573802541544478
1.238514173998045
1.3362658846529814
1.521994134897361
1.7556207233626588
1.93841642228739
2.075268817204301
2.1867057673509285
2.2952101661779083
2.3949169110459434
2.4838709677419355
2.5620723362658846
2.6285434995112413
2.684261974584555
2.7311827956989245
2.766373411534702
2.7869012707722387
2.7947214076246336
2.792766373411535
2.782991202346041
2.764418377321604
2.73802541544477
2.704789833822092
2.667644183773216
2.6265884652981426
2.582600195503421
2.535679374389052
2.4916911045943304
2.450635386119257
2.4115347018572826
2.375366568914956
2.345063538611926
2.317693059628544
2.291300097751711
2.2668621700879767
2.244379276637341
2.222873900293255
2.19941348973607
2.1739980449657867
2.145650048875855
2.1163245356793743
2.0840664711632453
2.048875855327468
2.01564027370479
1.9853372434017595
1.949169110459433
1.90811339198436
1.865102639296188
1.8211143695014664
1.7771260997067448
1.7341153470185728
1.6930596285434996
1.651026392961877
1.6099706744868034
1.5708699902248289
1.5317693059628543
1.500488758553275
1.4750733137829912
1.4467253176930597
1.4164222873900294
1.3861192570869991
1.359726295210166
1.3372434017595307
1.316715542521994
1.2971652003910068
1.2795698924731185
1.2649071358748778
1.2541544477028348
1.2512218963831867
1.2561094819159335
1.2697947214076246
1.2981427174975562
1.343108504398827
1.4086021505376345
1.4965786901270772
1.606060606060606
1.732160312805474
1.8699902248289344
2.0146627565982405
2.161290322580645
2.303030303030303
2.4222873900293256
2.5268817204301075
2.635386119257087
2.73802541544477
2.83088954056696
2.9100684261974585
2.9775171065493646
3.0332355816226784
3.0772238514174
3.110459433040078
3.132942326490713
3.144672531769306
3.1436950146627565
3.1309872922776147
3.1114369501466275
3.0840664711632453
3.048875855327468
3.005865102639296
2.9589442815249267
2.909090909090909
2.8582600195503423
2.809384164222874
2.7624633431085046
2.718475073313783
2.681329423264907
2.649071358748778
2.6177908113391983
2.589442815249267
2.5610948191593352
2.5317693059628543
2.5034213098729228
2.4760508308895406
2.4457478005865103
2.4134897360703813
2.380254154447703
2.3440860215053765
2.304985337243402
2.2688172043010755
2.236559139784946
2.20039100684262
2.161290322580645
2.121212121212121
2.081133919843597
2.040078201368524
1.9990224828934504
1.9560117302052784
1.9120234604105573
1.869012707722385
1.828934506353861
1.7976539589442817
1.7712609970674489
1.7419354838709675
1.7116324535679377
1.6813294232649072
1.6520039100684265
1.6236559139784943
1.5962854349951123
1.5679374389051808
1.542521994134897
1.5239491691104594
1.5151515151515151
1.517106549364614
1.530791788856305
1.5571847507331378
1.6021505376344083
1.6656891495601174
1.7468230694037146
1.844574780058651
1.95405669599218
2.070381231671554
2.189638318670577
2.3098729227761488
2.4271749755620724
2.5376344086021505
2.6265884652981426
2.699902248289345
2.773216031280548
2.841642228739003
2.8993157380254155
2.9442815249266863
2.9765395894428157
2.9960899315738025
3.0019550342130987
2.9960899315738025
2.978494623655914
2.951124144672532
2.9159335288367547
2.877810361681329
2.8377321603128056
2.793743890518084
2.747800586510264
2.702834799608993
2.659824046920821
2.618768328445748
2.5806451612903225
2.548387096774193
2.52297165200391
2.5004887585532747
2.4780058651026398
2.4574780058651027
2.436950146627566
2.412512218963832
2.3851417399804498
2.3548387096774195
2.3225806451612905
2.2873900293255134
2.2502443792766376
2.210166177908113
2.167155425219941
2.12316715542522
2.0772238514174
2.029325513196481
1.9872922776148585
1.949169110459433
1.9042033235581624
1.855327468230694
1.8054740957966764
1.7546432062561097
1.704789833822092
1.656891495601173
1.6099706744868034
1.5669599217986314
1.5268817204301075
1.487781036168133
1.456500488758553
1.4301075268817205
1.401759530791789
1.3743890518084063
1.3499511241446724
1.335288367546432
1.3362658846529814
1.3548387096774193
1.3949169110459434
1.456500488758553
1.5376344086021505
1.635386119257087
1.7468230694037146
1.8514173998044965
1.951124144672532
2.0635386119257086
2.1788856304985336
2.29227761485826
2.40078201368524
2.501466275659824
2.592375366568915
2.6715542521994133
2.7370478983382207
2.791788856304985
2.8367546432062563
2.866080156402737
2.884652981427175
2.897360703812317
2.9012707722385143
2.8963831867057674
2.8807429130009776
2.854349951124145
2.8181818181818183
2.774193548387097
2.724340175953079
2.670576735092864
2.6158357771261
2.5640273704789838
2.520039100684262
2.4789833822091887
2.436950146627566
2.3978494623655915
2.361681329423265
2.3284457478005867
2.297165200391007
2.2668621700879767
2.2375366568914954
2.207233626588465
2.174975562072336
2.139784946236559
2.10752688172043
2.075268817204301
2.035190615835777
1.9902248289345064
1.889540566959922
1.7575757575757576
1.664711632453568
1.590420332355816
1.5239491691104594
1.4623655913978495
1.4027370478983383
1.3450635386119256
1.289345063538612
1.2443792766373412
1.2052785923753666
1.160312805474096
1.1163245356793745
1.0742913000977516
1.0342130987292275
0.997067448680352
0.9628543499511242
0.9325513196480938
0.9081133919843596
0.8924731182795699
0.8885630498533724
0.9012707722385142
0.9305962854349952
0.978494623655914
1.0498533724340176
1.1436950146627567
1.2551319648093842
1.380254154447703
1.5161290322580645
1.656891495601173
1.7956989247311828
1.9286412512218964
2.0518084066471163
2.163245356793744
2.251221896383187
2.32355816226784
2.3929618768328447
2.4545454545454546
2.505376344086021
2.5454545454545454
2.5747800586510263
2.5943304007820136
2.6041055718475072
2.6041055718475072
2.593352883675464
2.570869990224829
2.5434995112414467
2.5112414467253177
2.472140762463343
2.4281524926686218
2.380254154447703
2.333333333333333
2.289345063538612
2.2482893450635384
2.210166177908113
2.175953079178885
2.147605083088954
2.121212121212121
2.096774193548387
2.0762463343108504
2.056695992179863
2.0361681329423265
2.013685239491691
1.986314760508309
1.9550342130987293
1.921798631476051
1.8875855327468232
1.8494623655913975
1.8093841642228736
1.7683284457478006
1.7282502443792769
1.6950146627565983
1.664711632453568
1.6275659824046922
1.587487781036168
1.5454545454545454
1.5034213098729228
1.4613880742913
1.4213098729227762
1.3822091886608017
1.3421309872922775
1.303030303030303
1.2658846529814272
1.2375366568914956
1.2140762463343109
1.187683284457478
1.164222873900293
1.142717497556207
1.1231671554252198
1.1065493646138806
1.0909090909090908
1.0772238514173995
1.0664711632453567
1.06158357771261
1.0664711632453567
1.0850439882697946
1.1163245356793745
1.1622678396871946
1.23069403714565
1.3235581622678396
1.439882697947214
1.573802541544477
1.7204301075268815
1.8758553274682308
2.0361681329423265
2.1925708699902247
2.3421309872922778
2.479960899315738
2.5884652981427174
2.677419354838709
2.7673509286412514
2.850439882697948
2.9237536656891496
2.9853372434017595
3.034213098729228
3.072336265884653
3.099706744868035
3.114369501466276
3.117302052785924
3.10752688172043
3.0869990224828934
3.058651026392962
3.022482893450636
2.9804496578690127
2.9335288367546437
2.8807429130009776
2.8269794721407626
2.773216031280548
2.720430107526881
2.670576735092864
2.6265884652981426
2.5855327468230693
2.547409579667644
2.5131964809384164
2.482893450635386
2.452590420332356
2.420332355816227
2.3870967741935485
2.3528836754643208
2.3167155425219943
2.278592375366569
2.2385141739980448
2.1955034213098727
2.150537634408602
2.104594330400782
2.0576735092864125
2.01564027370479
1.9765395894428155
1.9345063538611929
1.89247311827957
1.8494623655913975
1.804496578690127
1.758553274682307
1.7135874877810362
1.667644183773216
1.6217008797653958
1.576735092864125
1.5327468230694037
1.4965786901270772
1.466275659824047
1.434017595307918
1.4027370478983383
1.3724340175953078
1.343108504398827
1.3147605083088951
1.2903225806451613
1.2697947214076246
1.2561094819159335
1.2531769305962854
1.2649071358748778
1.2942326490713587
1.335288367546432
1.391006842619746
1.469208211143695
1.5669599217986314
1.6793743890518085
1.801564027370479
1.9266862170087975
2.047898338220919
2.1622678396871944
2.2688172043010755
2.3655913978494625
2.449657869012708
2.5141739980449658
2.563049853372434
2.6080156402737047
2.643206256109482
2.668621700879765
2.6823069403714563
2.684261974584555
2.674486803519061
2.653958944281525
2.6236559139784945
2.5835777126099706
2.5386119257087
2.489736070381232
2.443792766373412
2.398826979472141
2.350928641251222
2.303030303030303
2.2561094819159337
2.2140762463343107
2.175953079178885
2.139784946236559
2.1055718475073317
2.072336265884653
2.0410557184750733
2.0117302052785924
1.9843597262952104
1.9560117302052784
1.921798631476051
1.8836754643206255
1.8406647116324533
1.793743890518084
1.7458455522971652
1.6979472140762464
1.6500488758553276
1.6011730205278591
1.5503421309872922
1.4965786901270772
1.4408602150537635
1.393939393939394
1.3509286412512218
1.3020527859237536
1.2512218963831867
1.2003910068426198
1.1515151515151516
1.1036168132942326
1.0586510263929618
1.0156402737047898
0.975562072336266
0.93841642228739
0.9032258064516128
0.8778103616813294
0.8572825024437928
0.8328445747800587
0.8074291300097751
0.7839687194525904
0.7663734115347018
0.7575757575757576
0.7624633431085044
0.7869012707722385
0.8328445747800587
0.9022482893450636
0.997067448680352
1.115347018572825
1.2346041055718475
1.3587487781036167
1.5024437927663734
1.6529814271749756
1.8025415444770283
1.946236559139785
2.0791788856304985
2.198435972629521
2.304007820136853
2.3949169110459434
2.4613880742913
2.5083088954056696
2.541544477028348
2.5640273704789838
2.5806451612903225
2.590420332355816
2.590420332355816
2.5806451612903225
2.5640273704789838
2.539589442815249
2.5083088954056696
2.4711632453567938
2.4301075268817205
2.388074291300098
2.345063538611926
2.30791788856305
2.2737047898338223
2.2404692082111435
2.212121212121212
2.188660801564027
2.1700879765395893
2.1544477028347995
2.1407624633431084
2.1280547409579667
2.113391984359726
2.096774193548387
2.081133919843597
2.067448680351906
2.0518084066471163
2.03128054740958
2.005865102639296
1.978494623655914
1.948191593352884
1.9149560117302051
1.8797653958944285
1.8416422287390029
1.8025415444770283
1.7624633431085044
1.7223851417399805
1.689149560117302
1.6588465298142718
1.624633431085044
1.5894428152492668
1.5532746823069403
1.5190615835777126
1.4868035190615836
1.456500488758553
1.4281524926686218
1.4027370478983383
1.380254154447703
1.3587487781036167
1.3411534701857282
1.332355816226784
1.3304007820136852
1.3333333333333333
1.346041055718475
1.3743890518084063
1.418377321603128
1.479960899315738
1.5591397849462365
1.653958944281525
1.7624633431085044
1.8797653958944285
2.0019550342130987
2.10850439882698
2.2023460410557183
2.3010752688172045
2.396871945259042
2.484848484848485
2.5640273704789838
2.632453567937439
2.6901270772238512
2.736070381231672
2.771260997067449
2.7947214076246336
2.806451612903226
2.807429130009776
2.7976539589442817
2.779081133919844
2.7536656891495603
2.7223851417399803
2.6852394916911044
2.643206256109482
2.598240469208211
2.5513196480938416
2.50733137829912
2.466275659824047
2.4281524926686218
2.391006842619746
2.358748778103617
2.333333333333333
2.30791788856305
2.283479960899316
2.260019550342131
2.2375366568914954
2.21505376344086
2.193548387096774
2.1730205278592374
2.1515151515151514
2.1270772238514173
2.099706744868035
2.070381231671554
2.042033235581622
2.0127077223851417
1.9794721407624636
1.945259042033236
1.9100684261974583
1.8748778103616808
1.8406647116324533
1.804496578690127
1.7673509286412512
1.7302052785923754
1.6930596285434996
1.6578690127077225
1.629521016617791
1.606060606060606
1.581622678396872
1.5581622678396871
1.5386119257087
1.5268817204301075
1.5268817204301075
1.541544477028348
1.5698924731182795
1.611925708699902
1.6686217008797657
1.7360703812316716
1.8132942326490715
1.8866080156402736
1.9589442815249267
2.0410557184750733
2.126099706744868
2.207233626588465
2.2854349951124147
2.357771260997068
2.423264907135875
2.4809384164222874
2.529814271749756
2.570869990224829
2.6041055718475072
2.627565982404692
2.6422287390029324
2.6529814271749754
2.6578690127077222
2.654936461388074
2.644183773216031
2.624633431085044
2.598240469208211
2.565982404692082
2.529814271749756
2.4916911045943304
2.4545454545454546
2.418377321603128
2.3851417399804498
2.3548387096774195
2.326490713587488
2.3010752688172045
2.275659824046921
2.2521994134897363
2.2297165200391005
2.209188660801564
2.188660801564027
2.1681329423264906
2.147605083088954
2.1251221896383186
2.102639296187683
2.081133919843597
2.0547409579667644
2.0254154447702835
1.994134897360704
1.959921798631476
1.9227761485826005
1.8836754643206255
1.8435972629521016
1.8025415444770283
1.7605083088954057
1.718475073313783
1.675464320625611
1.6392961876832846
1.6080156402737047
1.5728250244379276
1.5347018572825024
1.4965786901270772
1.4594330400782014
1.4222873900293256
1.3861192570869991
1.3509286412512218
1.3088954056695992
1.2717497556207231
1.2453567937438903
1.2228739002932552
1.2023460410557183
1.1759530791788857
1.147605083088954
1.1192570869990224
1.0948191593352885
1.0801564027370478
1.0762463343108504
1.0879765395894427
1.1173020527859236
1.166177908113392
1.2346041055718475
1.3206256109481915
1.4076246334310851
1.499511241446725
1.608993157380254
1.729227761485826
1.8533724340175952
1.9765395894428155
2.0957966764418376
2.2082111436950145
2.310850439882698
2.403714565004888
2.486803519061584
2.558162267839687
2.611925708699902
2.6529814271749754
2.6911045943304006
2.7223851417399803
2.744868035190616
2.757575757575758
2.757575757575758
2.744868035190616
2.7223851417399803
2.6911045943304006
2.6529814271749754
2.608993157380254
2.563049853372434
2.520039100684262
2.4789833822091887
2.4359726295210167
2.3929618768328447
2.3519061583577714
2.315738025415445
2.281524926686217
2.249266862170088
2.218963831867057
2.189638318670577
2.160312805474096
2.131964809384164
2.1065493646138806
2.083088954056696
2.0557184750733137
2.024437927663734
1.989247311827957
1.9530791788856303
1.913978494623656
1.8729227761485825
1.8318670576735088
1.7898338220918866
1.7448680351906158
1.7008797653958945
1.6559139784946235
1.6187683284457477
1.5884652981427174
1.5562072336265884
1.5239491691104594
1.490713587487781
1.456500488758553
1.423264907135875
1.3900293255131966
1.3577712609970674
1.3264907135874875
1.2971652003910068
1.2697947214076246
1.2512218963831867
1.238514173998045
1.2258064516129032
1.2179863147605083
1.219941348973607
1.2355816226783969
1.267839687194526
1.3186705767350928
1.391006842619746
1.4838709677419355
1.5933528836754642
1.7174975562072337
1.8347996089931573
1.949169110459433
2.078201368523949
2.2111436950146626
2.337243401759531
2.4516129032258065
2.5532746823069403
2.638318670576735
2.708699902248289
2.7653958944281527
2.8084066471163247
2.838709677419355
2.854349951124145
2.8582600195503423
2.8514173998044967
2.8367546432062563
2.812316715542522
2.7781036168132944
2.736070381231672
2.686217008797654
2.631476050830889
2.573802541544477
2.517106549364614
2.464320625610948
2.41544477028348
2.372434017595308
2.335288367546432
2.2991202346041058
2.264907135874878
2.233626588465298
2.207233626588465
2.182795698924731
2.160312805474096
2.1378299120234603
2.114369501466276
2.088954056695992
2.0625610948191597
2.034213098729228
2.0009775171065494
1.9726295210166176
1.949169110459433
1.9188660801564028
1.8758553274682308
1.836754643206256
1.8074291300097751
1.7741935483870968
1.7380254154447703
1.699902248289345
1.6588465298142718
1.6148582600195502
1.5679374389051808
1.530791788856305
1.500488758553275
1.4643206256109482
1.4271749755620724
1.388074291300098
1.348973607038123
1.3118279569892473
1.2756598240469208
1.241446725317693
1.2121212121212122
1.1906158357771262
1.181818181818182
1.1886608015640274
1.2140762463343109
1.2609970674486803
1.3313782991202343
1.4271749755620724
1.5464320625610948
1.6842619745845553
1.8347996089931573
1.992179863147605
2.1524926686217007
2.310850439882698
2.463343108504399
2.587487781036168
2.6940371456500487
2.806451612903226
2.913978494623656
3.0127077223851417
3.101661779081134
3.1808406647116323
3.247311827956989
3.300097751710655
3.3411534701857284
3.3704789833822093
3.389051808406647
3.3949169110459434
3.386119257086999
3.364613880742913
3.332355816226784
3.29227761485826
3.24633431085044
3.196480938416422
3.146627565982405
3.0957966764418376
3.048875855327468
3.006842619745845
2.9687194525904204
2.9257086999022484
2.887585532746823
2.860215053763441
2.8289345063538613
2.791788856304985
2.7517106549364616
2.708699902248289
2.66177908113392
2.610948191593353
2.5562072336265884
2.5004887585532747
2.442815249266862
2.383186705767351
2.324535679374389
2.274682306940372
2.21505376344086
2.157380254154448
2.1163245356793743
2.070381231671554
2.0234604105571847
1.9765395894428155
1.9305962854349952
1.884652981427175
1.8387096774193548
1.7927663734115349
1.747800586510264
1.7116324535679377
1.6793743890518085
1.6441837732160314
1.608993157380254
1.576735092864125
1.5405669599217986
1.5102639296187683
1.4916911045943304
1.47702834799609
1.4731182795698925
1.4868035190615836
1.5190615835777126
1.5708699902248289
1.632453567937439
1.7067448680351909
1.8035190615835777
1.9149560117302051
2.0684261974584555
2.2111436950146626
2.312805474095797
2.447702834799609
2.591397849462365
2.686217008797654
2.7517106549364616
2.8181818181818183
2.868035190615836
2.906158357771261
2.9423264907135875
2.970674486803519
2.988269794721408
2.995112414467253
2.991202346041056
2.9765395894428157
2.951124144672532
2.9159335288367547
2.870967741935484
2.806451612903226
2.736070381231672
2.69208211143695
2.6559139784946235
2.601173020527859
2.5405669599217986
2.4916911045943304
2.4594330400782014
2.429130009775171
2.3929618768328447
2.3685239491691106
2.343108504398827
2.3098729227761488
2.280547409579668
2.26197458455523
2.2346041055718477
2.1945259042033234
2.155425219941349
2.113391984359726
2.070381231671554
2.024437927663734
1.989247311827957
1.946236559139785
1.8856304985337244
1.8269794721407624
1.7712609970674489
1.726295210166178
1.6871945259042034
1.643206256109482
1.598240469208211
1.552297165200391
1.5063538611925709
1.4643206256109482
1.4271749755620724
1.3919843597262953
1.3587487781036167
1.327468230694037
1.2971652003910068
1.2766373411534702
1.262952101661779
1.2482893450635386
1.2355816226783969
1.2316715542521994
1.241446725317693
1.2658846529814272
1.3079178885630498
1.3479960899315735
1.418377321603128
