ppg
1.0957966764418376
1.0918866080156402
1.088954056695992
1.0742913000977516
1.0557184750733135
1.0449657869012707
1.0420332355816226
1.0439882697947214
1.0469208211143697
1.0488758553274682
1.0498533724340176
1.050830889540567
1.050830889540567
1.050830889540567
1.050830889540567
1.0527859237536656
1.0606060606060606
1.078201368523949
1.1094819159335287
1.1505376344086022
1.206256109481916
1.2864125122189638
1.3890518084066472
1.5102639296187683
1.64613880742913
1.790811339198436
1.9364613880742916
2.0762463343108504
2.207233626588465
2.324535679374389
2.4271749755620724
2.5034213098729228
2.5610948191593352
2.616813294232649
2.6666666666666665
2.70772238514174
2.7390029325513194
2.7595307917888565
2.768328445747801
2.7653958944281527
2.750733137829912
2.7223851417399803
2.681329423264907
2.6295210166177907
2.573802541544477
2.5141739980449658
2.4457478005865103
2.3734115347018574
2.302052785923754
2.2355816226783967
2.176930596285435
2.126099706744868
2.083088954056696
2.0449657869012707
2.0127077223851417
1.9833822091886608
1.9579667644183771
1.9335288367546437
1.906158357771261
1.87683284457478
1.844574780058651
1.8093841642228736
1.772238514173998
1.732160312805474
1.6920821114369502
1.6529814271749756
1.6148582600195502
1.5777126099706744
1.543499511241447
1.5161290322580645
1.4926686217008798
1.466275659824047
1.4408602150537635
1.4164222873900294
1.3919843597262953
1.3685239491691104
1.346041055718475
1.3255131964809383
1.3040078201368523
1.284457478005865
1.2658846529814272
1.2512218963831867
1.2394916911045943
1.2258064516129032
1.2121212121212122
1.1974584555229717
1.1827956989247312
1.1671554252199414
1.152492668621701
1.1378299120234605
1.1241446725317692
1.110459433040078
1.096774193548387
1.083088954056696
1.0733137829912025
1.0654936461388074
1.0557184750733135
1.0469208211143697
1.0381231671554252
1.029325513196481
1.021505376344086
1.0146627565982405
1.007820136852395
1.0
0.9931573802541545
0.9863147605083088
0.9833822091886608
0.9833822091886608
0.9824046920821116
0.9804496578690128
0.9775171065493646
0.9745845552297164
0.9716520039100685
0.9687194525904204
0.9657869012707724
0.9628543499511242
0.9608993157380256
0.959921798631476
0.959921798631476
0.9638318670576737
0.9696969696969696
0.9736070381231672
0.975562072336266
0.9765395894428152
0.975562072336266
0.9736070381231672
0.9726295210166178
0.9765395894428152
0.9872922776148584
1.0087976539589445
1.0469208211143697
1.0957966764418376
1.160312805474096
1.2531769305962854
1.370478983382209
1.5083088954056696
1.6608015640273706
1.8191593352883677
1.978494623655914
2.132942326490713
2.275659824046921
2.403714565004888
2.5161290322580645
2.6129032258064515
2.6832844574780057
2.7370478983382207
2.790811339198436
2.838709677419355
2.877810361681329
2.90811339198436
2.9286412512218964
2.9393939393939394
2.9374389051808407
2.9227761485826003
2.897360703812317
2.860215053763441
2.814271749755621
2.7624633431085046
2.702834799608993
2.636363636363636
2.565982404692082
2.496578690127077
2.43108504398827
2.3704789833822093
2.317693059628544
2.271749755620724
2.231671554252199
2.196480938416422
2.167155425219941
2.1378299120234603
2.1065493646138806
2.074291300097752
2.0391006842619745
2.0009775171065494
1.962854349951124
1.9237536656891496
1.8836754643206255
1.8435972629521016
1.8054740957966764
1.76930596285435
1.7350928641251222
1.7057673509286413
1.678396871945259
1.6490713587487782
1.619745845552297
1.590420332355816
1.5610948191593352
1.533724340175953
1.5083088954056696
1.4838709677419355
1.4604105571847508
1.436950146627566
1.4164222873900294
1.4007820136852396
1.3870967741935485
1.3714565004887584
1.3548387096774193
1.33822091886608
1.321603128054741
1.3049853372434017
1.2873900293255132
1.2697947214076246
1.2531769305962854
1.2375366568914956
1.2218963831867058
1.206256109481916
1.195503421309873
1.1857282502443791
1.173998044965787
1.1612903225806452
1.1505376344086022
1.1407624633431086
1.1319648093841643
1.1231671554252198
1.1143695014662756
1.1065493646138806
1.099706744868035
1.0928641251221896
1.0899315738025417
1.0879765395894427
1.0840664711632453
1.0791788856304985
1.0742913000977516
1.0684261974584557
1.0635386119257086
1.0596285434995112
1.0557184750733135
1.053763440860215
1.0527859237536656
1.0518084066471165
1.050830889540567
1.050830889540567
1.0518084066471165
1.0518084066471165
1.050830889540567
1.0498533724340176
1.050830889540567
1.050830889540567
1.050830889540567
1.050830889540567
1.050830889540567
1.050830889540567
1.0527859237536656
1.0606060606060606
1.078201368523949
1.1094819159335287
1.1573802541544478
1.2267839687194526
1.321603128054741
1.439882697947214
1.5777126099706744
1.7302052785923754
1.8905180840664717
2.050830889540567
2.204301075268817
2.345063538611926
2.4545454545454546
2.5425219941348973
2.6295210166177907
2.719452590420332
2.8054740957966766
2.8719452590420333
2.9237536656891496
2.964809384164223
2.9960899315738025
3.016617790811339
3.027370478983382
3.027370478983382
3.0146627565982405
2.991202346041056
2.9579667644183774
2.913978494623656
2.857282502443793
2.790811339198436
2.719452590420332
2.64613880742913
2.573802541544477
2.50733137829912
2.447702834799609
2.393939393939394
2.347018572825025
2.30791788856305
2.272727272727273
2.2385141739980448
2.2052785923753664
2.1710654936461387
2.1358748778103616
2.1006842619745845
2.064516129032258
2.027370478983382
1.988269794721408
1.948191593352884
1.9071358748778104
1.870967741935484
1.8387096774193548
1.8054740957966764
1.772238514173998
1.739980449657869
1.7086999022482894
1.678396871945259
1.6500488758553276
1.6226783968719452
1.5962854349951123
1.5698924731182795
1.5454545454545454
1.521016617790811
1.500488758553275
1.482893450635386
1.4633431085043989
1.444770283479961
1.4252199413489737
1.404692082111437
1.3851417399804498
1.3665689149560116
1.3479960899315735
1.3304007820136852
1.3118279569892473
1.2932551319648091
1.2795698924731185
1.2688172043010753
1.2551319648093842
1.241446725317693
1.2267839687194526
1.2121212121212122
1.1994134897360704
1.187683284457478
1.1759530791788857
1.1652003910068427
1.1544477028347997
1.144672531769306
1.1368523949169111
1.1329423264907137
1.130987292277615
1.1270772238514175
1.1221896383186705
1.1163245356793745
1.110459433040078
1.104594330400782
1.0987292277614855
1.0948191593352885
1.0918866080156402
1.0909090909090908
1.0918866080156402
1.093841642228739
1.0948191593352885
1.0928641251221896
1.0899315738025417
1.0869990224828934
1.0840664711632453
1.0801564027370478
1.0762463343108504
1.0733137829912025
1.0713587487781036
1.0703812316715542
1.0694037145650048
1.0694037145650048
1.072336265884653
1.0772238514173995
1.0821114369501466
1.088954056695992
1.104594330400782
1.133919843597263
1.1827956989247312
1.2551319648093842
1.3509286412512218
1.4672531769305963
1.6021505376344083
1.7487781036168133
1.878787878787879
2.0
2.131964809384164
2.26197458455523
2.3822091886608017
2.4887585532746823
2.579667644183773
2.654936461388074
2.717497556207233
2.768328445747801
2.806451612903226
2.832844574780059
2.844574780058651
2.844574780058651
2.8377321603128056
2.8211143695014664
2.792766373411535
2.7517106549364616
2.699902248289345
2.6392961876832843
2.572825024437928
2.5024437927663734
2.432062561094819
2.363636363636364
2.300097751710655
2.24633431085044
2.19941348973607
2.155425219941349
2.115347018572825
2.078201368523949
2.0439882697947214
2.010752688172043
1.978494623655914
1.945259042033236
1.911045943304008
1.8748778103616808
1.835777126099707
1.7996089931573802
1.7644183773216031
1.726295210166178
1.6871945259042034
1.6500488758553276
1.6129032258064515
1.576735092864125
1.542521994134897
1.509286412512219
1.478005865102639
1.4467253176930597
1.4173998044965788
1.3900293255131966
1.3695014662756595
1.3509286412512218
1.3304007820136852
1.310850439882698
1.2932551319648091
1.2766373411534702
1.2609970674486803
1.2453567937438903
1.2316715542521994
1.2209188660801564
1.2111436950146628
1.2013685239491692
1.195503421309873
1.1915933528836755
1.1867057673509287
1.1798631476050832
1.1720430107526882
1.163245356793744
1.1534701857282503
1.142717497556207
1.130987292277615
1.1202346041055715
1.1094819159335287
1.0987292277614855
1.088954056695992
1.083088954056696
1.0791788856304985
1.0733137829912025
1.0664711632453567
1.0606060606060606
1.053763440860215
1.0469208211143697
1.0410557184750733
1.0342130987292275
1.0263929618768328
1.018572825024438
1.010752688172043
1.0068426197458455
1.0048875855327468
1.0019550342130987
0.9990224828934506
0.9960899315738024
0.9941348973607038
0.9931573802541545
0.9912023460410556
0.989247311827957
0.9872922776148584
0.9853372434017597
0.981427174975562
0.9765395894428152
0.975562072336266
0.9775171065493646
0.978494623655914
0.9794721407624634
0.9843597262952102
0.9990224828934506
1.0283479960899315
1.0772238514173995
1.1495601173020529
1.24633431085044
1.367546432062561
1.509286412512219
1.6441837732160314
1.7771260997067448
1.9286412512218964
2.083088954056696
2.23069403714565
2.367546432062561
2.4887585532746823
2.595307917888563
2.6881720430107525
2.7673509286412514
2.835777126099707
2.89345063538612
2.940371456500489
2.9696969696969697
2.9872922776148583
3.0009775171065494
3.005865102639296
3.0009775171065494
2.98435972629521
2.9530791788856305
2.90811339198436
2.8514173998044967
2.78494623655914
2.710654936461388
2.634408602150537
2.5650048875855327
2.5034213098729228
2.443792766373412
2.389051808406647
2.3421309872922778
2.3010752688172045
2.264907135874878
2.232649071358749
2.2023460410557183
2.1700879765395893
2.1358748778103616
2.1006842619745845
2.064516129032258
2.0303030303030303
1.997067448680352
1.9608993157380252
1.9227761485826005
1.884652981427175
1.8465298142717497
1.8084066471163245
1.7712609970674489
1.7360703812316716
1.7018572825024438
1.6695992179863148
1.6373411534701858
1.6099706744868034
1.585532746823069
1.5591397849462365
1.530791788856305
1.5034213098729228
1.47702834799609
1.4516129032258065
1.4271749755620724
1.404692082111437
1.3841642228739004
1.364613880742913
1.346041055718475
1.3284457478005864
1.3147605083088951
1.303030303030303
1.2903225806451613
1.2766373411534702
1.262952101661779
1.249266862170088
1.2346041055718475
1.2209188660801564
1.2101661779081134
1.2003910068426198
1.1915933528836755
1.1827956989247312
1.176930596285435
1.1730205278592376
1.166177908113392
1.1583577712609971
1.1495601173020529
1.1397849462365592
1.1300097751710656
1.121212121212121
1.1133919843597262
1.1055718475073313
1.0977517106549364
1.0899315738025417
1.083088954056696
1.0791788856304985
1.0772238514173995
1.0742913000977516
1.0713587487781036
1.0684261974584557
1.0654936461388074
1.0635386119257086
1.06158357771261
1.0586510263929618
1.0557184750733135
1.0527859237536656
1.050830889540567
1.050830889540567
1.053763440860215
1.0557184750733135
1.0576735092864125
1.0606060606060606
1.0654936461388074
1.075268817204301
1.0909090909090908
1.1192570869990224
1.164222873900293
1.2297165200391007
1.3186705767350928
1.4301075268817205
1.541544477028348
1.656891495601173
1.7947214076246334
1.943304007820137
2.09188660801564
2.233626588465298
2.3626588465298144
2.47702834799609
2.576735092864125
2.6637341153470184
2.7370478983382207
2.798631476050831
2.841642228739003
2.8729227761485827
2.903225806451613
2.9286412512218964
2.945259042033236
2.952101661779081
2.948191593352884
2.9315738025415445
2.902248289345064
2.859237536656892
2.8044965786901277
2.7390029325513194
2.6725317693059627
2.6070381231671558
2.5376344086021505
2.469208211143695
2.404692082111437
2.347996089931574
2.2991202346041058
2.257086999022483
2.220918866080156
2.189638318670577
2.160312805474096
2.1300097751710654
2.0987292277614857
2.069403714565005
2.0391006842619745
2.004887585532747
1.967741935483871
1.9286412512218964
1.889540566959922
1.8504398826979471
1.812316715542522
1.775171065493646
1.7390029325513197
1.7038123167155426
1.6705767350928642
1.643206256109482
1.6187683284457477
1.5943304007820136
1.5708699902248289
1.547409579667644
1.5239491691104594
1.501466275659824
1.478983382209189
1.455522971652004
1.4330400782013686
1.409579667644184
1.3870967741935485
1.3665689149560116
1.348973607038123
1.335288367546432
1.3196480938416422
1.3040078201368523
1.289345063538612
1.2746823069403714
1.260019550342131
1.24633431085044
1.2316715542521994
1.2179863147605083
1.2052785923753666
1.1935483870967742
1.1857282502443791
1.1798631476050832
1.1710654936461389
1.160312805474096
1.1495601173020529
1.13880742913001
1.1290322580645162
1.121212121212121
1.1163245356793745
1.1124144672531768
1.1085043988269794
1.1036168132942326
1.0987292277614855
1.0977517106549364
1.0987292277614855
1.0977517106549364
1.0957966764418376
1.093841642228739
1.0909090909090908
1.0879765395894427
1.0850439882697946
1.0801564027370478
1.0742913000977516
1.0684261974584557
1.0635386119257086
1.0625610948191593
1.0635386119257086
1.064516129032258
1.0664711632453567
1.0684261974584557
1.0694037145650048
1.0694037145650048
1.0694037145650048
1.0703812316715542
1.072336265884653
1.0772238514173995
1.088954056695992
1.110459433040078
1.1407624633431086
1.1837732160312806
1.249266862170088
1.3362658846529814
1.4437927663734116
1.5698924731182795
1.7086999022482894
1.8543499511241448
2.0009775171065494
2.1417399804496577
2.271749755620724
2.3870967741935485
2.474095796676442
2.541544477028348
2.606060606060606
2.665689149560117
2.716520039100684
2.758553274682307
2.790811339198436
2.814271749755621
2.8289345063538613
2.832844574780059
2.825024437927664
2.8054740957966766
2.773216031280548
2.732160312805474
2.684261974584555
2.6265884652981426
2.5610948191593352
2.4916911045943304
2.423264907135875
2.357771260997068
2.2981427174975564
2.2453567937438903
2.19941348973607
2.160312805474096
2.126099706744868
2.096774193548387
2.0684261974584555
2.037145650048876
2.004887585532747
1.970674486803519
1.935483870967742
1.8983382209188664
1.8602150537634408
1.822091886608016
1.7839687194525904
1.7458455522971652
1.7086999022482894
1.6715542521994136
1.640273704789834
1.611925708699902
1.581622678396872
1.552297165200391
1.5239491691104594
1.495601173020528
1.4682306940371457
1.4418377321603129
1.4164222873900294
1.3919843597262953
1.3685239491691104
1.3450635386119256
1.3264907135874875
1.310850439882698
1.2932551319648091
1.2746823069403714
1.2482893450635386
1.2160312805474096
1.1906158357771262
1.1700879765395895
1.152492668621701
1.1358748778103618
1.121212121212121
1.1065493646138806
1.0928641251221896
1.0840664711632453
1.002932551319648
1.0019550342130987
1.0
0.9980449657869012
0.9951124144672532
0.9921798631476052
0.989247311827957
0.9872922776148584
0.9863147605083088
0.9902248289345064
1.0009775171065494
1.0195503421309873
1.0488758553274682
1.093841642228739
1.1612903225806452
1.252199413489736
1.3665689149560116
1.500488758553275
1.6490713587487782
1.804496578690127
1.9608993157380252
2.110459433040078
2.249266862170088
2.3734115347018574
2.4682306940371457
2.5425219941348973
2.6158357771261
2.681329423264907
2.7390029325513194
2.7869012707722387
2.825024437927664
2.8533724340175954
2.8719452590420333
2.8797653958944283
2.875855327468231
2.859237536656892
2.833822091886608
2.798631476050831
2.7536656891495603
2.697947214076246
2.634408602150537
2.565982404692082
2.495601173020528
2.4271749755620724
2.364613880742913
2.3088954056695994
2.260019550342131
2.217986314760508
2.182795698924731
2.150537634408602
2.118279569892473
2.0869990224828934
2.0557184750733137
2.021505376344086
1.9843597262952104
1.9472140762463344
1.9090909090909087
1.8699902248289344
1.83088954056696
1.7917888563049853
1.75366568914956
1.721407624633431
1.6911045943304008
1.6588465298142718
1.6265884652981428
1.5943304007820136
1.564027370478983
1.5347018572825024
1.5073313782991202
1.4809384164222874
1.456500488758553
1.4330400782013686
1.4105571847507332
1.392961876832845
1.3773216031280548
1.3607038123167154
1.343108504398827
1.324535679374389
1.305962854349951
1.2873900293255132
1.2697947214076246
1.252199413489736
1.2355816226783969
1.2179863147605083
1.2013685239491692
1.1857282502443791
1.173998044965787
1.166177908113392
1.155425219941349
1.1436950146627567
1.1319648093841643
1.1202346041055715
1.1085043988269794
1.099706744868035
1.0918866080156402
1.0850439882697946
1.0772238514173995
1.0703812316715542
1.0684261974584557
1.067448680351906
1.064516129032258
1.0596285434995112
1.0547409579667644
1.050830889540567
1.0469208211143697
1.0439882697947214
1.040078201368524
1.0371456500488758
1.0342130987292275
1.029325513196481
1.0234604105571847
1.0205278592375366
1.0195503421309873
1.0175953079178883
1.0156402737047898
1.0127077223851415
1.010752688172043
1.010752688172043
1.0117302052785924
1.013685239491691
1.0175953079178883
1.0224828934506354
1.029325513196481
1.0410557184750733
1.0596285434995112
1.0899315738025417
1.1378299120234605
1.2082111436950147
1.303030303030303
1.4222873900293256
1.5610948191593352
1.7165200391006843
1.8797653958944285
2.0439882697947214
2.2023460410557183
2.350928641251222
2.4672531769305963
2.5620723362658846
2.6559139784946235
2.742913000977517
2.820136852394917
2.887585532746823
2.9442815249266863
2.991202346041056
3.029325513196481
3.058651026392962
3.0791788856304985
3.0879765395894427
3.081133919843597
3.06158357771261
3.03128054740958
2.989247311827957
2.935483870967742
2.870967741935484
2.798631476050831
2.7233626588465296
2.6480938416422286
2.5747800586510263
2.506353861192571
2.443792766373412
2.389051808406647
2.343108504398827
2.303030303030303
2.264907135874878
2.2297165200391005
2.196480938416422
2.1622678396871944
2.1270772238514173
2.089931573802541
2.050830889540567
2.0097751710654936
1.9667644183773216
1.921798631476051
1.8807429130009776
1.842619745845552
1.8005865102639296
1.758553274682307
1.718475073313783
1.6813294232649072
1.6471163245356797
1.6138807429130009
1.5835777126099706
1.5542521994134897
1.5239491691104594
1.4936461388074291
1.4652981427174976
1.4437927663734116
1.4252199413489737
1.404692082111437
1.3841642228739004
1.364613880742913
1.3440860215053765
1.321603128054741
1.2981427174975562
1.2727272727272727
1.24633431085044
1.219941348973607
1.1935483870967742
1.173998044965787
1.1573802541544478
1.1368523949169111
1.115347018572825
1.0957966764418376
1.078201368523949
1.0625610948191593
1.0478983382209188
1.035190615835777
1.024437927663734
1.0146627565982405
1.0048875855327468
0.9951124144672532
0.9902248289345064
0.9872922776148584
0.9833822091886608
0.978494623655914
0.9736070381231672
0.9696969696969696
0.9657869012707724
0.9638318670576737
0.9628543499511242
0.9618768328445748
0.9716520039100685
0.9863147605083088
0.9960899315738024
1.0039100684261977
1.007820136852395
1.010752688172043
1.0146627565982405
1.018572825024438
1.024437927663734
1.0312805474095796
1.0391006842619743
1.0469208211143697
1.0557184750733135
1.0654936461388074
1.075268817204301
1.0869990224828934
1.1006842619745845
1.1163245356793745
1.1397849462365592
1.1759530791788857
1.227761485826002
1.300097751710655
1.393939393939394
1.5083088954056696
1.6392961876832846
1.782991202346041
1.9315738025415443
2.059628543499511
2.1739980449657867
2.2952101661779083
2.410557184750733
2.515151515151515
2.6050830889540566
2.6803519061583576
2.740957966764418
2.790811339198436
2.8289345063538613
2.857282502443793
2.874877810361681
2.8797653958944283
2.874877810361681
2.8641251221896384
2.843597262952102
2.811339198435973
2.7673509286412514
2.713587487781036
2.652003910068426
2.5855327468230693
2.517106549364614
2.4486803519061584
2.3851417399804498
2.329423264907136
2.283479960899316
2.244379276637341
2.2082111436950145
2.176930596285435
2.147605083088954
2.118279569892473
2.088954056695992
2.059628543499511
2.0283479960899315
1.994134897360704
1.9579667644183771
1.919843597262952
1.884652981427175
1.8523949169110456
1.8172043010752688
1.7810361681329423
1.7458455522971652
1.7116324535679377
1.6774193548387095
1.6441837732160314
1.6129032258064515
1.5826001955034212
1.5542521994134897
1.5268817204301075
1.500488758553275
1.478983382209189
1.4604105571847508
1.4408602150537635
1.4213098729227762
1.401759530791789
1.383186705767351
1.3655913978494625
1.3499511241446724
1.3343108504398826
1.3196480938416422
1.3049853372434017
1.2903225806451613
1.2805474095796676
1.2727272727272727
1.2619745845552297
1.249266862170088
1.2355816226783969
1.2218963831867058
1.209188660801564
1.1974584555229717
1.1857282502443791
1.173998044965787
1.1622678396871946
1.1515151515151516
1.1397849462365592
1.130987292277615
1.1231671554252198
1.1124144672531768
1.1026392961876832
1.0928641251221896
1.0840664711632453
1.075268817204301
1.0664711632453567
1.0576735092864125
1.0488758553274682
1.0410557184750733
1.032258064516129
1.0263929618768328
1.021505376344086
1.013685239491691
1.0048875855327468
0.997067448680352
0.9902248289345064
0.9843597262952102
0.981427174975562
0.9794721407624634
0.9794721407624634
0.9804496578690128
0.9824046920821116
0.9853372434017597
0.9921798631476052
1.0009775171065494
1.0117302052785924
1.0303030303030305
1.0625610948191593
1.1133919843597262
1.1857282502443791
1.281524926686217
1.3978494623655917
1.5317693059628543
1.6774193548387095
1.8299120234604105
1.9618768328445748
2.078201368523949
2.20039100684262
2.317693059628544
2.426197458455523
2.52297165200391
2.606060606060606
2.67644183773216
2.7341153470185726
2.7810361681329425
2.8181818181818183
2.8455522971652005
2.8641251221896384
2.868035190615836
2.8611925708699903
2.8475073313782997
2.825024437927664
2.790811339198436
2.745845552297165
2.6901270772238512
2.627565982404692
2.560117302052786
2.4916911045943304
2.4252199413489737
2.361681329423265
2.3069403714565007
2.259042033235582
2.2140762463343107
2.1739980449657867
2.1388074291300097
2.1065493646138806
2.075268817204301
2.0439882697947214
2.0117302052785924
1.9775171065493649
1.9423264907135875
1.906158357771261
1.869012707722385
1.836754643206256
1.8074291300097751
1.775171065493646
1.7409579667644184
1.70772238514174
1.6744868035190617
1.643206256109482
1.611925708699902
1.581622678396872
1.552297165200391
1.5239491691104594
1.4965786901270772
1.4750733137829912
1.457478005865103
1.4379276637341154
1.418377321603128
1.3988269794721409
1.380254154447703
1.3626588465298142
1.3450635386119256
1.327468230694037
1.310850439882698
1.295210166177908
1.2795698924731185
1.2649071358748778
1.2541544477028348
1.2443792766373412
1.23069403714565
1.2160312805474096
1.2013685239491692
1.1867057673509287
1.1730205278592376
1.1583577712609971
1.144672531769306
1.1329423264907137
1.1221896383186705
1.1133919843597262
1.110459433040078
1.1094819159335287
1.10752688172043
1.104594330400782
1.1016617790811338
1.0987292277614855
1.093841642228739
1.0869990224828934
1.0801564027370478
1.0762463343108504
1.072336265884653
1.0694037145650048
1.0664711632453567
1.0654936461388074
1.0654936461388074
1.0625610948191593
1.0596285434995112
1.056695992179863
1.053763440860215
1.0518084066471165
1.0488758553274682
1.0469208211143697
1.0449657869012707
1.043010752688172
1.040078201368524
1.040078201368524
1.0420332355816226
1.043010752688172
1.0469208211143697
1.056695992179863
1.0742913000977516
1.1055718475073313
1.155425219941349
1.227761485826002
