ppg
1.1564027370478984
1.1368523949169111
1.118279569892473
1.1006842619745845
1.0840664711632453
1.0703812316715542
1.0586510263929618
1.0478983382209188
1.0420332355816226
1.0391006842619743
1.0332355816226784
1.0263929618768328
1.0195503421309873
1.013685239491691
1.0097751710654936
1.0058651026392962
1.0019550342130987
0.9990224828934506
0.9951124144672532
0.9921798631476052
0.9921798631476052
0.9941348973607038
0.9931573802541545
0.9912023460410556
0.9882697947214076
0.9843597262952102
0.978494623655914
0.9706744868035192
0.9638318670576737
0.9628543499511242
0.975562072336266
1.0097751710654936
1.0742913000977516
1.1544477028347997
1.2570869990224829
1.401759530791789
1.576735092864125
1.7683284457478006
1.9657869012707725
2.156402737047898
2.3313782991202348
2.4838709677419355
2.6099706744868034
2.710654936461388
2.78494623655914
2.8289345063538613
2.8514173998044967
2.8641251221896384
2.863147605083089
2.8563049853372435
2.8455522971652005
2.8269794721407626
2.801564027370479
2.768328445747801
2.727272727272727
2.677419354838709
2.6177908113391983
2.548387096774193
2.4789833822091887
2.406647116324536
2.321603128054741
2.225806451612903
2.124144672531769
2.0205278592375366
1.9188660801564028
1.8211143695014664
1.7302052785923754
1.6480938416422288
1.576735092864125
1.5151515151515151
1.4701857282502444
1.436950146627566
1.4076246334310851
1.3841642228739004
1.3655913978494625
1.3509286412512218
1.3391984359726294
1.3294232649071358
1.3196480938416422
1.310850439882698
1.3020527859237536
1.2932551319648091
1.284457478005865
1.278592375366569
1.2727272727272727
1.2639296187683284
1.2551319648093842
1.2453567937438903
1.2336265884652982
1.219941348973607
1.2052785923753666
1.1896383186705768
1.173998044965787
1.160312805474096
1.1466275659824048
1.1378299120234605
1.130987292277615
1.121212121212121
1.1094819159335287
1.096774193548387
1.0547409579667644
1.0596285434995112
1.078201368523949
1.1173020527859236
1.1827956989247312
1.2825024437927663
1.4164222873900294
1.5542521994134897
1.7008797653958945
1.8778103616813293
2.065493646138808
2.249266862170088
2.418377321603128
2.5650048875855327
2.6852394916911044
2.779081133919844
2.8484848484848486
2.8963831867057674
2.9257086999022484
2.940371456500489
2.940371456500489
2.927663734115347
2.90811339198436
2.8826979472140764
2.849462365591398
2.809384164222874
2.7624633431085046
2.708699902248289
2.6480938416422286
2.5806451612903225
2.5034213098729228
2.418377321603128
2.3362658846529816
2.2561094819159337
2.1652003910068425
2.070381231671554
1.975562072336266
1.884652981427175
1.7996089931573802
1.7223851417399805
1.653958944281525
1.595307917888563
1.5464320625610948
1.5063538611925709
1.4731182795698925
1.4496578690127078
1.4320625610948192
1.414467253176931
1.3998044965786902
1.3870967741935485
1.3763440860215057
1.364613880742913
1.3558162267839686
1.3499511241446724
1.343108504398827
1.335288367546432
1.3264907135874875
1.3196480938416422
1.3128054740957966
1.3020527859237536
1.2873900293255132
1.281524926686217
1.2795698924731185
1.267839687194526
1.2502443792766371
1.23069403714565
1.2101661779081134
1.1915933528836755
1.1749755620723363
1.160312805474096
1.1505376344086022
1.142717497556207
1.1329423264907137
1.121212121212121
1.110459433040078
1.1006842619745845
1.0928641251221896
1.0850439882697946
1.078201368523949
1.0713587487781036
1.0635386119257086
1.056695992179863
1.0527859237536656
1.050830889540567
1.0469208211143697
1.0410557184750733
1.0361681329423265
1.0332355816226784
1.032258064516129
1.0332355816226784
1.0342130987292275
1.032258064516129
1.0303030303030305
1.0263929618768328
1.0195503421309873
1.0175953079178883
1.0234604105571847
1.0391006842619743
1.0733137829912025
1.1348973607038124
1.2297165200391007
1.359726295210166
1.521994134897361
1.70772238514174
1.905180840664712
2.101661779081134
2.2883675464320627
2.4379276637341154
2.5562072336265884
2.667644183773216
2.7624633431085046
2.835777126099707
2.8885630498533725
2.9237536656891496
2.9423264907135875
2.949169110459433
2.945259042033236
2.9315738025415445
2.911045943304008
2.8836754643206257
2.8514173998044967
2.8132942326490715
2.768328445747801
2.717497556207233
2.659824046920821
2.5943304007820136
2.5219941348973607
2.4408602150537635
2.3528836754643208
2.2580645161290325
2.160312805474096
2.06158357771261
1.9765395894428155
1.900293255131965
1.8211143695014664
1.7458455522971652
1.6774193548387095
1.6177908113391983
1.5669599217986314
1.5268817204301075
1.4946236559139785
1.4682306940371457
1.447702834799609
1.4320625610948192
1.4193548387096775
1.4105571847507332
1.404692082111437
1.3988269794721409
1.392961876832845
1.3861192570869991
1.3782991202346042
1.367546432062561
1.3558162267839686
1.3440860215053765
1.3304007820136852
1.3157380254154447
1.3010752688172045
1.2903225806451613
1.281524926686217
1.2688172043010753
1.2541544477028348
1.2394916911045943
1.2238514173998043
1.2082111436950147
1.1935483870967742
1.1788856304985338
1.1652003910068427
1.1515151515151516
1.13880742913001
1.126099706744868
1.1173020527859236
1.110459433040078
1.1016617790811338
1.0918866080156402
1.0821114369501466
1.0733137829912025
1.0654936461388074
1.0596285434995112
1.0547409579667644
1.0498533724340176
1.04594330400782
1.043010752688172
1.0439882697947214
1.04594330400782
1.0449657869012707
1.0439882697947214
1.0420332355816226
1.0410557184750733
1.0410557184750733
1.0391006842619743
1.0361681329423265
1.0303030303030305
1.0224828934506354
1.0166177908113392
1.0175953079178883
1.029325513196481
1.0557184750733135
1.1065493646138806
1.1886608015640274
1.305962854349951
1.456500488758553
1.6334310850439884
1.8269794721407624
2.024437927663734
2.21505376344086
2.389051808406647
2.539589442815249
2.649071358748778
2.730205278592375
2.80058651026393
2.8533724340175954
2.889540566959922
2.909090909090909
2.9159335288367547
2.911045943304008
2.897360703812317
2.875855327468231
2.8475073313782997
2.812316715542522
2.773216031280548
2.7282502443792764
2.674486803519061
2.611925708699902
2.541544477028348
2.462365591397849
2.3743890518084068
2.280547409579668
2.1837732160312804
2.0869990224828934
1.992179863147605
1.9012707722385145
1.81524926686217
1.7448680351906158
1.686217008797654
1.6275659824046922
1.5747800586510263
1.5298142717497556
1.4936461388074291
1.466275659824047
1.4467253176930597
1.4320625610948192
1.4213098729227762
1.414467253176931
1.409579667644184
1.4066471163245358
1.4037145650048877
1.3988269794721409
1.393939393939394
1.388074291300098
1.3822091886608017
1.3763440860215057
1.3695014662756595
1.3616813294232648
1.3528836754643203
1.3421309872922775
1.3304007820136852
1.3176930596285434
1.3088954056695992
1.3020527859237536
1.2932551319648091
1.284457478005865
1.2756598240469208
1.2649071358748778
1.2541544477028348
1.2443792766373412
1.2346041055718475
1.224828934506354
1.2150537634408602
1.206256109481916
1.2023460410557183
1.2003910068426198
1.1964809384164223
1.1915933528836755
1.1867057673509287
1.1827956989247312
1.1788856304985338
1.1749755620723363
1.1710654936461389
1.1681329423264908
1.1652003910068427
1.1622678396871946
1.160312805474096
1.1612903225806452
1.164222873900293
1.166177908113392
1.166177908113392
1.1652003910068427
1.163245356793744
1.1593352883675463
1.1534701857282503
1.1466275659824048
1.1407624633431086
1.1397849462365592
1.152492668621701
1.1798631476050832
1.2258064516129032
1.3049853372434017
1.4193548387096775
1.565982404692082
1.7360703812316716
1.920821114369501
2.110459433040078
2.291300097751711
2.4565004887585533
2.60019550342131
2.721407624633431
2.819159335288368
2.89247311827957
2.9393939393939394
2.9667644183773216
2.9853372434017595
2.9931573802541545
2.992179863147605
2.9804496578690127
2.959921798631476
2.9335288367546437
2.900293255131965
2.857282502443793
2.8054740957966766
2.752688172043011
2.6959921798631474
2.6285434995112413
2.5532746823069403
2.4701857282502444
2.3812316715542523
2.2883675464320627
2.1925708699902247
2.0977517106549364
2.005865102639296
1.9178885630498532
1.835777126099707
1.7624633431085044
1.7057673509286413
1.6598240469208212
1.6158357771260996
1.5777126099706744
1.5464320625610948
1.521016617790811
1.501466275659824
1.487781036168133
1.478983382209189
1.4721407624633431
1.4652981427174976
1.457478005865103
1.4516129032258065
1.4457478005865103
1.4379276637341154
1.4291300097751711
1.4193548387096775
1.4076246334310851
1.393939393939394
1.3792766373411536
1.3626588465298142
1.3440860215053765
1.3255131964809383
1.3069403714565004
1.289345063538612
1.2766373411534702
1.2668621700879763
1.2541544477028348
1.238514173998045
1.2218963831867058
1.206256109481916
1.1915933528836755
1.1779081133919844
1.1652003910068427
1.1515151515151516
1.13880742913001
1.1270772238514175
1.1202346041055715
1.1163245356793745
1.1114369501466277
1.1055718475073313
1.099706744868035
1.093841642228739
1.0909090909090908
1.088954056695992
1.0869990224828934
1.0850439882697946
1.0840664711632453
1.083088954056696
1.0811339198435972
1.0821114369501466
1.0850439882697946
1.086021505376344
1.0869990224828934
1.0869990224828934
1.086021505376344
1.0840664711632453
1.0821114369501466
1.0811339198435972
1.0879765395894427
1.10752688172043
1.1505376344086022
1.2082111436950147
1.2883675464320623
1.409579667644184
1.5650048875855327
1.7468230694037146
1.943304007820137
2.1417399804496577
2.3304007820136854
2.5004887585532747
2.6480938416422286
2.7702834799608995
2.866080156402737
2.936461388074292
2.979472140762464
3.0019550342130987
3.016617790811339
3.021505376344086
3.0175953079178885
3.004887585532747
2.986314760508309
2.960899315738025
2.9286412512218964
2.889540566959922
2.843597262952102
2.789833822091887
2.7331378299120237
2.6715542521994133
2.598240469208211
2.5161290322580645
2.426197458455523
2.3313782991202348
2.2346041055718477
2.1378299120234603
2.042033235581622
1.951124144672532
1.866080156402737
1.7888563049853372
1.7282502443792769
1.678396871945259
1.6314760508308896
1.590420332355816
1.5532746823069403
1.5249266862170088
1.5083088954056696
1.495601173020528
1.4848484848484849
1.4760508308895406
1.466275659824047
1.456500488758553
1.4467253176930597
1.439882697947214
1.4330400782013686
1.4222873900293256
1.4086021505376345
1.3949169110459434
1.3812316715542523
1.367546432062561
1.3528836754643203
1.3362658846529814
1.3176930596285434
1.2981427174975562
1.278592375366569
1.262952101661779
1.2502443792766371
1.2355816226783969
1.219941348973607
1.2052785923753666
1.1915933528836755
1.1798631476050832
1.1691104594330402
1.1583577712609971
1.1495601173020529
1.1407624633431086
1.1319648093841643
1.1241446725317692
1.1202346041055715
1.118279569892473
1.1143695014662756
1.1085043988269794
1.1026392961876832
1.096774193548387
1.0909090909090908
1.0869990224828934
1.083088954056696
1.0791788856304985
1.0772238514173995
1.0762463343108504
1.0791788856304985
1.083088954056696
1.0850439882697946
1.086021505376344
1.0869990224828934
1.0869990224828934
1.086021505376344
1.0840664711632453
1.083088954056696
1.086021505376344
1.0977517106549364
1.1280547409579669
1.18475073313783
1.2551319648093842
1.3479960899315735
1.479960899315738
1.6441837732160314
1.8299120234604105
2.026392961876833
2.219941348973607
2.401759530791789
2.5640273704789838
2.7008797653958942
2.814271749755621
2.902248289345064
2.956989247311828
2.989247311827957
3.0117302052785924
3.022482893450636
3.0234604105571847
3.013685239491691
2.995112414467253
2.9687194525904204
2.9335288367546437
2.889540566959922
2.8377321603128056
2.779081133919844
2.7126099706744866
2.6471163245356792
2.5777126099706744
2.495601173020528
2.4056695992179864
2.3098729227761488
2.2111436950146626
2.112414467253177
2.0175953079178885
1.927663734115347
1.8435972629521016
1.7673509286412512
1.7008797653958945
1.6490713587487782
1.608993157380254
1.5728250244379276
1.541544477028348
1.517106549364614
1.499511241446725
1.487781036168133
1.479960899315738
1.4750733137829912
1.4701857282502444
1.466275659824047
1.4633431085043989
1.4594330400782014
1.457478005865103
1.4535679374389052
1.4467253176930597
1.4379276637341154
1.426197458455523
1.412512218963832
1.3978494623655917
1.3812316715542523
1.3636363636363635
1.3450635386119256
1.3255131964809383
1.3069403714565004
1.2942326490713587
1.2834799608993157
1.2697947214076246
1.2561094819159335
1.2424242424242424
1.2297165200391007
1.217008797653959
1.203323558162268
1.1906158357771262
1.1827956989247312
1.1749755620723363
1.1681329423264908
1.1612903225806452
1.1564027370478984
1.1544477028347997
1.1495601173020529
1.144672531769306
1.1221896383186705
1.0918866080156402
1.0772238514173995
1.0694037145650048
1.064516129032258
1.0606060606060606
1.0586510263929618
1.0576735092864125
1.0596285434995112
1.06158357771261
1.06158357771261
1.0606060606060606
1.056695992179863
1.050830889540567
1.0469208211143697
1.04594330400782
1.050830889540567
1.0703812316715542
1.1143695014662756
1.187683284457478
1.295210166177908
1.412512218963832
1.5464320625610948
1.718475073313783
1.9120234604105573
2.1114369501466275
2.304985337243402
2.4838709677419355
2.638318670576735
2.7673509286412514
2.8699902248289346
2.948191593352884
3.002932551319648
3.032258064516129
3.0439882697947214
3.048875855327468
3.04594330400782
3.0361681329423265
3.0175953079178885
2.992179863147605
2.959921798631476
2.919843597262952
2.8719452590420333
2.819159335288368
2.757575757575758
2.6881720430107525
2.619745845552297
2.549364613880743
2.4672531769305963
2.376344086021505
2.280547409579668
2.1818181818181817
2.0840664711632453
1.988269794721408
1.8973607038123168
1.8132942326490715
1.7390029325513197
1.6744868035190617
1.624633431085044
1.585532746823069
1.5513196480938416
1.5249266862170088
1.504398826979472
1.4868035190615836
1.4731182795698925
1.4613880742913
1.4496578690127078
1.4379276637341154
1.4271749755620724
1.4173998044965788
1.4086021505376345
1.401759530791789
1.3958944281524928
1.388074291300098
1.3773216031280548
1.3636363636363635
1.3479960899315735
1.3313782991202343
1.313782991202346
1.295210166177908
1.2756598240469208
1.2561094819159335
1.2375366568914956
1.2238514173998043
1.2130987292277615
1.1994134897360704
1.1837732160312806
1.1700879765395895
1.1583577712609971
1.147605083088954
1.1368523949169111
1.1270772238514175
1.1192570869990224
1.1124144672531768
1.1055718475073313
1.1016617790811338
1.099706744868035
1.0957966764418376
1.0909090909090908
1.0850439882697946
1.078201368523949
1.0713587487781036
1.0654936461388074
1.0606060606060606
1.0547409579667644
1.0488758553274682
1.0439882697947214
1.0410557184750733
1.0410557184750733
1.043010752688172
1.0420332355816226
1.0391006842619743
1.0342130987292275
1.0283479960899315
1.0234604105571847
1.0224828934506354
1.032258064516129
1.0606060606060606
1.1495601173020529
1.2541544477028348
1.3284457478005864
1.435972629521017
1.590420332355816
1.7741935483870968
1.9726295210166176
2.1700879765395893
2.355816226783969
2.52297165200391
2.664711632453568
2.780058651026393
2.8699902248289346
2.935483870967742
2.979472140762464
3.0
3.003910068426197
3.0
2.9872922776148583
2.9667644183773216
2.940371456500489
2.906158357771261
2.865102639296188
2.817204301075269
2.7614858260019552
2.696969696969697
2.6236559139784945
2.5513196480938416
2.4750733137829912
2.386119257086999
2.289345063538612
2.187683284457478
2.086021505376344
1.9843597262952104
1.8866080156402736
1.7956989247311828
1.7135874877810362
1.6412512218963833
1.5777126099706744
1.5249266862170088
1.4858260019550342
1.457478005865103
1.4330400782013686
1.414467253176931
1.4007820136852396
1.3890518084066472
1.3812316715542523
1.3734115347018572
1.3665689149560116
1.359726295210166
1.3519061583577712
1.3450635386119256
1.3411534701857282
1.3372434017595307
1.3313782991202343
1.324535679374389
1.3186705767350928
1.3118279569892473
1.3049853372434017
1.295210166177908
1.2834799608993157
1.2717497556207231
1.2580645161290325
1.2443792766373412
1.2316715542521994
1.2238514173998043
1.2179863147605083
1.2101661779081134
1.2013685239491692
1.1935483870967742
1.187683284457478
1.1827956989247312
1.1779081133919844
1.1730205278592376
1.1671554252199414
1.160312805474096
1.1544477028347997
1.152492668621701
1.152492668621701
1.1505376344086022
1.1495601173020529
1.1515151515151516
1.1534701857282503
1.1564027370478984
1.1593352883675463
1.1622678396871946
1.1652003910068427
1.1691104594330402
1.1720430107526882
1.1759530791788857
1.1808406647116323
1.1867057673509287
1.1906158357771262
1.1935483870967742
1.1945259042033236
1.1935483870967742
1.1915933528836755
1.1906158357771262
1.198435972629521
1.219941348973607
1.2649071358748778
1.3421309872922775
1.4330400782013686
1.544477028347996
1.6950146627565983
1.871945259042033
2.0625610948191597
2.2551319648093844
2.436950146627566
2.601173020527859
2.7438905180840663
2.8611925708699903
2.9530791788856305
3.021505376344086
3.070381231671554
3.0948191593352883
3.102639296187683
3.1055718475073317
3.0987292277614857
3.0821114369501466
3.056695992179863
3.0234604105571847
2.983382209188661
2.935483870967742
2.878787878787879
2.814271749755621
2.7419354838709675
2.668621700879765
2.565982404692082
2.464320625610948
2.386119257086999
2.2932551319648096
2.1945259042033234
2.0957966764418376
1.9990224828934504
1.9071358748778104
1.8240469208211143
1.7497556207233629
1.672531769305963
1.6011730205278591
1.552297165200391
1.5180840664711632
1.4887585532746823
1.4643206256109482
1.4437927663734116
1.4271749755620724
1.4134897360703813
1.4007820136852396
1.391006842619746
1.383186705767351
1.3763440860215057
1.3685239491691104
1.3626588465298142
1.3587487781036167
1.3519061583577712
1.343108504398827
1.3333333333333333
1.3206256109481915
1.305962854349951
1.2903225806451613
1.2727272727272727
1.2551319648093842
1.2355816226783969
1.217008797653959
1.2003910068426198
1.187683284457478
1.1779081133919844
1.1652003910068427
1.1515151515151516
1.1378299120234605
1.126099706744868
1.1143695014662756
1.1026392961876832
1.093841642228739
1.086021505376344
1.0772238514173995
1.0684261974584557
1.064516129032258
1.0625610948191593
1.0576735092864125
1.0527859237536656
1.0469208211143697
1.0410557184750733
1.035190615835777
1.0303030303030305
1.0263929618768328
1.0234604105571847
1.021505376344086
1.0205278592375366
1.0195503421309873
1.021505376344086
1.0254154447702837
1.0254154447702837
1.0224828934506354
1.018572825024438
1.0166177908113392
1.0205278592375366
1.0410557184750733
1.086021505376344
1.1622678396871946
1.273704789833822
1.418377321603128
1.5650048875855327
1.715542521994135
1.8934506353861196
2.0791788856304985
2.259042033235582
2.4242424242424243
2.5669599217986314
2.684261974584555
2.777126099706745
2.84652981427175
2.895405669599218
2.927663734115347
2.940371456500489
2.9393939393939394
2.9345063538611926
2.924731182795699
2.90811339198436
2.8836754643206257
2.850439882697948
2.8084066471163247
2.758553274682307
2.7008797653958942
2.636363636363636
2.563049853372434
2.482893450635386
2.404692082111437
2.3274682306940373
2.2404692082111435
2.147605083088954
2.0518084066471163
1.9579667644183771
1.8670576735092863
1.782991202346041
1.7067448680351909
1.640273704789834
1.5835777126099706
1.5366568914956011
1.5024437927663734
1.478983382209189
1.4594330400782014
1.4428152492668622
1.4301075268817205
1.4193548387096775
1.409579667644184
1.4007820136852396
1.392961876832845
1.3841642228739004
1.375366568914956
1.3665689149560116
1.3558162267839686
1.3450635386119256
1.335288367546432
1.3225806451612905
1.3088954056695992
1.2913000977517106
1.2766373411534702
1.2649071358748778
1.249266862170088
1.2326490713587488
1.2150537634408602
1.1994134897360704
1.1837732160312806
1.1720430107526882
1.163245356793744
1.152492668621701
1.1407624633431086
1.130987292277615
1.1202346041055715
1.1094819159335287
1.099706744868035
1.0918866080156402
1.0850439882697946
1.078201368523949
1.072336265884653
1.0664711632453567
1.0635386119257086
1.06158357771261
1.0576735092864125
1.0527859237536656
1.0469208211143697
1.0410557184750733
1.035190615835777
1.0283479960899315
1.0224828934506354
1.0175953079178883
1.013685239491691
1.010752688172043
1.010752688172043
1.013685239491691
1.0146627565982405
1.013685239491691
1.0097751710654936
1.0058651026392962
1.002932551319648
1.0039100684261977
1.0146627565982405
1.043010752688172
1.096774193548387
1.2258064516129032
1.3685239491691104
1.4633431085043989
1.587487781036168
1.7546432062561097
1.9413489736070384
2.1309872922776147
2.310850439882698
2.472140762463343
2.6099706744868034
2.724340175953079
2.8132942326490715
2.877810361681329
2.920821114369501
2.940371456500489
2.943304007820137
2.932551319648094
2.916911045943304
2.900293255131965
2.874877810361681
2.8406647116324537
2.7996089931573804
2.750733137829912
2.67644183773216
2.6041055718475072
2.5454545454545454
2.472140762463343
2.3978494623655915
2.321603128054741
2.232649071358749
2.136852394916911
2.01564027370479
1.90811339198436
1.8318670576735088
1.75366568914956
1.6666666666666667
1.5933528836754642
1.5376344086021505
1.4868035190615836
1.458455522971652
1.4330400782013686
1.4076246334310851
1.3919843597262953
1.383186705767351
1.3773216031280548
1.3734115347018572
1.370478983382209
1.367546432062561
1.3636363636363635
1.359726295210166
1.3558162267839686
1.3528836754643203
1.3499511241446724
1.3440860215053765
1.3362658846529814
1.3284457478005864
1.3176930596285434
1.3049853372434017
1.2932551319648091
1.2805474095796676
1.2668621700879763
1.2531769305962854
1.2404692082111437
1.23069403714565
1.2228739002932552
1.2130987292277615
1.203323558162268
1.195503421309873
1.187683284457478
1.1788856304985338
1.1700879765395895
1.163245356793744
1.1573802541544478
1.1515151515151516
1.1466275659824048
1.142717497556207
1.141739980449658
1.141739980449658
1.1407624633431086
1.1378299120234605
1.1348973607038124
1.1329423264907137
1.1329423264907137
1.133919843597263
1.1368523949169111
1.1407624633431086
1.1456500488758554
1.1505376344086022
1.1583577712609971
1.166177908113392
1.1710654936461389
1.173998044965787
1.173998044965787
1.1730205278592376
1.1710654936461389
1.1720430107526882
1.18475073313783
1.217008797653959
1.2766373411534702
1.3695014662756595
1.4965786901270772
1.6275659824046922
1.7683284457478006
1.9403714565004888
2.1251221896383186
2.3088954056695994
2.4789833822091887
2.63049853372434
2.7595307917888565
2.863147605083089
2.941348973607038
2.9980449657869013
3.035190615835777
3.050830889540567
3.0518084066471163
3.047898338220919
3.0361681329423265
3.0146627565982405
2.9853372434017595
2.9501466275659824
2.9071358748778104
2.8563049853372435
2.7976539589442817
2.7311827956989245
2.6559139784946235
2.5806451612903225
2.504398826979472
2.4164222873900294
2.320625610948192
2.220918866080156
2.1221896383186705
2.026392961876833
1.9345063538611929
1.8484848484848484
1.76930596285435
1.6989247311827955
1.6383186705767352
1.5884652981427174
1.5503421309872922
1.5239491691104594
1.5024437927663734
1.4848484848484849
1.4721407624633431
1.4623655913978495
1.4545454545454546
1.4457478005865103
1.435972629521017
1.426197458455523
1.41544477028348
1.404692082111437
1.396871945259042
1.391006842619746
1.383186705767351
1.3743890518084063
1.3636363636363635
1.3499511241446724
1.335288367546432
1.3186705767350928
1.300097751710655
