ppg
2.855327468230694
2.859237536656892
2.84652981427175
2.819159335288368
2.780058651026393
2.729227761485826
2.673509286412512
2.611925708699902
2.536656891495601
2.449657869012708
2.35386119257087
2.2521994134897363
2.147605083088954
2.0439882697947214
1.9442815249266865
1.8504398826979471
1.7644183773216031
1.6871945259042034
1.6275659824046922
1.5806451612903225
1.5366568914956011
1.499511241446725
1.4711632453567938
1.4506353861192571
1.435972629521017
1.426197458455523
1.4193548387096775
1.4134897360703813
1.4066471163245358
1.3988269794721409
1.388074291300098
1.3792766373411536
1.3695014662756595
1.356793743890518
1.3411534701857282
1.3235581622678396
1.3049853372434017
1.2864125122189638
1.2697947214076246
1.2531769305962854
1.238514173998045
1.224828934506354
1.2111436950146628
1.2023460410557183
1.1964809384164223
1.187683284457478
1.1779081133919844
1.1671554252199414
1.155425219941349
1.142717497556207
1.1270772238514175
1.1085043988269794
1.0879765395894427
1.0694037145650048
1.0606060606060606
1.0713587487781036
1.1016617790811338
1.1593352883675463
1.2609970674486803
1.4086021505376345
1.5943304007820136
1.8064516129032255
2.0283479960899315
2.241446725317693
2.432062561094819
2.590420332355816
2.7126099706744866
2.798631476050831
2.8475073313782997
2.8690127077223853
2.875855327468231
2.868035190615836
2.8484848484848486
2.817204301075269
2.7751710654936463
2.7223851417399803
2.659824046920821
2.587487781036168
2.505376344086021
2.4144672531769307
2.317693059628544
2.228739002932551
2.144672531769306
2.0527859237536656
1.9608993157380252
1.8729227761485825
1.7927663734115349
1.721407624633431
1.6608015640273706
1.6099706744868034
1.5708699902248289
1.5405669599217986
1.5180840664711632
1.504398826979472
1.495601173020528
1.4868035190615836
1.478005865102639
1.4701857282502444
1.4613880742913
1.4516129032258065
1.4389051808406648
1.4242424242424243
1.4076246334310851
1.3900293255131966
1.3714565004887584
1.3519061583577712
1.3362658846529814
1.321603128054741
1.303030303030303
1.2825024437927663
1.262952101661779
1.2443792766373412
1.227761485826002
1.2111436950146628
1.1945259042033236
1.1798631476050832
1.166177908113392
1.152492668621701
1.1436950146627567
1.1358748778103618
1.1231671554252198
1.10752688172043
1.0899315738025417
1.0762463343108504
1.0742913000977516
1.093841642228739
1.1456500488758554
1.2394916911045943
1.3792766373411536
1.560117302052786
1.7409579667644184
1.9227761485826005
2.1309872922776147
2.3382209188660803
2.5239491691104594
2.678396871945259
2.795698924731183
2.87683284457478
2.9257086999022484
2.949169110459433
2.952101661779081
2.9393939393939394
2.9120234604105573
2.875855327468231
2.83088954056696
2.774193548387097
2.7067448680351904
2.6285434995112413
2.5425219941348973
2.449657869012708
2.3519061583577714
2.251221896383187
2.150537634408602
2.053763440860215
1.963831867057673
1.889540566959922
1.8269794721407624
1.7663734115347018
1.7126099706744868
1.667644183773216
1.632453567937439
1.6050830889540566
1.58455522971652
1.5679374389051808
1.5542521994134897
1.541544477028348
1.5298142717497556
1.5180840664711632
1.5083088954056696
1.498533724340176
1.4848484848484849
1.469208211143695
1.4506353861192571
1.43108504398827
1.4105571847507332
1.388074291300098
1.364613880742913
1.3411534701857282
1.3186705767350928
1.2961876832844574
1.2795698924731185
1.2668621700879763
1.2512218963831867
1.2336265884652982
1.217008797653959
1.2013685239491692
1.1867057673509287
1.173998044965787
1.163245356793744
1.1515151515151516
1.13880742913001
1.1251221896383188
1.1124144672531768
1.1065493646138806
1.1114369501466277
1.1329423264907137
1.181818181818182
1.2688172043010753
1.3988269794721409
1.56891495601173
1.7702834799608993
1.989247311827957
2.210166177908113
2.4173998044965788
2.5972629521016617
2.729227761485826
2.823069403714565
2.8993157380254155
2.9530791788856305
2.98435972629521
2.995112414467253
2.9872922776148583
2.964809384164223
2.927663734115347
2.877810361681329
2.817204301075269
2.744868035190616
2.66177908113392
2.5806451612903225
2.4975562072336266
2.4027370478983383
2.300097751710655
2.1955034213098727
2.0928641251221896
1.994134897360704
1.902248289345064
1.8201368523949168
1.7487781036168133
1.6881720430107527
1.6383186705767352
1.6021505376344083
1.5757575757575757
1.552297165200391
1.5327468230694037
1.517106549364614
1.504398826979472
1.4926686217008798
1.4819159335288368
1.4701857282502444
1.457478005865103
1.444770283479961
1.43108504398827
1.4164222873900294
1.4037145650048877
1.391006842619746
1.3743890518084063
1.3548387096774193
1.3333333333333333
1.310850439882698
1.289345063538612
1.267839687194526
1.2482893450635386
1.2297165200391007
1.2130987292277615
1.1964809384164223
1.18475073313783
1.1749755620723363
1.163245356793744
1.1495601173020529
1.133919843597263
1.1163245356793745
1.096774193548387
1.078201368523949
1.0664711632453567
1.0703812316715542
1.099706744868035
1.164222873900293
1.2717497556207231
1.3949169110459434
1.5405669599217986
1.7311827956989247
1.946236559139785
2.166177908113392
2.372434017595308
2.552297165200391
2.6989247311827955
2.811339198435973
2.8905180840664717
2.940371456500489
2.9657869012707723
2.9687194525904204
2.956011730205278
2.9315738025415445
2.8944281524926687
2.8455522971652005
2.78494623655914
2.713587487781036
2.632453567937439
2.541544477028348
2.443792766373412
2.340175953079179
2.233626588465298
2.1270772238514173
2.035190615835777
1.9521016617790807
1.868035190615836
1.7888563049853372
1.7165200391006843
1.6529814271749756
1.6001955034213098
1.5581622678396871
1.5239491691104594
1.4965786901270772
1.4760508308895406
1.4594330400782014
1.4486803519061584
1.4408602150537635
1.4301075268817205
1.418377321603128
1.4066471163245358
1.393939393939394
1.3812316715542523
1.3685239491691104
1.35386119257087
1.33822091886608
1.321603128054741
1.3040078201368523
1.2854349951124144
1.2717497556207231
1.260019550342131
1.2434017595307918
1.2258064516129032
1.2082111436950147
1.1915933528836755
1.1759530791788857
1.160312805474096
1.1456500488758554
1.1319648093841643
1.118279569892473
1.1036168132942326
1.0928641251221896
1.083088954056696
1.0713587487781036
1.0635386119257086
1.0703812316715542
1.1026392961876832
1.1710654936461389
1.2834799608993157
1.439882697947214
1.6344086021505375
1.8533724340175952
2.080156402737048
2.2981427174975564
2.4711632453567938
2.606060606060606
2.727272727272727
2.8211143695014664
2.884652981427175
2.921798631476051
2.936461388074292
2.932551319648094
2.913978494623656
2.8826979472140764
2.8396871945259043
2.78494623655914
2.727272727272727
2.6637341153470184
2.5865102639296187
2.4975562072336266
2.40078201368524
2.2991202346041058
2.193548387096774
2.088954056695992
1.988269794721408
1.8944281524926687
1.8093841642228736
1.7341153470185728
1.6764418377321604
1.6314760508308896
1.590420332355816
1.5571847507331378
1.530791788856305
1.5112414467253177
1.4965786901270772
1.4838709677419355
1.4731182795698925
1.4633431085043989
1.4535679374389052
1.4418377321603129
1.4291300097751711
1.4193548387096775
1.4105571847507332
1.396871945259042
1.380254154447703
1.3616813294232648
1.3421309872922775
1.3206256109481915
1.2981427174975562
1.2746823069403714
1.2512218963831867
1.2287390029325511
1.2082111436950147
1.1935483870967742
1.181818181818182
1.1691104594330402
1.1573802541544478
1.1456500488758554
1.1329423264907137
1.1192570869990224
1.1016617790811338
1.0821114369501466
1.0635386119257086
1.0518084066471165
1.053763440860215
1.0811339198435972
1.1300097751710656
1.2072336265884651
1.3294232649071358
1.4916911045943304
1.6842619745845553
1.8914956011730208
2.096774193548387
2.2854349951124147
2.4457478005865103
2.5718475073313782
2.6637341153470184
2.724340175953079
2.7546432062561097
2.763440860215054
2.760508308895406
2.744868035190616
2.718475073313783
2.6803519061583576
2.632453567937439
2.5747800586510263
2.506353861192571
2.4281524926686218
2.3421309872922778
2.249266862170088
2.1515151515151514
2.0635386119257086
1.9824046920821117
1.8944281524926687
1.8084066471163245
1.7272727272727273
1.6549364613880744
1.5933528836754642
1.541544477028348
1.500488758553275
1.4682306940371457
1.4437927663734116
1.426197458455523
1.41544477028348
1.4086021505376345
1.4007820136852396
1.392961876832845
1.383186705767351
1.3724340175953078
1.359726295210166
1.3440860215053765
1.3264907135874875
1.3079178885630498
1.2873900293255132
1.2649071358748778
1.2424242424242424
1.224828934506354
1.2101661779081134
1.1906158357771262
1.1691104594330402
1.1485826001955035
1.1280547409579669
1.1085043988269794
1.0909090909090908
1.075268817204301
1.0606060606060606
1.0469208211143697
1.0332355816226784
1.024437927663734
1.0166177908113392
1.002932551319648
0.9863147605083088
0.9716520039100685
0.9648093841642228
0.9745845552297164
1.0117302052785924
1.083088954056696
1.1945259042033236
1.343108504398827
1.521016617790811
1.715542521994135
1.8875855327468232
2.040078201368524
2.1945259042033234
2.3313782991202348
2.442815249266862
2.5268817204301075
2.58455522971652
2.619745845552297
2.636363636363636
2.6373411534701856
2.624633431085044
2.5992179863147604
2.565982404692082
2.5249266862170088
2.47702834799609
2.420332355816227
2.3499511241446727
2.269794721407625
2.1818181818181817
2.0879765395894427
1.9931573802541545
1.8993157380254155
1.8093841642228736
1.726295210166178
1.651026392961877
1.5923753665689149
1.5464320625610948
1.504398826979472
1.469208211143695
1.439882697947214
1.4173998044965788
1.4007820136852396
1.3870967741935485
1.3743890518084063
1.3626588465298142
1.3509286412512218
1.33822091886608
1.3284457478005864
1.3196480938416422
1.3079178885630498
1.2942326490713587
1.2795698924731185
1.2639296187683284
1.2473118279569892
1.23069403714565
1.2150537634408602
1.1994134897360704
1.1837732160312806
1.1691104594330402
1.1564027370478984
1.147605083088954
1.1407624633431086
1.1319648093841643
1.121212121212121
1.110459433040078
1.0987292277614855
1.086021505376344
1.072336265884653
1.056695992179863
1.040078201368524
1.0263929618768328
1.021505376344086
1.0283479960899315
1.053763440860215
1.1055718475073313
1.1896383186705768
1.3079178885630498
1.457478005865103
1.6285434995112416
1.8084066471163245
1.9843597262952104
2.1436950146627565
2.280547409579668
2.389051808406647
2.4701857282502444
2.5210166177908118
2.549364613880743
2.5650048875855327
2.567937438905181
2.5591397849462365
2.5386119257087
2.506353861192571
2.464320625610948
2.4134897360703813
2.3548387096774195
2.2883675464320627
2.21505376344086
2.145650048875855
2.0772238514174
2.0
1.9188660801564028
1.8377321603128052
1.7605083088954057
1.689149560117302
1.624633431085044
1.56891495601173
1.521016617790811
1.479960899315738
1.4467253176930597
1.423264907135875
1.4076246334310851
1.3919843597262953
1.3792766373411536
1.3685239491691104
1.359726295210166
1.3528836754643203
1.3470185728250244
1.3411534701857282
1.3343108504398826
1.3255131964809383
1.3147605083088951
1.303030303030303
1.2932551319648091
1.284457478005865
1.270772238514174
1.2551319648093842
1.2375366568914956
1.219941348973607
1.2013685239491692
1.1837732160312806
1.166177908113392
1.1495601173020529
1.1329423264907137
1.118279569892473
1.1085043988269794
1.1016617790811338
1.0909090909090908
1.078201368523949
1.064516129032258
1.0498533724340176
1.0381231671554252
1.0361681329423265
1.0518084066471165
1.093841642228739
1.1691104594330402
1.2795698924731185
1.4213098729227762
1.563049853372434
1.704789833822092
1.866080156402737
2.026392961876833
2.172043010752688
2.294232649071359
2.3900293255131966
2.4594330400782014
2.504398826979472
2.529814271749756
2.5386119257087
2.533724340175953
2.5180840664711632
2.493646138807429
2.4594330400782014
2.41544477028348
2.363636363636364
2.303030303030303
2.2346041055718477
2.1593352883675463
2.078201368523949
1.994134897360704
1.9090909090909087
1.8269794721407624
1.7487781036168133
1.6852394916911049
1.632453567937439
1.581622678396872
1.5356793743890518
1.4975562072336266
1.466275659824047
1.4428152492668622
1.4252199413489737
1.412512218963832
1.4027370478983383
1.3958944281524928
1.3890518084066472
1.3851417399804498
1.3822091886608017
1.3763440860215057
1.3685239491691104
1.359726295210166
1.3499511241446724
1.3391984359726294
1.3284457478005864
1.3176930596285434
1.3069403714565004
1.2961876832844574
1.2854349951124144
1.2746823069403714
1.2668621700879763
1.2609970674486803
1.2512218963831867
1.2404692082111437
1.2287390029325511
1.217008797653959
1.2052785923753666
1.1935483870967742
1.1808406647116323
1.1671554252199414
1.1515151515151516
1.1348973607038124
1.1251221896383188
1.1231671554252198
1.1319648093841643
1.1612903225806452
1.2189638318670577
1.3098729227761483
1.434017595307918
1.585532746823069
1.7517106549364614
1.920821114369501
2.081133919843597
2.2218963831867056
2.337243401759531
2.418377321603128
2.472140762463343
2.5141739980449658
2.541544477028348
2.555229716520039
2.557184750733138
2.547409579667644
2.527859237536657
2.4975562072336266
2.4574780058651027
2.406647116324536
2.347018572825025
2.2873900293255134
2.2248289345063537
2.150537634408602
2.070381231671554
1.988269794721408
1.9090909090909087
1.833822091886608
1.7653958944281525
1.7057673509286413
1.6549364613880744
1.6138807429130009
1.581622678396872
1.5571847507331378
1.541544477028348
1.5317693059628543
1.52297165200391
1.5151515151515151
1.5073313782991202
1.499511241446725
1.490713587487781
1.479960899315738
1.469208211143695
1.458455522971652
1.4467253176930597
1.434017595307918
1.4242424242424243
1.41544477028348
1.4037145650048877
1.3890518084066472
1.3734115347018572
1.356793743890518
1.3401759530791788
1.3225806451612905
1.305962854349951
1.289345063538612
1.273704789833822
1.260019550342131
1.2473118279569892
1.238514173998045
1.2316715542521994
1.2228739002932552
1.2130987292277615
1.2023460410557183
1.1906158357771262
1.1779081133919844
1.1691104594330402
1.1779081133919844
1.2121212121212122
1.2717497556207231
1.3685239491691104
1.482893450635386
1.6207233626588464
1.8054740957966764
2.018572825024438
2.242424242424242
2.4604105571847508
2.656891495601173
2.822091886608016
2.95405669599218
3.0518084066471163
3.118279569892473
3.158357771260997
3.175953079178885
3.1730205278592374
3.1544477028347995
3.12316715542522
3.0791788856304985
3.022482893450636
2.952101661779081
2.8699902248289346
2.777126099706745
2.677419354838709
2.572825024437928
2.4652981427174976
2.358748778103617
2.2668621700879767
2.185728250244379
2.102639296187683
2.024437927663734
1.95405669599218
1.8934506353861196
1.844574780058651
1.804496578690127
1.7741935483870968
1.750733137829912
1.7331378299120237
1.7194525904203324
1.70772238514174
1.6989247311827955
1.6930596285434996
1.6852394916911049
1.675464320625611
1.664711632453568
1.651026392961877
1.6363636363636365
1.619745845552297
1.6001955034213098
1.5796676441837731
1.5571847507331378
1.533724340175953
1.5141739980449658
1.4965786901270772
1.4731182795698925
1.447702834799609
1.4213098729227762
1.3958944281524928
1.3714565004887584
1.3499511241446724
1.3313782991202343
1.3157380254154447
1.3020527859237536
1.2883675464320623
1.278592375366569
1.2697947214076246
1.2570869990224829
1.2424242424242424
1.2336265884652982
1.241446725317693
1.278592375366569
1.35386119257087
1.474095796676442
1.6392961876832846
1.844574780058651
2.075268817204301
2.315738025415445
2.5219941348973607
2.6989247311827955
2.873900293255132
3.029325513196481
3.157380254154448
3.254154447702835
3.3225806451612905
3.3655913978494625
3.386119257086999
3.386119257086999
3.367546432062561
3.3313782991202348
3.2844574780058653
3.225806451612903
3.1515151515151514
3.0625610948191597
2.960899315738025
2.849462365591398
2.7311827956989245
2.6099706744868034
2.489736070381232
2.375366568914956
2.2688172043010755
2.1730205278592374
2.089931573802541
2.026392961876833
1.9765395894428155
1.9335288367546437
1.8973607038123168
1.8699902248289344
1.8484848484848484
1.83088954056696
1.8162267839687196
1.801564027370479
1.7849462365591398
1.7683284457478006
1.750733137829912
1.7360703812316716
1.7233626588465298
1.7086999022482894
1.6930596285434996
1.6774193548387095
1.6598240469208212
1.6412512218963833
1.6217008797653958
1.5992179863147604
1.5757575757575757
1.552297165200391
1.5298142717497556
1.5083088954056696
1.4926686217008798
1.479960899315738
1.4633431085043989
1.4467253176930597
1.43108504398827
1.414467253176931
1.396871945259042
1.3782991202346042
1.3587487781036167
1.3372434017595307
1.3176930596285434
1.3079178885630498
1.3118279569892473
1.33822091886608
1.3998044965786902
1.5063538611925709
1.66177908113392
1.8631476050830889
2.0987292277614857
2.3528836754643208
2.606060606060606
2.8406647116324537
3.0449657869012707
3.212121212121212
3.340175953079179
3.4222873900293256
3.4701857282502444
3.5024437927663734
3.5161290322580645
3.5102639296187683
3.487781036168133
3.450635386119257
3.3978494623655915
3.329423264907136
3.24633431085044
3.1495601173020527
3.042033235581622
2.93841642228739
2.834799608993157
2.719452590420332
2.5992179863147604
2.4780058651026398
2.3626588465298144
2.2561094819159337
2.160312805474096
2.0772238514174
2.0087976539589443
1.9530791788856303
1.9100684261974583
1.878787878787879
1.8592375366568916
1.8465298142717497
1.835777126099707
1.827956989247312
1.8201368523949168
1.8113391984359728
1.801564027370479
1.7898338220918866
1.775171065493646
1.758553274682307
1.739980449657869
1.7194525904203324
1.7018572825024438
1.6842619745845553
1.66177908113392
1.6373411534701858
1.611925708699902
1.5884652981427174
1.565982404692082
1.543499511241447
1.521016617790811
1.499511241446725
1.478005865102639
1.458455522971652
1.4408602150537635
1.4281524926686218
1.418377321603128
1.4066471163245358
1.392961876832845
1.3773216031280548
1.3607038123167154
1.346041055718475
1.3421309872922775
1.3607038123167154
1.414467253176931
1.5151515151515151
1.667644183773216
1.8347996089931573
2.022482893450636
2.260019550342131
2.5190615835777126
2.7751710654936463
3.007820136852395
3.203323558162268
3.355816226783969
3.466275659824047
3.5376344086021505
3.5747800586510263
3.5835777126099706
3.5698924731182795
3.539589442815249
3.495601173020528
3.4379276637341154
3.367546432062561
3.286412512218964
3.193548387096774
3.090909090909091
2.979472140762464
2.8611925708699903
2.7390029325513194
2.6158357771261
2.495601173020528
2.3929618768328447
2.302052785923754
2.2111436950146626
2.1270772238514173
2.0547409579667644
1.994134897360704
1.945259042033236
1.9071358748778104
1.8797653958944285
1.8592375366568916
1.844574780058651
1.8318670576735088
1.8211143695014664
1.8132942326490715
1.8054740957966764
1.7174975562072337
1.5894428152492668
1.517106549364614
1.4721407624633431
1.4389051808406648
1.4115347018572826
1.3861192570869991
1.3626588465298142
1.3391984359726294
1.3176930596285434
1.3010752688172045
1.2873900293255132
1.270772238514174
1.2541544477028348
1.2365591397849462
1.219941348973607
1.2043010752688172
1.1886608015640274
1.1730205278592376
1.1564027370478984
1.13880742913001
1.118279569892473
1.0957966764418376
1.0772238514173995
1.064516129032258
1.056695992179863
1.064516129032258
1.1016617790811338
1.176930596285435
1.295210166177908
1.455522971652004
1.6490713587487782
1.86119257086999
2.0772238514174
2.280547409579668
2.439882697947214
2.5610948191593352
2.668621700879765
2.7517106549364616
2.807429130009776
2.8377321603128056
2.84652981427175
2.8377321603128056
2.814271749755621
2.7781036168132944
2.730205278592375
2.6715542521994133
2.6099706744868034
2.5425219941348973
2.4613880742913
2.3704789833822093
2.271749755620724
2.16911045943304
2.064516129032258
1.9618768328445748
1.8641251221896384
1.775171065493646
1.6959921798631477
1.6285434995112416
1.5728250244379276
1.5317693059628543
1.5024437927663734
1.478983382209189
1.4604105571847508
1.4467253176930597
1.436950146627566
1.4281524926686218
1.4193548387096775
1.409579667644184
1.3988269794721409
1.3851417399804498
1.3695014662756595
1.3558162267839686
1.3421309872922775
1.3235581622678396
1.3020527859237536
1.2776148582600195
1.252199413489736
1.2267839687194526
1.2023460410557183
1.1779081133919844
1.155425219941349
1.133919843597263
1.115347018572825
1.0987292277614855
1.0879765395894427
1.0811339198435972
1.072336265884653
1.06158357771261
1.0498533724340176
1.0381231671554252
1.024437927663734
1.0087976539589445
0.9921798631476052
0.9775171065493646
0.967741935483871
0.9726295210166178
0.9931573802541545
1.0371456500488758
1.1192570869990224
1.2434017595307918
1.4086021505376345
1.606060606060606
1.822091886608016
2.042033235581622
2.249266862170088
2.43108504398827
2.5806451612903225
2.695014662756598
2.7751710654936463
2.8211143695014664
2.8406647116324537
2.84652981427175
2.8377321603128056
2.8152492668621703
2.780058651026393
2.7311827956989245
2.670576735092864
2.598240469208211
2.5161290322580645
2.4242424242424243
2.324535679374389
2.23069403714565
2.1407624633431084
2.040078201368524
1.9364613880742916
1.835777126099707
1.7429130009775171
1.6598240469208212
1.5884652981427174
1.5288367546432062
1.479960899315738
1.4408602150537635
1.4105571847507332
1.3870967741935485
1.3714565004887584
1.359726295210166
1.3479960899315735
1.3362658846529814
1.324535679374389
1.3118279569892473
1.2991202346041055
1.2854349951124144
1.2727272727272727
1.2590420332355816
1.2434017595307918
1.2258064516129032
1.2111436950146628
1.198435972629521
1.181818181818182
1.164222873900293
1.1466275659824048
1.1280547409579669
1.110459433040078
1.0928641251221896
1.0772238514173995
1.0625610948191593
1.0488758553274682
1.0361681329423265
1.0254154447702837
1.0195503421309873
1.0146627565982405
1.0058651026392962
0.9941348973607038
0.9804496578690128
0.967741935483871
0.9608993157380256
0.967741935483871
1.0
1.0664711632453567
1.1749755620723363
1.3264907135874875
1.4858260019550342
1.6549364613880744
1.8592375366568916
2.074291300097752
2.278592375366569
2.4594330400782014
2.6070381231671558
2.718475073313783
2.7947214076246336
2.8396871945259043
2.857282502443793
2.8533724340175954
2.83088954056696
2.7966764418377323
2.752688172043011
2.696969696969697
2.63049853372434
2.5542521994134897
2.469208211143695
2.376344086021505
2.27761485826002
2.175953079178885
2.072336265884653
1.9687194525904204
1.869012707722385
1.7849462365591398
1.7135874877810362
1.643206256109482
1.5786901270772238
1.52297165200391
1.4760508308895406
1.4389051808406648
1.4105571847507332
1.3900293255131966
1.375366568914956
1.3655913978494625
1.3587487781036167
1.3528836754643203
1.348973607038123
1.346041055718475
1.3401759530791788
1.3313782991202343
1.3196480938416422
1.305962854349951
1.289345063538612
1.270772238514174
1.2502443792766371
1.227761485826002
1.2052785923753666
1.1837732160312806
1.1681329423264908
1.1544477028347997
1.13880742913001
1.1231671554252198
1.1085043988269794
1.093841642228739
1.0801564027370478
1.067448680351906
1.0557184750733135
1.0449657869012707
1.0342130987292275
1.0205278592375366
1.0048875855327468
0.9921798631476052
0.9824046920821116
0.9745845552297164
0.9775171065493646
1.0039100684261977
1.0664711632453567
1.1730205278592376
1.3255131964809383
1.5190615835777126
