ppg
1.4897360703812317
1.4506353861192571
1.4134897360703813
1.3773216031280548
1.3421309872922775
1.3088954056695992
1.2776148582600195
1.249266862170088
1.2218963831867058
1.2023460410557183
1.187683284457478
1.1700879765395895
1.1515151515151516
1.133919843597263
1.1173020527859236
1.1016617790811338
1.0869990224828934
1.0733137829912025
1.06158357771261
1.0518084066471165
1.0439882697947214
1.0420332355816226
1.043010752688172
1.0439882697947214
1.04594330400782
1.0488758553274682
1.056695992179863
1.0713587487781036
1.093841642228739
1.1290322580645162
1.176930596285435
1.238514173998045
1.3147605083088951
1.4037145650048877
1.4897360703812317
1.576735092864125
1.6774193548387095
1.7869012707722385
1.8983382209188664
2.010752688172043
2.121212121212121
2.251221896383187
2.3655913978494625
2.443792766373412
2.5239491691104594
2.6080156402737047
2.673509286412512
2.721407624633431
2.774193548387097
2.8260019550342133
2.8719452590420333
2.9120234604105573
2.943304007820137
2.9667644183773216
2.9824046920821115
2.9902248289345064
2.9902248289345064
2.981427174975562
2.9657869012707723
2.9442815249266863
2.9159335288367547
2.8826979472140764
2.8455522971652005
2.806451612903226
2.7653958944281527
2.724340175953079
2.6832844574780057
2.6422287390029324
2.6041055718475072
2.56891495601173
2.535679374389052
2.504398826979472
2.4750733137829912
2.443792766373412
2.412512218963832
2.3812316715542523
2.3499511241446727
2.317693059628544
2.2854349951124147
2.2521994134897363
2.217986314760508
2.182795698924731
2.146627565982405
2.1094819159335287
2.075268817204301
2.043010752688172
2.0087976539589443
1.9726295210166176
1.935483870967742
1.8983382209188664
1.8602150537634408
1.822091886608016
1.782991202346041
1.7438905180840665
1.7038123167155426
1.664711632453568
1.632453567937439
1.6021505376344083
1.5679374389051808
1.5347018572825024
1.5034213098729228
1.4721407624633431
1.4428152492668622
1.414467253176931
1.3890518084066472
1.364613880742913
1.3411534701857282
1.3196480938416422
1.300097751710655
1.2864125122189638
1.2766373411534702
1.2639296187683284
1.2512218963831867
1.238514173998045
1.227761485826002
1.2179863147605083
1.2082111436950147
1.2003910068426198
1.1945259042033236
1.1915933528836755
1.1945259042033236
1.2043010752688172
1.219941348973607
1.2434017595307918
1.2756598240469208
1.3176930596285434
1.3724340175953078
1.4389051808406648
1.5141739980449658
1.598240469208211
1.689149560117302
1.782991202346041
1.8797653958944285
1.9872922776148585
2.075268817204301
2.1407624633431084
2.2170087976539588
2.2952101661779083
2.372434017595308
2.4457478005865103
2.5141739980449658
2.575757575757576
2.631476050830889
2.679374389051808
2.717497556207233
2.747800586510264
2.7653958944281527
2.774193548387097
2.780058651026393
2.780058651026393
2.771260997067449
2.755620723362659
2.7341153470185726
2.7067448680351904
2.674486803519061
2.6392961876832843
2.601173020527859
2.563049853372434
2.525904203323558
2.4916911045943304
2.4594330400782014
2.4271749755620724
2.3958944281524928
2.3655913978494625
2.3362658846529816
2.3069403714565007
2.27761485826002
2.249266862170088
2.220918866080156
2.1818181818181817
2.145650048875855
2.1221896383186705
2.096774193548387
2.0557184750733137
2.016617790811339
1.9872922776148585
1.9521016617790807
1.9130009775171064
1.8729227761485825
1.8318670576735088
1.7898338220918866
1.7350928641251222
1.686217008797654
1.651026392961877
1.6177908113391983
1.587487781036168
1.5513196480938416
1.5131964809384164
1.474095796676442
1.4349951124144673
1.3958944281524928
1.3577712609970674
1.321603128054741
1.2873900293255132
1.2541544477028348
1.2228739002932552
1.198435972629521
1.1788856304985338
1.1564027370478984
1.1329423264907137
1.1094819159335287
1.086021505376344
1.0625610948191593
1.0410557184750733
1.0195503421309873
1.0
0.981427174975562
0.9648093841642228
0.9501466275659824
0.9413489736070382
0.93841642228739
0.9345063538611924
0.9315738025415444
0.9325513196480938
0.93841642228739
0.9521016617790812
0.9745845552297164
1.0087976539589445
1.0557184750733135
1.115347018572825
1.203323558162268
1.310850439882698
1.391006842619746
1.458455522971652
1.547409579667644
1.6490713587487782
1.7575757575757576
1.868035190615836
2.004887585532747
2.1270772238514173
2.2355816226783967
2.337243401759531
2.41544477028348
2.498533724340176
2.5562072336265884
2.610948191593353
2.6725317693059627
2.720430107526881
2.7517106549364616
2.774193548387097
2.793743890518084
2.801564027370479
2.8044965786901277
2.7976539589442817
2.7781036168132944
2.7614858260019552
2.736070381231672
2.696969696969697
2.656891495601173
2.6265884652981426
2.590420332355816
2.5405669599217986
2.496578690127077
2.455522971652004
2.4173998044965788
2.3812316715542523
2.346041055718475
2.314760508308896
2.2854349951124147
2.254154447702835
2.222873900293255
2.1915933528836757
2.161290322580645
2.1300097751710654
2.096774193548387
2.0625610948191597
2.027370478983382
1.9902248289345064
1.9521016617790807
1.9120234604105573
1.8758553274682308
1.842619745845552
1.8054740957966764
1.7663734115347018
1.7253176930596286
1.6842619745845553
1.6441837732160314
1.6041055718475072
1.5650048875855327
1.5249266862170088
1.4858260019550342
1.4467253176930597
1.4164222873900294
1.391006842619746
1.3626588465298142
1.3333333333333333
1.3040078201368523
1.2766373411534702
1.2512218963831867
1.2267839687194526
1.2043010752688172
1.1837732160312806
1.164222873900293
1.144672531769306
1.1270772238514175
1.1163245356793745
1.1094819159335287
1.099706744868035
1.0879765395894427
1.075268817204301
1.0635386119257086
1.0547409579667644
1.0488758553274682
1.04594330400782
1.0449657869012707
1.04594330400782
1.0488758553274682
1.056695992179863
1.0713587487781036
1.0909090909090908
1.1173020527859236
1.1544477028347997
1.203323558162268
1.2649071358748778
1.3401759530791788
1.4271749755620724
1.5249266862170088
1.6304985337243405
1.7409579667644184
1.8543499511241448
1.95405669599218
2.0449657869012707
2.142717497556207
2.241446725317693
2.3362658846529816
2.423264907135875
2.5034213098729228
2.5747800586510263
2.6373411534701856
2.69208211143695
2.73802541544477
2.774193548387097
2.795698924731183
2.8054740957966766
2.8103616813294234
2.8084066471163247
2.80058651026393
2.7869012707722387
2.766373411534702
2.739980449657869
2.708699902248289
2.674486803519061
2.6392961876832843
2.6041055718475072
2.56891495601173
2.5376344086021505
2.5083088954056696
2.4789833822091887
2.4516129032258065
2.4252199413489737
2.398826979472141
2.3714565004887587
2.3822091886608017
2.410557184750733
2.409579667644184
2.3929618768328447
2.366568914956012
2.3391984359726297
2.3098729227761488
2.2766373411534704
2.2404692082111435
2.201368523949169
2.160312805474096
2.118279569892473
2.0762463343108504
2.035190615835777
1.9951124144672527
1.956989247311828
1.920821114369501
1.8856304985337244
1.855327468230694
1.827956989247312
1.796676441837732
1.7634408602150538
1.7272727272727273
1.6881720430107527
1.6471163245356797
1.6050830889540566
1.5620723362658846
1.520039100684262
1.479960899315738
1.4428152492668622
1.414467253176931
1.3919843597262953
1.3695014662756595
1.3499511241446724
1.332355816226784
1.3157380254154447
1.300097751710655
1.2834799608993157
1.262952101661779
1.2365591397849462
1.206256109481916
1.173998044965787
1.1466275659824048
1.133919843597263
1.1348973607038124
1.1466275659824048
1.1681329423264908
1.198435972629521
1.2336265884652982
1.2688172043010753
1.3040078201368523
1.3401759530791788
1.3812316715542523
1.4301075268817205
1.4887585532746823
1.5503421309872922
1.616813294232649
1.6979472140762464
1.790811339198436
1.89247311827957
2.0009775171065494
2.1163245356793743
2.233626588465298
2.3499511241446727
2.4652981427174976
2.576735092864125
2.681329423264907
2.7781036168132944
2.8533724340175954
2.9120234604105573
2.9696969696969697
3.022482893450636
3.067448680351906
3.101661779081134
3.126099706744868
3.1407624633431084
3.146627565982405
3.145650048875855
3.136852394916911
3.120234604105572
3.096774193548387
3.067448680351906
3.034213098729228
2.9980449657869013
2.959921798631476
2.920821114369501
2.884652981427175
2.849462365591398
2.8152492668621703
2.782991202346041
2.750733137829912
2.719452590420332
2.689149560117302
2.66177908113392
2.636363636363636
2.6099706744868034
2.5835777126099706
2.5562072336265884
2.5268817204301075
2.495601173020528
2.462365591397849
2.426197458455523
2.389051808406647
2.3499511241446727
2.310850439882698
2.274682306940372
2.2404692082111435
2.2023460410557183
2.163245356793744
2.12316715542522
2.0821114369501466
2.042033235581622
2.0019550342130987
1.959921798631476
1.916911045943304
1.871945259042033
1.8240469208211143
1.7820136852394917
1.7409579667644184
1.694037145650049
1.6441837732160314
1.5943304007820136
1.5454545454545454
1.498533724340176
1.4535679374389052
1.4115347018572826
1.3724340175953078
1.3362658846529814
1.3040078201368523
1.2746823069403714
1.2531769305962854
1.2355816226783969
1.2140762463343109
1.1906158357771262
1.166177908113392
1.1407624633431086
1.1163245356793745
1.0928641251221896
1.0713587487781036
1.050830889540567
1.0312805474095796
1.0146627565982405
1.0058651026392962
1.0039100684261977
1.0039100684261977
1.0087976539589445
1.0224828934506354
1.0478983382209188
1.0879765395894427
1.1436950146627567
1.2140762463343109
1.2971652003910068
1.3900293255131966
1.4916911045943304
1.5992179863147604
1.696969696969697
1.7888563049853372
1.889540566959922
1.992179863147605
2.093841642228739
2.1925708699902247
2.2854349951124147
2.372434017595308
2.450635386119257
2.5210166177908118
2.5835777126099706
2.6373411534701856
2.674486803519061
2.7008797653958942
2.7262952101661777
2.744868035190616
2.755620723362659
2.758553274682307
2.752688172043011
2.7390029325513194
2.718475073313783
2.6940371456500487
2.6666666666666665
2.6373411534701856
2.6080156402737047
2.581622678396872
2.557184750733138
2.532746823069404
2.5083088954056696
2.484848484848485
2.462365591397849
2.439882697947214
2.418377321603128
2.3978494623655915
2.378299120234604
2.357771260997068
2.337243401759531
2.317693059628544
2.2981427174975564
2.275659824046921
2.251221896383187
2.222873900293255
2.1915933528836757
2.157380254154448
2.1221896383186705
2.085043988269794
2.046920821114369
2.0087976539589443
1.9696969696969695
1.9296187683284456
1.8944281524926687
1.86119257086999
1.822091886608016
1.7820136852394917
1.7409579667644184
1.7018572825024438
1.6666666666666667
1.635386119257087
1.6129032258064515
1.6011730205278591
1.603128054740958
1.6207233626588464
1.6480938416422288
1.686217008797654
1.7409579667644184
1.8093841642228736
1.8885630498533723
1.9736070381231672
2.06158357771261
2.150537634408602
2.2375366568914954
2.320625610948192
2.398826979472141
2.469208211143695
2.5317693059628543
2.578690127077224
2.613880742913001
2.649071358748778
2.678396871945259
2.701857282502444
2.717497556207233
2.7253176930596283
2.7253176930596283
2.717497556207233
2.7038123167155423
2.684261974584555
2.659824046920821
2.632453567937439
2.603128054740958
2.5698924731182795
2.533724340175953
2.4975562072336266
2.463343108504399
2.43108504398827
2.401759530791789
2.3743890518084068
2.3489736070381237
2.326490713587488
2.3069403714565007
2.2883675464320627
2.271749755620724
2.233626588465298
2.1847507331378297
2.150537634408602
2.12316715542522
2.0987292277614857
2.0733137829912023
2.046920821114369
2.018572825024438
1.988269794721408
1.956989247311828
1.9237536656891496
1.8944281524926687
1.8670576735092863
1.836754643206256
1.8035190615835777
1.7683284457478006
1.732160312805474
1.6959921798631477
1.6608015640273706
1.6256109481915937
1.5913978494623655
1.5571847507331378
1.52297165200391
1.4897360703812317
1.4643206256109482
1.4418377321603129
1.41544477028348
1.388074291300098
1.3607038123167154
1.3333333333333333
1.305962854349951
1.2805474095796676
1.2570869990224829
1.2355816226783969
1.2160312805474096
1.198435972629521
1.187683284457478
1.181818181818182
1.173998044965787
1.1652003910068427
1.1564027370478984
1.1485826001955035
1.142717497556207
1.1378299120234605
1.133919843597263
1.1329423264907137
1.133919843597263
1.1397849462365592
1.1515151515151516
1.1710654936461389
1.1974584555229717
1.2346041055718475
1.284457478005865
1.3470185728250244
1.4242424242424243
1.5151515151515151
1.616813294232649
1.7272727272727273
1.8435972629521016
1.963831867057673
2.085043988269794
2.189638318670577
2.2825024437927666
2.383186705767351
2.4838709677419355
2.578690127077224
2.667644183773216
2.747800586510264
2.819159335288368
2.8807429130009776
2.932551319648094
2.9745845552297165
3.0087976539589443
3.029325513196481
3.040078201368524
3.047898338220919
3.0518084066471163
3.048875855327468
3.038123167155425
3.0205278592375366
2.9980449657869013
2.9687194525904204
2.9345063538611926
2.897360703812317
2.8582600195503423
2.817204301075269
2.777126099706745
2.7390029325513194
2.7008797653958942
2.662756598240469
2.625610948191593
2.5884652981427174
2.5532746823069403
2.5190615835777126
2.4858260019550342
2.453567937438905
2.421309872922776
2.3900293255131966
2.360703812316716
2.332355816226784
2.303030303030303
2.271749755620724
2.239491691104594
2.206256109481916
2.172043010752688
2.136852394916911
2.099706744868035
2.060606060606061
2.0205278592375366
1.9794721407624636
1.93841642228739
1.902248289345064
1.868035190615836
1.8299120234604105
1.790811339198436
1.750733137829912
1.7086999022482894
1.667644183773216
1.6265884652981428
1.5884652981427174
1.5513196480938416
1.5151515151515151
1.4819159335288368
1.456500488758553
1.435972629521017
1.41544477028348
1.3988269794721409
1.3890518084066472
1.3890518084066472
1.3998044965786902
1.4213098729227762
1.4545454545454546
1.498533724340176
1.552297165200391
1.611925708699902
1.6774193548387095
1.7380254154447703
1.7956989247311828
1.858260019550342
1.9237536656891496
1.989247311827957
2.0518084066471163
2.1114369501466275
2.166177908113392
2.2140762463343107
2.2561094819159337
2.291300097751711
2.3196480938416424
2.3382209188660803
2.347996089931574
2.3528836754643208
2.3519061583577714
2.3440860215053765
2.3284457478005867
2.3069403714565007
2.281524926686217
2.2531769305962857
2.2248289345063537
2.196480938416422
2.16911045943304
2.1417399804496577
2.1192570869990224
2.099706744868035
2.080156402737048
2.06158357771261
2.0449657869012707
2.0303030303030303
2.0146627565982405
1.9980449657869013
1.9804496578690127
1.9618768328445748
1.9423264907135875
1.920821114369501
1.9012707722385145
1.881720430107527
1.8563049853372435
1.827956989247312
1.7976539589442817
1.7653958944281525
1.7311827956989247
1.6959921798631477
1.6598240469208212
1.6236559139784943
1.5865102639296187
1.5493646138807429
1.5112414467253177
1.478983382209189
1.4516129032258065
1.4203323558162269
1.388074291300098
1.3558162267839686
1.324535679374389
1.2932551319648091
1.262952101661779
1.2346041055718475
1.2072336265884651
1.181818181818182
1.1583577712609971
1.142717497556207
1.1300097751710656
1.1143695014662756
1.0987292277614855
1.083088954056696
1.0694037145650048
1.0586510263929618
1.0498533724340176
1.043010752688172
1.0381231671554252
1.035190615835777
1.0332355816226784
1.0332355816226784
1.0391006842619743
1.0478983382209188
1.0547409579667644
1.0625610948191593
1.0713587487781036
1.0821114369501466
1.0948191593352885
1.110459433040078
1.130987292277615
1.1573802541544478
1.1915933528836755
1.2365591397849462
1.2864125122189638
1.3440860215053765
1.418377321603128
1.5063538611925709
1.606060606060606
1.715542521994135
1.8318670576735088
1.9521016617790807
2.0733137829912023
2.1925708699902247
2.30791788856305
2.418377321603128
2.5210166177908118
2.603128054740958
2.6725317693059627
2.7438905180840663
2.812316715542522
2.874877810361681
2.930596285434995
2.978494623655914
3.0175953079178885
3.047898338220919
3.069403714565005
3.0840664711632453
3.089931573802541
3.085043988269794
3.070381231671554
3.0518084066471163
3.027370478983382
2.997067448680352
2.962854349951124
2.9237536656891496
2.881720430107527
2.81622678396872
2.739980449657869
2.6803519061583576
2.63049853372434
2.5865102639296187
2.548387096774193
2.5141739980449658
2.479960899315738
2.44672531769306
2.41544477028348
2.3851417399804498
2.3548387096774195
2.324535679374389
2.2961876832844577
2.267839687194526
2.239491691104594
2.2111436950146626
2.1847507331378297
2.160312805474096
2.133919843597263
2.1055718475073317
2.075268817204301
2.0439882697947214
2.0127077223851417
1.981427174975562
1.9501466275659824
1.919843597262952
1.8885630498533723
1.8563049853372435
1.822091886608016
1.793743890518084
1.7683284457478006
1.7390029325513197
1.7067448680351909
1.6735092864125125
1.6412512218963833
1.6099706744868034
1.5806451612903225
1.5542521994134897
1.5317693059628543
1.5151515151515151
1.5063538611925709
1.504398826979472
1.5112414467253177
1.5278592375366569
1.555229716520039
1.5923753665689149
1.640273704789834
1.6959921798631477
1.7575757575757576
1.8240469208211143
1.89247311827957
1.9618768328445748
2.0303030303030303
2.0879765395894427
2.139784946236559
2.1945259042033234
2.2482893450635384
2.2981427174975564
2.343108504398827
2.3812316715542523
2.412512218963832
2.4349951124144678
2.447702834799609
2.453567937438905
2.450635386119257
2.4408602150537635
2.4252199413489737
2.404692082111437
2.3792766373411536
2.3499511241446727
2.318670576735093
2.2854349951124147
2.2531769305962857
2.2218963831867056
2.1925708699902247
2.166177908113392
2.1417399804496577
2.120234604105572
2.101661779081134
2.086021505376344
2.069403714565005
2.0527859237536656
2.0361681329423265
2.0195503421309877
2.0019550342130987
1.9843597262952104
1.9657869012707725
1.945259042033236
1.9227761485826005
1.8973607038123168
1.869012707722385
1.8435972629521016
1.818181818181818
1.7878787878787878
1.7546432062561097
1.7194525904203324
1.6823069403714566
1.643206256109482
1.6041055718475072
1.5650048875855327
1.5268817204301075
1.4887585532746823
1.452590420332356
1.423264907135875
1.3988269794721409
1.370478983382209
1.3401759530791788
1.3098729227761483
1.2825024437927663
1.2590420332355816
1.2424242424242424
1.2346041055718475
1.2375366568914956
1.252199413489736
1.278592375366569
1.3157380254154447
1.3577712609970674
1.4066471163245358
1.4652981427174976
1.5298142717497556
1.5992179863147604
1.6715542521994136
1.7429130009775171
1.8103616813294232
1.873900293255132
1.9335288367546437
1.989247311827957
2.038123167155425
2.075268817204301
2.104594330400782
2.131964809384164
2.15347018572825
2.1681329423264906
2.176930596285435
2.177908113391984
2.172043010752688
2.160312805474096
2.1436950146627565
2.124144672531769
2.101661779081134
2.078201368523949
2.056695992179863
2.038123167155425
2.0195503421309877
2.0019550342130987
1.986314760508309
1.9736070381231672
1.962854349951124
1.9530791788856303
1.945259042033236
1.93841642228739
1.9315738025415443
1.924731182795699
1.9178885630498532
1.9100684261974583
1.9012707722385145
1.8914956011730208
1.8797653958944285
1.866080156402737
1.8504398826979471
1.833822091886608
1.8162267839687196
1.7976539589442817
1.7771260997067448
1.7556207233626588
1.732160312805474
1.710654936461388
1.6911045943304008
1.6686217008797657
1.643206256109482
1.6158357771260996
1.5884652981427174
1.5591397849462365
1.5278592375366569
1.495601173020528
1.4643206256109482
1.434017595307918
1.4037145650048877
1.3792766373411536
1.3607038123167154
1.3391984359726294
1.3176930596285434
1.2961876832844574
1.2746823069403714
1.2531769305962854
1.2326490713587488
1.2140762463343109
1.1974584555229717
1.181818181818182
1.1681329423264908
1.1573802541544478
1.1515151515151516
1.1505376344086022
1.147605083088954
1.1436950146627567
1.1397849462365592
1.1358748778103618
1.133919843597263
1.1329423264907137
1.1348973607038124
1.13880742913001
1.144672531769306
1.1534701857282503
1.166177908113392
1.1827956989247312
1.2052785923753666
1.2365591397849462
1.2795698924731185
1.335288367546432
1.404692082111437
1.4887585532746823
1.585532746823069
1.6920821114369502
1.8054740957966764
1.921798631476051
2.0391006842619745
2.139784946236559
2.2297165200391005
2.326490713587488
2.4222873900293256
2.5131964809384164
2.598240469208211
2.67644183773216
2.7468230694037143
2.809384164222874
2.8641251221896384
2.911045943304008
2.951124144672532
2.9775171065493646
2.994134897360704
3.0097751710654936
3.018572825024438
3.021505376344086
3.0175953079178885
3.004887585532747
2.98435972629521
2.956989247311828
2.9237536656891496
2.8856304985337244
2.8426197458455524
2.7976539589442817
2.7546432062561097
2.7126099706744866
2.6695992179863146
2.6265884652981426
2.58455522971652
2.544477028347996
2.50733137829912
2.4731182795698925
2.439882697947214
2.407624633431085
2.375366568914956
2.3440860215053765
2.3167155425219943
2.289345063538612
2.242424242424242
2.185728250244379
2.1407624633431084
2.102639296187683
2.0664711632453567
2.0303030303030303
1.9951124144672527
1.9589442815249267
1.921798631476051
1.8856304985337244
1.8533724340175952
1.8240469208211143
1.7898338220918866
1.75366568914956
1.7165200391006843
1.678396871945259
1.640273704789834
1.603128054740958
1.565982404692082
1.5288367546432062
1.4926686217008798
1.458455522971652
1.4252199413489737
1.3988269794721409
1.3763440860215057
1.3499511241446724
1.3225806451612905
1.295210166177908
1.2688172043010753
1.2434017595307918
1.2189638318670577
1.1974584555229717
1.1779081133919844
1.160312805474096
1.144672531769306
1.1348973607038124
1.1280547409579669
1.118279569892473
1.1085043988269794
1.1006842619745845
1.0928641251221896
1.0869990224828934
1.083088954056696
1.0801564027370478
1.078201368523949
1.0791788856304985
1.083088954056696
1.0928641251221896
1.1085043988269794
1.130987292277615
1.164222873900293
1.2101661779081134
1.270772238514174
1.343108504398827
1.4281524926686218
1.52297165200391
1.624633431085044
1.7311827956989247
1.8387096774193548
1.946236559139785
2.038123167155425
2.120234604105572
2.2082111436950145
2.2961876832844577
2.380254154447703
2.4574780058651027
2.525904203323558
2.58455522971652
2.633431085043988
2.6715542521994133
2.697947214076246
2.713587487781036
2.720430107526881
2.717497556207233
2.70772238514174
2.69208211143695
2.6715542521994133
2.644183773216031
2.611925708699902
2.576735092864125
2.5386119257087
2.4995112414467253
2.4604105571847508
2.4222873900293256
2.386119257086999
2.3528836754643208
2.3225806451612905
2.29227761485826
2.2639296187683287
2.2375366568914954
2.212121212121212
2.188660801564027
2.1652003910068425
2.142717497556207
2.1192570869990224
2.0957966764418376
2.071358748778104
2.04594330400782
2.021505376344086
1.9980449657869013
1.9696969696969695
1.9393939393939397
1.9071358748778104
1.873900293255132
1.8387096774193548
1.8025415444770283
1.7663734115347018
1.729227761485826
1.6911045943304008
1.6529814271749756
1.6226783968719452
1.595307917888563
1.564027370478983
1.5317693059628543
1.500488758553275
1.4711632453567938
1.4437927663734116
1.4213098729227762
1.4056695992179864
1.3998044965786902
1.4066471163245358
1.4281524926686218
1.4633431085043989
1.5034213098729228
1.5513196480938416
1.6138807429130009
1.6852394916911049
1.761485826001955
1.8406647116324533
1.9188660801564028
