ppg
1.8602150537634408
1.826001955034213
1.793743890518084
1.7624633431085044
1.732160312805474
1.7018572825024438
1.6705767350928642
1.6383186705767352
1.6050830889540566
1.5708699902248289
1.541544477028348
1.5141739980449658
1.482893450635386
1.4506353861192571
1.418377321603128
1.3870967741935485
1.3577712609970674
1.3304007820136852
1.3049853372434017
1.281524926686217
1.2590420332355816
1.238514173998045
1.2189638318670577
1.2043010752688172
1.1935483870967742
1.1798631476050832
1.166177908113392
1.1534701857282503
1.1407624633431086
1.1280547409579669
1.115347018572825
1.1036168132942326
1.0918866080156402
1.0811339198435972
1.0703812316715542
1.064516129032258
1.0606060606060606
1.0547409579667644
1.0488758553274682
1.043010752688172
1.0371456500488758
1.032258064516129
1.0283479960899315
1.024437927663734
1.021505376344086
1.0175953079178883
1.013685239491691
1.010752688172043
1.010752688172043
1.0127077223851415
1.013685239491691
1.013685239491691
1.0127077223851415
1.0117302052785924
1.0117302052785924
1.010752688172043
1.0097751710654936
1.0087976539589445
1.007820136852395
1.007820136852395
1.0127077223851415
1.024437927663734
1.0439882697947214
1.078201368523949
1.1319648093841643
1.2111436950146628
1.316715542521994
1.4467253176930597
1.595307917888563
1.7575757575757576
1.924731182795699
2.089931573802541
2.225806451612903
2.340175953079179
2.455522971652004
2.560117302052786
2.6510263929618767
2.727272727272727
2.789833822091887
2.8406647116324537
2.881720430107527
2.9149560117302054
2.9423264907135875
2.963831867057673
2.979472140762464
2.983382209188661
2.979472140762464
2.972629521016618
2.959921798631476
2.9393939393939394
2.90811339198436
2.8670576735092865
2.81622678396872
2.755620723362659
2.686217008797654
2.608993157380254
2.5268817204301075
2.449657869012708
2.376344086021505
2.2981427174975564
2.219941348973607
2.146627565982405
2.0791788856304985
2.018572825024438
1.9657869012707725
1.919843597262952
1.8797653958944285
1.8435972629521016
1.8113391984359728
1.7810361681329423
1.7546432062561097
1.7302052785923754
1.7028347996089932
1.672531769305963
1.640273704789834
1.607038123167155
1.5728250244379276
1.5386119257087
1.5034213098729228
1.469208211143695
1.435972629521017
1.4037145650048877
1.3782991202346042
1.356793743890518
1.332355816226784
1.3079178885630498
1.2834799608993157
1.260019550342131
1.238514173998045
1.2179863147605083
1.1994134897360704
1.1808406647116323
1.164222873900293
1.1485826001955035
1.1348973607038124
1.126099706744868
1.1202346041055715
1.1114369501466277
1.1016617790811338
1.0918866080156402
1.083088954056696
1.0742913000977516
1.0664711632453567
1.0596285434995112
1.0527859237536656
1.0449657869012707
1.0381231671554252
1.0361681329423265
1.0361681329423265
1.0332355816226784
1.0303030303030305
1.0263929618768328
1.0224828934506354
1.018572825024438
1.0146627565982405
1.010752688172043
1.007820136852395
1.0068426197458455
1.0058651026392962
1.0058651026392962
1.0087976539589445
1.013685239491691
1.0156402737047898
1.0156402737047898
1.0156402737047898
1.0146627565982405
1.0127077223851415
1.0127077223851415
1.0166177908113392
1.029325513196481
1.0547409579667644
1.099706744868035
1.1564027370478984
1.2297165200391007
1.3343108504398826
1.4652981427174976
1.6177908113391983
1.7820136852394917
1.951124144672532
2.1163245356793743
2.260019550342131
2.3822091886608017
2.49266862170088
2.587487781036168
2.6666666666666665
2.721407624633431
2.760508308895406
2.798631476050831
2.831867057673509
2.859237536656892
2.881720430107527
2.897360703812317
2.9071358748778104
2.9100684261974585
2.905180840664712
2.89247311827957
2.8699902248289346
2.8406647116324537
2.803519061583578
2.7565982404692084
2.701857282502444
2.638318670576735
2.5669599217986314
2.4887585532746823
2.404692082111437
2.318670576735093
2.232649071358749
2.1485826001955037
2.069403714565005
1.997067448680352
1.93841642228739
1.8905180840664717
1.8455522971652003
1.804496578690127
1.7683284457478006
1.7350928641251222
1.7057673509286413
1.6774193548387095
1.651026392961877
1.624633431085044
1.5992179863147604
1.5728250244379276
1.5503421309872922
1.5298142717497556
1.5063538611925709
1.4819159335288368
1.456500488758553
1.43108504398827
1.4056695992179864
1.3812316715542523
1.356793743890518
1.3343108504398826
1.313782991202346
1.2942326490713587
1.2746823069403714
1.260019550342131
1.2482893450635386
1.2336265884652982
1.219941348973607
1.2052785923753666
1.1915933528836755
1.1779081133919844
1.166177908113392
1.1544477028347997
1.1436950146627567
1.133919843597263
1.1251221896383188
1.1192570869990224
1.115347018572825
1.1085043988269794
1.1006842619745845
1.0928641251221896
1.086021505376344
1.0801564027370478
1.0742913000977516
1.0694037145650048
1.0654936461388074
1.06158357771261
1.0576735092864125
1.053763440860215
1.0527859237536656
1.0547409579667644
1.053763440860215
1.0527859237536656
1.050830889540567
1.0498533724340176
1.0488758553274682
1.0488758553274682
1.0488758553274682
1.0478983382209188
1.0469208211143697
1.0449657869012707
1.04594330400782
1.0478983382209188
1.0488758553274682
1.0518084066471165
1.0606060606060606
1.0791788856304985
1.115347018572825
1.1720430107526882
1.2541544477028348
1.3616813294232648
1.4926686217008798
1.643206256109482
1.8054740957966764
1.949169110459433
2.0791788856304985
2.2170087976539588
2.3499511241446727
2.4711632453567938
2.575757575757576
2.664711632453568
2.73802541544477
2.798631476050831
2.8484848484848486
2.889540566959922
2.9237536656891496
2.9442815249266863
2.9550342130987293
2.9667644183773216
2.975562072336266
2.978494623655914
2.9745845552297165
2.962854349951124
2.9423264907135875
2.9120234604105573
2.870967741935484
2.820136852394917
2.760508308895406
2.697947214076246
2.632453567937439
2.558162267839687
2.4780058651026398
2.3949169110459434
2.312805474095797
2.233626588465298
2.1593352883675463
2.09188660801564
2.03128054740958
1.978494623655914
1.932551319648094
1.89247311827957
1.8602150537634408
1.8318670576735088
1.8035190615835777
1.7741935483870968
1.7448680351906158
1.7135874877810362
1.6803519061583578
1.6471163245356797
1.6129032258064515
1.5777126099706744
1.543499511241447
1.509286412512219
1.4819159335288368
1.457478005865103
1.4301075268817205
1.401759530791789
1.3743890518084063
1.3479960899315735
1.3225806451612905
1.2981427174975562
1.2746823069403714
1.2531769305962854
1.2326490713587488
1.2140762463343109
1.1964809384164223
1.1837732160312806
1.1730205278592376
1.160312805474096
1.147605083088954
1.133919843597263
1.121212121212121
1.1094819159335287
1.0987292277614855
1.0879765395894427
1.0772238514173995
1.067448680351906
1.0596285434995112
1.0557184750733135
1.0547409579667644
1.0518084066471165
1.0478983382209188
1.0439882697947214
1.0391006842619743
1.035190615835777
1.0303030303030305
1.0263929618768328
1.0224828934506354
1.0195503421309873
1.0175953079178883
1.0156402737047898
1.0166177908113392
1.0195503421309873
1.0205278592375366
1.021505376344086
1.021505376344086
1.0205278592375366
1.0195503421309873
1.018572825024438
1.0166177908113392
1.013685239491691
1.0117302052785924
1.0127077223851415
1.0205278592375366
1.0371456500488758
1.067448680351906
1.1173020527859236
1.1906158357771262
1.289345063538612
1.4134897360703813
1.5581622678396871
1.7174975562072337
1.8826979472140764
2.0449657869012707
2.198435972629521
2.3382209188660803
2.4457478005865103
2.530791788856305
2.6129032258064515
2.687194525904203
2.750733137829912
2.803519061583578
2.8475073313782997
2.884652981427175
2.913978494623656
2.9374389051808407
2.9550342130987293
2.9667644183773216
2.967741935483871
2.9589442815249267
2.946236559139785
2.927663734115347
2.900293255131965
2.863147605083089
2.817204301075269
2.760508308895406
2.6959921798631474
2.622678396871945
2.544477028347996
2.462365591397849
2.378299120234604
2.303030303030303
2.2346041055718477
2.164222873900293
2.0977517106549364
2.037145650048876
1.9833822091886608
1.935483870967742
1.8934506353861196
1.855327468230694
1.8211143695014664
1.7878787878787878
1.7556207233626588
1.7272727272727273
1.7018572825024438
1.6735092864125125
1.643206256109482
1.611925708699902
1.5786901270772238
1.544477028347996
1.5102639296187683
1.4760508308895406
1.4418377321603129
1.409579667644184
1.3792766373411536
1.3499511241446724
1.3264907135874875
1.3069403714565004
1.2854349951124144
1.262952101661779
1.2404692082111437
1.2189638318670577
1.1974584555229717
1.1779081133919844
1.160312805474096
1.1436950146627567
1.1290322580645162
1.1163245356793745
1.10752688172043
1.1006842619745845
1.0918866080156402
1.0821114369501466
1.0733137829912025
1.064516129032258
1.0557184750733135
1.0478983382209188
1.040078201368524
1.0332355816226784
1.0263929618768328
1.0205278592375366
1.0156402737047898
1.013685239491691
1.0146627565982405
1.0127077223851415
1.0097751710654936
1.0058651026392962
1.0019550342130987
0.9980449657869012
0.9951124144672532
0.9931573802541545
0.9921798631476052
0.9921798631476052
0.9931573802541545
0.997067448680352
1.0009775171065494
1.002932551319648
1.002932551319648
1.0019550342130987
1.0
0.9980449657869012
0.9980449657869012
1.0039100684261977
1.021505376344086
1.0547409579667644
1.110459433040078
1.1906158357771262
1.2795698924731185
1.3822091886608017
1.5151515151515151
1.6686217008797657
1.8328445747800584
1.9980449657869013
2.155425219941349
2.300097751710655
2.4281524926686218
2.536656891495601
2.627565982404692
2.702834799608993
2.7546432062561097
2.791788856304985
2.827956989247312
2.859237536656892
2.8856304985337244
2.905180840664712
2.918866080156403
2.924731182795699
2.921798631476051
2.9100684261974585
2.889540566959922
2.8582600195503423
2.820136852394917
2.7751710654936463
2.720430107526881
2.654936461388074
2.581622678396872
2.501466275659824
2.4173998044965788
2.3313782991202348
2.24633431085044
2.166177908113392
2.093841642228739
2.03128054740958
1.978494623655914
1.9374389051808407
1.906158357771261
1.8778103616813293
1.8533724340175952
1.8318670576735088
1.8103616813294232
1.7888563049853372
1.7673509286412512
1.7438905180840665
1.7194525904203324
1.6930596285434996
1.6666666666666667
1.6422287390029326
1.619745845552297
1.5933528836754642
1.5650048875855327
1.5356793743890518
1.5053763440860215
1.4750733137829912
1.444770283479961
1.4134897360703813
1.3822091886608017
1.3519061583577712
1.321603128054741
1.29227761485826
1.2688172043010753
1.2482893450635386
1.2267839687194526
1.2052785923753666
1.18475073313783
1.166177908113392
1.1485826001955035
1.133919843597263
1.121212121212121
1.1094819159335287
1.099706744868035
1.0928641251221896
1.0899315738025417
1.0899315738025417
1.088954056695992
1.0879765395894427
1.0879765395894427
1.0879765395894427
1.0869990224828934
1.086021505376344
1.0850439882697946
1.0840664711632453
1.0821114369501466
1.0791788856304985
1.075268817204301
1.0733137829912025
1.072336265884653
1.0694037145650048
1.064516129032258
1.0586510263929618
1.0527859237536656
1.0469208211143697
1.0410557184750733
1.0342130987292275
1.0273704789833822
1.0205278592375366
1.013685239491691
1.0097751710654936
1.0087976539589445
1.007820136852395
1.0117302052785924
1.0263929618768328
1.0586510263929618
1.1143695014662756
1.1974584555229717
1.3079178885630498
1.4437927663734116
1.5992179863147604
1.7663734115347018
1.93841642228739
2.085043988269794
2.212121212121212
2.343108504398827
2.466275659824047
2.5747800586510263
2.667644183773216
2.745845552297165
2.8103616813294234
2.8641251221896384
2.90811339198436
2.943304007820137
2.9716520039100685
2.9872922776148583
2.994134897360704
3.0
3.0019550342130987
2.9960899315738025
2.983382209188661
2.961876832844575
2.9315738025415445
2.8905180840664717
2.8396871945259043
2.779081133919844
2.710654936461388
2.634408602150537
2.5610948191593352
2.487781036168133
2.407624633431085
2.324535679374389
2.243401759530792
2.167155425219941
2.096774193548387
2.034213098729228
1.9804496578690127
1.9335288367546437
1.8914956011730208
1.8543499511241448
1.825024437927664
1.7986314760508308
1.7702834799608993
1.7419354838709675
1.7126099706744868
1.683284457478006
1.653958944281525
1.6236559139784943
1.5923753665689149
1.560117302052786
1.5268817204301075
1.4936461388074291
1.4604105571847508
1.434017595307918
1.4105571847507332
1.3841642228739004
1.356793743890518
1.3304007820136852
1.3049853372434017
1.2805474095796676
1.2570869990224829
1.2346041055718475
1.2121212121212122
1.1915933528836755
1.1720430107526882
1.1583577712609971
1.1485826001955035
1.1358748778103618
1.1231671554252198
1.1114369501466277
1.099706744868035
1.0899315738025417
1.0811339198435972
1.072336265884653
1.064516129032258
1.0576735092864125
1.0518084066471165
1.0469208211143697
1.04594330400782
1.04594330400782
1.043010752688172
1.040078201368524
1.0361681329423265
1.032258064516129
1.0283479960899315
1.0254154447702837
1.0234604105571847
1.0234604105571847
1.021505376344086
1.0195503421309873
1.0205278592375366
1.0224828934506354
1.0234604105571847
1.0224828934506354
1.0205278592375366
1.018572825024438
1.0156402737047898
1.0127077223851415
1.0097751710654936
1.0087976539589445
1.0117302052785924
1.0224828934506354
1.0478983382209188
1.0840664711632453
1.1358748778103618
1.2150537634408602
1.3225806451612905
1.4535679374389052
1.6041055718475072
1.7673509286412512
1.9345063538611929
2.0977517106549364
2.251221896383187
2.3900293255131966
2.5102639296187683
2.5992179863147604
2.667644183773216
2.732160312805474
2.789833822091887
2.838709677419355
2.8797653958944283
2.913978494623656
2.941348973607038
2.962854349951124
2.9775171065493646
2.9853372434017595
2.986314760508309
2.979472140762464
2.962854349951124
2.9374389051808407
2.906158357771261
2.8670576735092865
2.8181818181818183
2.760508308895406
2.6940371456500487
2.619745845552297
2.539589442815249
2.4565004887585533
2.3714565004887587
2.2883675464320627
2.2160312805474094
2.1515151515151514
2.0869990224828934
2.026392961876833
1.9726295210166176
1.924731182795699
1.881720430107527
1.842619745845552
1.8084066471163245
1.7761485826001957
1.7458455522971652
1.715542521994135
1.689149560117302
1.664711632453568
1.6363636363636365
1.606060606060606
1.5747800586510263
1.541544477028348
1.5083088954056696
1.4750733137829912
1.4418377321603129
1.409579667644184
1.3782991202346042
1.3479960899315735
1.3206256109481915
1.2991202346041055
1.2805474095796676
1.260019550342131
1.2394916911045943
1.2179863147605083
1.1974584555229717
1.1779081133919844
1.160312805474096
1.144672531769306
1.1300097751710656
1.1163245356793745
1.1036168132942326
1.0957966764418376
1.0909090909090908
1.083088954056696
1.075268817204301
1.0039100684261977
1.0058651026392962
1.013685239491691
1.0342130987292275
1.0713587487781036
1.130987292277615
1.217008797653959
1.3294232649071358
1.4643206256109482
1.5943304007820136
1.7243401759530792
1.8748778103616808
2.0303030303030303
2.1808406647116323
2.318670576735093
2.4408602150537635
2.5454545454545454
2.632453567937439
2.704789833822092
2.7653958944281527
2.8152492668621703
2.8475073313782997
2.8699902248289346
2.89247311827957
2.9120234604105573
2.9266862170087977
2.935483870967742
2.9374389051808407
2.930596285434995
2.9159335288367547
2.8914956011730206
2.857282502443793
2.8132942326490715
2.7595307917888565
2.702834799608993
2.641251221896383
2.5698924731182795
2.4916911045943304
2.410557184750733
2.3284457478005867
2.2482893450635384
2.1730205278592374
2.103616813294233
2.0410557184750733
1.986314760508309
1.9374389051808407
1.8983382209188664
1.865102639296188
1.8328445747800584
1.8025415444770283
1.7732160312805474
1.7438905180840665
1.7145650048875856
1.6842619745845553
1.6529814271749756
1.6207233626588464
1.5865102639296187
1.5532746823069403
1.5190615835777126
1.4897360703812317
1.4633431085043989
1.434017595307918
1.4027370478983383
1.370478983382209
1.3401759530791788
1.3118279569892473
1.284457478005865
1.2590420332355816
1.2355816226783969
1.2140762463343109
1.1945259042033236
1.1808406647116323
1.1700879765395895
1.1573802541544478
1.1436950146627567
1.130987292277615
1.118279569892473
1.1065493646138806
1.0957966764418376
1.0850439882697946
1.075268817204301
1.0654936461388074
1.0576735092864125
1.0518084066471165
1.0498533724340176
1.0498533724340176
1.0478983382209188
1.04594330400782
1.043010752688172
1.0391006842619743
1.0342130987292275
1.0303030303030305
1.0263929618768328
1.0224828934506354
1.018572825024438
1.0146627565982405
1.013685239491691
1.0146627565982405
1.013685239491691
1.0117302052785924
1.0097751710654936
1.007820136852395
1.0058651026392962
1.002932551319648
1.0
0.9960899315738024
0.9912023460410556
0.9882697947214076
0.989247311827957
0.997067448680352
1.0146627565982405
1.0478983382209188
1.1006842619745845
1.1788856304985338
1.2825024437927663
1.409579667644184
1.5562072336265884
1.715542521994135
1.878787878787879
2.0391006842619745
2.188660801564027
2.30791788856305
2.403714565004888
2.496578690127077
2.578690127077224
2.6471163245356792
2.7038123167155423
2.748778103616813
2.78494623655914
2.8132942326490715
2.834799608993157
2.850439882697948
2.859237536656892
2.860215053763441
2.8514173998044967
2.835777126099707
2.81622678396872
2.790811339198436
2.755620723362659
2.7116324535679373
2.658846529814272
2.598240469208211
2.530791788856305
2.458455522971652
2.383186705767351
2.3069403714565007
2.2385141739980448
2.176930596285435
2.114369501466276
2.0557184750733137
2.002932551319648
1.956989247311828
1.916911045943304
1.8836754643206255
1.8563049853372435
1.8318670576735088
1.8093841642228736
1.7878787878787878
1.7683284457478006
1.7487781036168133
1.7253176930596286
1.699902248289345
1.672531769305963
1.643206256109482
1.611925708699902
1.5806451612903225
1.5503421309872922
1.5190615835777126
1.4887585532746823
1.458455522971652
1.4291300097751711
1.4066471163245358
1.3870967741935485
1.3655913978494625
1.3440860215053765
1.321603128054741
1.300097751710655
1.2795698924731185
1.2590420332355816
1.2394916911045943
1.2209188660801564
1.2023460410557183
1.1827956989247312
1.1681329423264908
1.1544477028347997
1.1368523949169111
1.1173020527859236
1.0957966764418376
1.0733137829912025
1.0518084066471165
1.0303030303030305
1.0097751710654936
0.9912023460410556
0.9736070381231672
0.9579667644183774
0.9452590420332356
0.9374389051808406
0.9335288367546432
0.9286412512218964
0.9227761485826002
0.9159335288367546
0.9090909090909092
0.9002932551319648
0.8905180840664711
0.8787878787878788
0.8641251221896383
0.8484848484848485
0.8318670576735093
0.8191593352883676
0.8093841642228738
0.7947214076246334
0.7781036168132942
0.7605083088954057
0.7429130009775171
0.7272727272727273
0.7165200391006843
0.7145650048875856
0.7262952101661779
0.7565982404692082
0.8123167155425219
0.895405669599218
0.989247311827957
1.0977517106549364
1.2375366568914956
1.3978494623655917
1.56891495601173
1.7409579667644184
1.906158357771261
2.0576735092864125
2.1925708699902247
2.3098729227761488
2.409579667644184
2.4946236559139785
2.558162267839687
2.6099706744868034
2.665689149560117
2.7233626588465296
2.780058651026393
2.834799608993157
2.8856304985337244
2.930596285434995
2.9687194525904204
2.9960899315738025
3.0127077223851417
3.01564027370479
3.004887585532747
2.981427174975562
2.9472140762463344
2.9012707722385143
2.844574780058651
2.777126099706745
2.7008797653958942
2.6177908113391983
2.5317693059628543
2.444770283479961
2.3597262952101663
2.2795698924731185
2.206256109481916
2.145650048875855
2.0948191593352883
2.04594330400782
2.0009775171065494
1.959921798631476
1.921798631476051
1.8866080156402736
1.8523949169110456
1.8201368523949168
1.7878787878787878
1.7556207233626588
1.7233626588465298
1.6920821114369502
1.6656891495601174
1.6412512218963833
1.6148582600195502
1.5865102639296187
1.5571847507331378
1.5268817204301075
1.4975562072336266
1.4682306940371457
1.439882697947214
1.412512218963832
1.3870967741935485
1.3636363636363635
1.346041055718475
1.3313782991202343
1.3157380254154447
1.2991202346041055
1.2834799608993157
1.267839687194526
1.252199413489736
1.2375366568914956
1.224828934506354
1.2121212121212122
1.2003910068426198
1.1896383186705768
1.1808406647116323
1.1749755620723363
1.1720430107526882
1.166177908113392
1.160312805474096
1.1544477028347997
1.1485826001955035
1.1436950146627567
1.13880742913001
1.133919843597263
1.1280547409579669
1.1221896383186705
1.1173020527859236
1.115347018572825
1.115347018572825
1.1133919843597262
1.110459433040078
1.10752688172043
1.1055718475073313
1.1036168132942326
1.1026392961876832
1.1006842619745845
1.0977517106549364
1.0948191593352885
1.0909090909090908
1.0869990224828934
1.086021505376344
1.0879765395894427
1.0909090909090908
1.1016617790811338
1.1251221896383188
1.1671554252199414
1.2316715542521994
1.321603128054741
1.436950146627566
1.573802541544477
1.7253176930596286
1.8856304985337244
2.0254154447702835
2.1495601173020527
2.278592375366569
2.39980449657869
2.506353861192571
2.5962854349951123
2.668621700879765
2.7253176930596283
2.76930596285435
2.803519061583578
2.8299120234604107
2.849462365591398
2.863147605083089
2.866080156402737
2.863147605083089
2.859237536656892
2.8514173998044967
2.8377321603128056
2.81622678396872
2.7869012707722387
2.748778103616813
2.701857282502444
2.6471163245356792
2.5855327468230693
2.5180840664711632
2.452590420332356
2.389051808406647
2.321603128054741
2.2551319648093844
2.1925708699902247
2.136852394916911
2.0879765395894427
2.046920821114369
2.010752688172043
1.9794721407624636
1.9501466275659824
1.9227761485826005
1.8944281524926687
1.869012707722385
1.8435972629521016
1.8142717497556209
1.7810361681329423
1.7458455522971652
1.7086999022482894
1.6695992179863148
1.6304985337243405
1.5923753665689149
1.5542521994134897
1.517106549364614
1.4819159335288368
1.452590420332356
1.4281524926686218
1.4027370478983383
1.3773216031280548
1.35386119257087
1.332355816226784
1.3128054740957966
1.295210166177908
1.278592375366569
1.3176930596285434
1.3870967741935485
1.4164222873900294
1.4281524926686218
1.4320625610948192
1.4291300097751711
1.4242424242424243
1.4173998044965788
1.4115347018572826
1.4056695992179864
1.3988269794721409
1.3919843597262953
1.3861192570869991
1.3792766373411536
1.3724340175953078
1.364613880742913
1.359726295210166
1.3558162267839686
1.3499511241446724
1.343108504398827
1.335288367546432
1.327468230694037
1.3196480938416422
1.3118279569892473
1.3040078201368523
1.2971652003910068
1.2913000977517106
1.2864125122189638
1.284457478005865
1.2854349951124144
1.284457478005865
1.2834799608993157
1.2834799608993157
1.2825024437927663
1.281524926686217
1.281524926686217
1.281524926686217
1.284457478005865
1.29227761485826
1.3088954056695992
1.3391984359726294
1.3792766373411536
1.4330400782013686
1.512218963831867
1.6148582600195502
1.737047898338221
1.8729227761485825
2.01564027370479
2.1593352883675463
2.2961876832844577
2.4222873900293256
2.533724340175953
2.63049853372434
2.7008797653958942
2.7536656891495603
2.8044965786901277
2.849462365591398
2.887585532746823
2.918866080156403
2.945259042033236
2.9657869012707723
2.981427174975562
2.991202346041056
2.995112414467253
2.9931573802541545
2.983382209188661
2.964809384164223
2.940371456500489
2.9100684261974585
2.8719452590420333
2.8269794721407626
