ppg
2.201368523949169
2.112414467253177
2.0254154447702835
1.9413489736070384
1.8621700879765395
1.7898338220918866
1.7341153470185728
1.6901270772238517
1.6471163245356797
1.6080156402737047
1.5483870967741935
1.4809384164222874
1.435972629521017
1.4027370478983383
1.3773216031280548
1.3528836754643203
1.3294232649071358
1.3069403714565004
1.2825024437927663
1.2639296187683284
1.2482893450635386
1.2297165200391007
1.209188660801564
1.1867057673509287
1.163245356793744
1.1407624633431086
1.1202346041055715
1.1006842619745845
1.0811339198435972
1.0625610948191593
1.0469208211143697
1.0371456500488758
1.029325513196481
1.0195503421309873
1.007820136852395
0.9921798631476052
0.9736070381231672
0.9550342130987292
0.9413489736070382
0.9413489736070382
0.9648093841642228
1.0205278592375366
1.115347018572825
1.249266862170088
1.391006842619746
1.542521994134897
1.7223851417399805
1.9071358748778104
2.081133919843597
2.2355816226783967
2.3626588465298144
2.4613880742913
2.536656891495601
2.589442815249267
2.625610948191593
2.649071358748778
2.658846529814272
2.658846529814272
2.653958944281525
2.6451612903225805
2.631476050830889
2.613880742913001
2.590420332355816
2.560117302052786
2.5249266862170088
2.482893450635386
2.434017595307918
2.3792766373411536
2.318670576735093
2.259042033235582
2.1974584555229715
2.1251221896383186
2.046920821114369
1.9667644183773216
1.8885630498533723
1.8162267839687196
1.7487781036168133
1.6871945259042034
1.632453567937439
1.5865102639296187
1.5483870967741935
1.521016617790811
1.500488758553275
1.4819159335288368
1.4652981427174976
1.452590420332356
1.444770283479961
1.4408602150537635
1.439882697947214
1.4418377321603129
1.4467253176930597
1.452590420332356
1.4594330400782014
1.466275659824047
1.474095796676442
1.479960899315738
1.4838709677419355
1.4858260019550342
1.4868035190615836
1.4868035190615836
1.4848484848484849
1.4819159335288368
1.479960899315738
1.478983382209189
1.478005865102639
1.478005865102639
1.478005865102639
1.4760508308895406
1.4711632453567938
1.466275659824047
1.4652981427174976
1.4760508308895406
1.5073313782991202
1.5669599217986314
1.6608015640273706
1.7869012707722385
1.93841642228739
2.103616813294233
2.269794721407625
2.406647116324536
2.5161290322580645
2.618768328445748
2.705767350928641
2.7722385141739982
2.820136852394917
2.849462365591398
2.8641251221896384
2.868035190615836
2.86217008797654
2.8475073313782997
2.825024437927664
2.7976539589442817
2.7673509286412514
2.732160312805474
2.6901270772238512
2.6392961876832843
2.5806451612903225
2.515151515151515
2.4408602150537635
2.3597262952101663
2.2737047898338223
2.1867057673509285
2.1006842619745845
2.0205278592375366
1.9550342130987293
1.900293255131965
1.8494623655913975
1.8054740957966764
1.7683284457478006
1.7380254154447703
1.7126099706744868
1.6911045943304008
1.672531769305963
1.653958944281525
1.635386119257087
1.6177908113391983
1.603128054740958
1.590420332355816
1.5747800586510263
1.5562072336265884
1.5347018572825024
1.512218963831867
1.4887585532746823
1.466275659824047
1.4437927663734116
1.4222873900293256
1.4007820136852396
1.380254154447703
1.3655913978494625
1.3548387096774193
1.3421309872922775
1.3284457478005864
1.3128054740957966
1.2961876832844574
1.278592375366569
1.260019550342131
1.238514173998045
1.2179863147605083
1.203323558162268
1.203323558162268
1.2287390029325511
1.2746823069403714
1.3479960899315735
1.4613880742913
1.608993157380254
1.7790811339198436
1.9550342130987293
2.124144672531769
2.275659824046921
2.40078201368524
2.498533724340176
2.5698924731182795
2.6177908113391983
2.644183773216031
2.654936461388074
2.6578690127077222
2.652003910068426
2.6402737047898337
2.621700879765396
2.598240469208211
2.570869990224829
2.539589442815249
2.5034213098729228
2.4613880742913
2.4144672531769307
2.360703812316716
2.3069403714565007
2.2502443792766376
2.1808406647116323
2.101661779081134
2.016617790811339
1.9286412512218964
1.839687194525904
1.7526881720430108
1.6705767350928642
1.5962854349951123
1.5317693059628543
1.4760508308895406
1.4349951124144673
1.4027370478983383
1.3714565004887584
1.343108504398827
1.3176930596285434
1.295210166177908
1.2746823069403714
1.2551319648093842
1.2365591397849462
1.2179863147605083
1.1994134897360704
1.1808406647116323
1.1622678396871946
1.1485826001955035
1.1368523949169111
1.1241446725317692
1.1094819159335287
1.0928641251221896
1.0762463343108504
1.06158357771261
1.0488758553274682
1.0361681329423265
1.0254154447702837
1.018572825024438
1.0146627565982405
1.0146627565982405
1.0146627565982405
1.010752688172043
1.0068426197458455
1.0068426197458455
1.0175953079178883
1.0469208211143697
2.3655913978494625
2.3812316715542523
2.398826979472141
2.4173998044965788
2.4330400782013686
2.44672531769306
2.462365591397849
2.47702834799609
2.490713587487781
2.5004887585532747
2.50733137829912
2.5083088954056696
2.505376344086021
2.4995112414467253
2.49266862170088
2.4858260019550342
2.4789833822091887
2.472140762463343
2.464320625610948
2.455522971652004
2.444770283479961
2.43108504398827
2.41544477028348
2.39980449657869
2.3870967741935485
2.3822091886608017
2.3929618768328447
2.421309872922776
2.4711632453567938
2.527859237536657
2.592375366568915
2.674486803519061
2.763440860215054
2.8484848484848486
2.9227761485826003
2.983382209188661
3.027370478983382
3.0576735092864125
3.0733137829912023
3.0772238514174
3.0449657869012707
2.9902248289345064
2.945259042033236
2.902248289345064
2.859237536656892
2.8152492668621703
2.768328445747801
2.717497556207233
2.662756598240469
2.6021505376344085
2.5347018572825024
2.4613880742913
2.3841642228739004
2.312805474095797
2.243401759530792
2.16911045943304
2.0948191593352883
2.0234604105571847
1.9550342130987293
1.89247311827957
1.835777126099707
1.7859237536656891
1.7438905180840665
1.70772238514174
1.6774193548387095
1.651026392961877
1.6304985337243405
1.611925708699902
1.5913978494623655
1.5708699902248289
1.5503421309872922
1.5298142717497556
1.509286412512219
1.487781036168133
1.4652981427174976
1.4428152492668622
1.4213098729227762
1.401759530791789
1.3870967741935485
1.3743890518084063
1.359726295210166
1.343108504398827
1.3255131964809383
1.3079178885630498
1.2903225806451613
1.273704789833822
1.260019550342131
1.2453567937438903
1.2297165200391007
1.2130987292277615
1.1945259042033236
1.1798631476050832
1.1700879765395895
1.164222873900293
1.1749755620723363
1.2130987292277615
1.2864125122189638
1.396871945259042
1.5376344086021505
1.7008797653958945
1.873900293255132
2.0439882697947214
2.20039100684262
2.320625610948192
2.4144672531769307
2.498533724340176
2.567937438905181
2.622678396871945
2.6637341153470184
2.6940371456500487
2.716520039100684
2.7341153470185726
2.745845552297165
2.7517106549364616
2.7497556207233624
2.739980449657869
2.721407624633431
2.697947214076246
2.668621700879765
2.634408602150537
2.5943304007820136
2.547409579667644
2.493646138807429
2.432062561094819
2.363636363636364
2.290322580645161
2.2140762463343107
2.136852394916911
2.069403714565005
2.0097751710654936
1.9501466275659824
1.8944281524926687
1.8484848484848484
1.8142717497556209
1.7898338220918866
1.7761485826001957
1.7702834799608993
1.7702834799608993
1.7732160312805474
1.7761485826001957
1.7781036168132942
1.7790811339198436
1.7790811339198436
1.7790811339198436
1.7790811339198436
1.7790811339198436
1.7790811339198436
1.7781036168132942
1.7761485826001957
1.7732160312805474
1.772238514173998
1.7702834799608993
1.7683284457478006
1.7663734115347018
1.7644183773216031
1.7605083088954057
1.7575757575757576
1.7546432062561097
1.750733137829912
1.7448680351906158
1.7390029325513197
1.7341153470185728
1.7350928641251222
1.7487781036168133
1.7810361681329423
1.8387096774193548
1.905180840664712
1.986314760508309
2.0977517106549364
2.228739002932551
2.364613880742913
2.49266862170088
2.6041055718475072
2.6959921798631474
2.764418377321604
2.811339198435973
2.838709677419355
2.8514173998044967
2.849462365591398
2.8377321603128056
2.820136852394917
2.7976539589442817
2.771260997067449
2.7390029325513194
2.7008797653958942
2.6578690127077222
2.608993157380254
2.555229716520039
2.4946236559139785
2.4271749755620724
2.355816226783969
2.289345063538612
2.225806451612903
2.156402737047898
2.0869990224828934
2.022482893450636
1.963831867057673
1.911045943304008
1.866080156402737
1.8269794721407624
1.7947214076246334
1.76930596285435
1.747800586510264
1.7302052785923754
1.715542521994135
1.7008797653958945
1.686217008797654
1.672531769305963
1.6598240469208212
1.6480938416422288
1.6363636363636365
1.6256109481915937
1.6138807429130009
1.6021505376344083
1.590420332355816
1.5796676441837731
1.5708699902248289
1.5620723362658846
1.5503421309872922
1.5366568914956011
1.520039100684262
1.5024437927663734
1.4858260019550342
1.4721407624633431
1.4594330400782014
1.447702834799609
1.4379276637341154
1.4291300097751711
1.4213098729227762
1.4134897360703813
1.4007820136852396
1.3900293255131966
1.3851417399804498
1.393939393939394
1.4252199413489737
1.487781036168133
1.5835777126099706
1.710654936461388
1.8602150537634408
2.0205278592375366
2.177908113391984
2.3059628543499517
2.4086021505376345
2.5034213098729228
2.582600195503421
2.643206256109482
2.687194525904203
2.7155425219941347
2.730205278592375
2.7341153470185726
2.7282502443792764
2.713587487781036
2.6930596285435
2.668621700879765
2.6402737047898337
2.6080156402737047
2.572825024437928
2.5347018572825024
2.493646138807429
2.447702834799609
2.3958944281524928
2.337243401759531
2.2737047898338223
2.206256109481916
2.136852394916911
2.074291300097752
2.0195503421309877
1.963831867057673
1.9130009775171064
1.869012707722385
1.833822091886608
1.8084066471163245
1.7927663734115349
1.7849462365591398
1.7810361681329423
1.7790811339198436
1.7761485826001957
1.76930596285435
1.761485826001955
1.750733137829912
1.7350928641251222
1.7165200391006843
1.6959921798631477
1.6764418377321604
1.6578690127077225
1.6412512218963833
1.6265884652981428
1.6138807429130009
1.6041055718475072
1.5962854349951123
1.590420332355816
1.5865102639296187
1.581622678396872
1.5757575757575757
1.5698924731182795
1.563049853372434
1.5298142717497556
1.4838709677419355
1.456500488758553
1.4379276637341154
1.423264907135875
1.409579667644184
1.3988269794721409
1.3958944281524928
1.4056695992179864
1.4379276637341154
1.500488758553275
1.5962854349951123
1.7233626588465298
1.8748778103616808
2.040078201368524
2.203323558162268
2.3548387096774195
2.484848484848485
2.590420332355816
2.6608015640273703
2.7067448680351904
2.740957966764418
2.7614858260019552
2.76930596285435
2.7653958944281527
2.7517106549364616
2.732160312805474
2.708699902248289
2.681329423264907
2.6480938416422286
2.6099706744868034
2.5669599217986314
2.5210166177908118
2.472140762463343
2.4134897360703813
2.347018572825025
2.274682306940372
2.19941348973607
2.12316715542522
2.047898338220919
1.975562072336266
1.90811339198436
1.8455522971652003
1.7917888563049853
1.7487781036168133
1.7145650048875856
1.6842619745845553
1.656891495601173
1.6334310850439884
1.611925708699902
1.5943304007820136
1.5786901270772238
1.564027370478983
1.552297165200391
1.541544477028348
1.5288367546432062
1.5161290322580645
1.5053763440860215
1.495601173020528
1.4819159335288368
1.4672531769305963
1.4516129032258065
1.435972629521017
1.4193548387096775
1.4027370478983383
1.3870967741935485
1.3734115347018572
1.3607038123167154
1.348973607038123
1.3411534701857282
1.3362658846529814
1.327468230694037
1.3157380254154447
1.2991202346041055
1.281524926686217
1.2697947214076246
1.2727272727272727
1.2991202346041055
1.359726295210166
1.4594330400782014
1.5943304007820136
1.75366568914956
1.903225806451613
2.0439882697947214
2.193548387096774
2.3313782991202348
2.447702834799609
2.539589442815249
2.6070381231671558
2.652003910068426
2.6803519061583576
2.6959921798631474
2.699902248289345
2.695014662756598
2.6832844574780057
2.665689149560117
2.644183773216031
2.6177908113391983
2.5865102639296187
2.550342130987292
2.506353861192571
2.4565004887585533
2.39980449657869
2.335288367546432
2.2629521016617797
2.1837732160312804
2.096774193548387
2.016617790811339
1.9393939393939397
1.8543499511241448
1.7683284457478006
1.6871945259042034
1.6129032258064515
1.5464320625610948
1.4897360703812317
1.4418377321603129
1.401759530791789
1.3695014662756595
1.343108504398827
1.3235581622678396
1.3088954056695992
1.2913000977517106
1.2717497556207231
1.2502443792766371
1.227761485826002
1.2052785923753666
1.1837732160312806
1.163245356793744
1.142717497556207
1.1231671554252198
1.1036168132942326
1.0869990224828934
1.0762463343108504
1.0694037145650048
1.0625610948191593
1.056695992179863
1.0527859237536656
1.0488758553274682
1.0449657869012707
1.0420332355816226
1.0371456500488758
1.029325513196481
1.0195503421309873
1.0097751710654936
1.0048875855327468
1.0097751710654936
1.029325513196481
1.0733137829912025
1.1505376344086022
1.2649071358748778
1.4134897360703813
1.5884652981427174
1.7771260997067448
1.963831867057673
2.134897360703812
2.283479960899316
2.404692082111437
2.4916911045943304
2.5513196480938416
2.60019550342131
2.638318670576735
2.6637341153470184
2.678396871945259
2.684261974584555
2.6852394916911044
2.6803519061583576
2.670576735092864
2.653958944281525
2.63049853372434
2.6021505376344085
2.56891495601173
2.5288367546432062
2.479960899315738
2.4222873900293256
2.358748778103617
2.289345063538612
2.217986314760508
2.146627565982405
2.0772238514174
2.0117302052785924
1.9521016617790807
1.8993157380254155
1.8563049853372435
1.822091886608016
1.790811339198436
1.7634408602150538
1.7409579667644184
1.7223851417399805
1.7057673509286413
1.6911045943304008
1.6764418377321604
1.66177908113392
1.64613880742913
1.629521016617791
1.6138807429130009
1.5972629521016617
1.5786901270772238
1.5591397849462365
1.5395894428152492
1.520039100684262
1.500488758553275
1.4819159335288368
1.4623655913978495
1.4408602150537635
1.418377321603128
1.3949169110459434
1.3763440860215057
1.3607038123167154
1.3411534701857282
1.3186705767350928
1.295210166177908
1.2717497556207231
1.2482893450635386
1.224828934506354
1.209188660801564
1.2101661779081134
1.2375366568914956
1.3010752688172045
1.4027370478983383
1.5151515151515151
1.640273704789834
1.796676441837732
1.962854349951124
2.1221896383186705
2.2639296187683287
2.380254154447703
2.4711632453567938
2.5347018572825024
2.573802541544477
2.593352883675464
2.5972629521016617
2.587487781036168
2.567937438905181
2.539589442815249
2.5024437927663734
2.4594330400782014
2.409579667644184
2.3548387096774195
2.294232649071359
2.2248289345063537
2.147605083088954
2.064516129032258
1.9745845552297163
1.878787878787879
1.7927663734115349
1.7126099706744868
1.624633431085044
1.5366568914956011
1.4516129032258065
1.375366568914956
1.3079178885630498
1.249266862170088
1.2003910068426198
1.1612903225806452
1.1290322580645162
1.1006842619745845
1.0840664711632453
1.0742913000977516
1.0606060606060606
1.0439882697947214
1.0254154447702837
1.0058651026392962
0.9843597262952102
0.9628543499511242
0.9413489736070382
0.9188660801564028
0.8973607038123167
0.873900293255132
0.8494623655913979
0.8318670576735093
0.8172043010752689
0.7976539589442815
0.7751710654936461
0.7517106549364614
0.7302052785923754
0.7126099706744868
0.6959921798631477
0.6803519061583577
0.6656891495601173
0.6510263929618768
0.635386119257087
0.6256109481915934
0.6217008797653959
0.6217008797653959
0.6392961876832844
0.6852394916911045
0.7693059628543499
0.8963831867057673
1.064516129032258
1.2609970674486803
1.4682306940371457
1.6715542521994136
1.8602150537634408
2.022482893450636
2.142717497556207
2.232649071358749
2.3118279569892475
2.375366568914956
2.4222873900293256
2.4565004887585533
2.479960899315738
2.4946236559139785
2.501466275659824
2.5004887585532747
2.49266862170088
2.4780058651026398
2.4594330400782014
2.436950146627566
2.407624633431085
2.3704789833822093
2.324535679374389
2.2688172043010755
2.204301075268817
2.131964809384164
2.053763440860215
1.9736070381231672
1.8934506353861196
1.818181818181818
1.7497556207233629
1.6950146627565983
1.6520039100684265
1.611925708699902
1.5786901270772238
1.552297165200391
1.5327468230694037
1.5190615835777126
1.5083088954056696
1.499511241446725
1.4916911045943304
1.482893450635386
1.474095796676442
1.4672531769305963
1.4623655913978495
1.455522971652004
1.447702834799609
1.4389051808406648
1.43108504398827
1.4242424242424243
1.4193548387096775
1.414467253176931
1.4076246334310851
1.4007820136852396
1.393939393939394
1.3851417399804498
1.3763440860215057
1.370478983382209
1.3616813294232648
1.3499511241446724
1.3372434017595307
1.3235581622678396
1.3088954056695992
1.2932551319648091
1.2746823069403714
1.2551319648093842
1.241446725317693
1.2443792766373412
1.2649071358748778
1.3118279569892473
1.4007820136852396
1.5327468230694037
1.7008797653958945
1.8934506353861196
2.093841642228739
2.2854349951124147
2.455522971652004
2.5972629521016617
2.7067448680351904
2.78494623655914
2.8484848484848486
2.865102639296188
2.868035190615836
2.84652981427175
2.8240469208211145
2.795698924731183
2.7419354838709675
2.6989247311827955
2.6480938416422286
2.5865102639296187
2.5161290322580645
2.44672531769306
2.375366568914956
2.2932551319648096
2.206256109481916
2.118279569892473
2.0303030303030303
1.946236559139785
1.8328445747800584
1.7673509286412512
1.710654936461388
1.643206256109482
1.608993157380254
1.585532746823069
1.56891495601173
1.5532746823069403
1.5386119257087
1.5268817204301075
1.5161290322580645
1.5063538611925709
1.4965786901270772
1.4868035190615836
1.474095796676442
1.4496578690127078
1.4349951124144673
1.4242424242424243
1.4134897360703813
1.4105571847507332
1.4115347018572826
1.41544477028348
1.423264907135875
1.436950146627566
1.4623655913978495
1.5053763440860215
1.573802541544477
1.675464320625611
1.81524926686217
1.959921798631476
2.117302052785924
2.313782991202346
2.5288367546432062
2.744868035190616
2.9501466275659824
3.1407624633431084
3.315738025415445
3.4780058651026398
3.629521016617791
3.776148582600196
3.887585532746823
3.945259042033236
3.973607038123167
3.988269794721408
3.995112414467253
3.99902248289345
4.000977517106549
4.001955034213099
4.001955034213099
4.001955034213099
4.001955034213099
4.001955034213099
4.001955034213099
4.001955034213099
4.001955034213099
4.001955034213099
4.001955034213099
4.001955034213099
4.001955034213099
4.001955034213099
4.001955034213099
4.001955034213099
4.001955034213099
4.001955034213099
4.001955034213099
4.001955034213099
3.997067448680352
3.973607038123167
3.928641251221896
3.8748778103616814
3.81622678396872
3.755620723362659
3.69208211143695
3.625610948191593
3.555229716520039
3.479960899315738
3.3978494623655915
3.3088954056695994
3.2218963831867056
3.134897360703812
3.0361681329423265
2.929618768328446
2.8132942326490715
2.687194525904203
2.549364613880743
2.393939393939394
2.2140762463343107
2.003910068426197
1.7605083088954057
1.4819159335288368
1.1720430107526882
0.8905180840664711
0.6236559139784946
0.3577712609970674
0.1788856304985337
0.0889540566959921
0.0439882697947214
0.021505376344086
0.010752688172043
0.0048875855327468
0.0019550342130987
0.0009775171065493
0.0
0.0
0.0
0.0
0.0
0.0
0.0801564027370479
0.2932551319648094
0.5757575757575758
0.873900293255132
1.160312805474096
1.4291300097751711
1.6803519061583578
1.921798631476051
2.1270772238514173
2.312805474095797
2.515151515151515
2.717497556207233
2.9100684261974585
3.0879765395894427
3.005865102639296
2.763440860215054
2.6608015640273703
2.625610948191593
2.621700879765396
2.627565982404692
2.632453567937439
2.633431085043988
2.634408602150537
2.635386119257087
2.6392961876832843
2.6480938416422286
2.6637341153470184
2.686217008797654
2.713587487781036
2.7438905180840663
2.774193548387097
2.8025415444770285
2.827956989247312
2.843597262952102
2.850439882697948
2.854349951124145
2.852394916911046
2.8426197458455524
2.8260019550342133
2.801564027370479
2.7722385141739982
2.73802541544477
2.699902248289345
2.6608015640273703
2.6207233626588464
2.5835777126099706
2.547409579667644
2.5102639296187683
2.4711632453567938
2.432062561094819
2.393939393939394
2.357771260997068
2.3255131964809386
2.300097751710655
2.281524926686217
2.269794721407625
2.2639296187683287
2.260997067448681
2.2580645161290325
2.2531769305962857
2.2453567937438903
2.2346041055718477
2.222873900293255
2.2130987292277613
2.210166177908113
2.2170087976539588
2.2346041055718477
2.2629521016617797
2.300097751710655
2.3411534701857284
2.3743890518084068
2.39980449657869
2.423264907135875
2.439882697947214
2.447702834799609
2.44672531769306
2.4379276637341154
2.423264907135875
2.403714565004888
2.383186705767351
2.361681329423265
2.340175953079179
2.3196480938416424
2.3010752688172045
2.283479960899316
2.264907135874878
2.244379276637341
2.2218963831867056
2.196480938416422
2.167155425219941
2.134897360703812
2.099706744868035
2.060606060606061
2.0195503421309877
1.9775171065493649
1.9423264907135875
1.911045943304008
1.8797653958944285
1.8523949169110456
1.8299120234604105
1.8132942326490715
1.8035190615835777
1.7986314760508308
1.7976539589442817
1.7996089931573802
1.8025415444770283
1.8064516129032255
1.8093841642228736
1.8132942326490715
1.8172043010752688
1.822091886608016
1.828934506353861
1.839687194525904
1.8533724340175952
1.870967741935484
1.8905180840664717
1.911045943304008
1.932551319648094
1.951124144672532
1.9657869012707725
1.975562072336266
1.9804496578690127
1.9824046920821117
1.9804496578690127
1.9745845552297163
1.9667644183773216
1.9579667644183771
1.949169110459433
1.9393939393939397
1.9286412512218964
1.9188660801564028
1.9100684261974583
1.906158357771261
1.90811339198436
1.9178885630498532
1.9403714565004888
1.975562072336266
2.024437927663734
2.083088954056696
2.147605083088954
2.212121212121212
2.272727272727273
2.32355816226784
2.364613880742913
2.393939393939394
2.4115347018572826
2.421309872922776
2.4271749755620724
2.429130009775171
2.429130009775171
2.4271749755620724
2.4242424242424243
2.420332355816227
2.4144672531769307
2.407624633431085
2.3978494623655915
2.3841642228739004
2.3685239491691106
2.347996089931574
2.3196480938416424
2.283479960899316
2.241446725317693
2.196480938416422
2.1515151515151514
2.110459433040078
2.075268817204301
2.046920821114369
2.024437927663734
2.006842619745845
1.9931573802541545
1.9824046920821117
1.9745845552297163
1.9667644183773216
1.959921798631476
1.9550342130987293
1.9521016617790807
1.9501466275659824
1.948191593352884
1.946236559139785
1.943304007820137
1.9393939393939397
1.9345063538611929
1.9286412512218964
1.9237536656891496
1.916911045943304
1.9090909090909087
1.9012707722385145
1.89247311827957
1.884652981427175
1.87683284457478
1.8699902248289344
1.8631476050830889
1.8563049853372435
1.8494623655913975
1.842619745845552
1.836754643206256
1.83088954056696
1.823069403714565
1.8142717497556209
1.8064516129032255
1.7996089931573802
1.7976539589442817
1.801564027370479
1.81524926686217
1.8387096774193548
1.8699902248289344
1.9090909090909087
1.945259042033236
1.9794721407624636
2.01564027370479
