ppg
2.132942326490713
2.0772238514174
2.024437927663734
1.9765395894428155
1.9345063538611929
1.8983382209188664
1.8670576735092863
1.8387096774193548
1.812316715542522
1.7859237536656891
1.7624633431085044
1.7419354838709675
1.721407624633431
1.7028347996089932
1.6871945259042034
1.672531769305963
1.6578690127077225
1.6441837732160314
1.629521016617791
1.611925708699902
1.5943304007820136
1.5786901270772238
1.563049853372434
1.5503421309872922
1.5386119257087
1.5249266862170088
1.5112414467253177
1.4965786901270772
1.4819159335288368
1.466275659824047
1.4516129032258065
1.4379276637341154
1.4252199413489737
1.414467253176931
1.4027370478983383
1.391006842619746
1.3782991202346042
1.3655913978494625
1.35386119257087
1.3421309872922775
1.3313782991202343
1.3206256109481915
1.3098729227761483
1.2991202346041055
1.2883675464320623
1.2776148582600195
1.2668621700879763
1.2561094819159335
1.2482893450635386
1.2424242424242424
1.2375366568914956
1.2316715542521994
1.2267839687194526
1.2209188660801564
1.2160312805474096
1.2101661779081134
1.203323558162268
1.1945259042033236
1.1867057673509287
1.1798631476050832
1.1759530791788857
1.173998044965787
1.1710654936461389
1.166177908113392
1.1612903225806452
1.1564027370478984
1.1515151515151516
1.144672531769306
1.1358748778103618
1.1270772238514175
1.1173020527859236
1.10752688172043
1.099706744868035
1.0957966764418376
1.0957966764418376
1.0977517106549364
1.1124144672531768
1.147605083088954
1.2082111436950147
1.2971652003910068
1.412512218963832
1.552297165200391
1.70772238514174
1.869012707722385
2.026392961876833
2.1544477028347995
2.260019550342131
2.3655913978494625
2.4594330400782014
2.5386119257087
2.6041055718475072
2.6559139784946235
2.695014662756598
2.7223851417399803
2.73802541544477
2.742913000977517
2.739980449657869
2.729227761485826
2.7116324535679373
2.6881720430107525
2.6578690127077222
2.6207233626588464
2.579667644183773
2.5317693059628543
2.47702834799609
2.4144672531769307
2.347018572825025
2.278592375366569
2.209188660801564
2.1407624633431084
2.081133919843597
2.0283479960899315
1.978494623655914
1.932551319648094
1.8914956011730208
1.8533724340175952
1.8191593352883677
1.7898338220918866
1.7644183773216031
1.7409579667644184
1.718475073313783
1.696969696969697
1.6774193548387095
1.6637341153470186
1.6529814271749756
1.6422287390029326
1.629521016617791
1.611925708699902
1.5943304007820136
1.576735092864125
1.560117302052786
1.543499511241447
1.5278592375366569
1.5112414467253177
1.495601173020528
1.4819159335288368
1.4701857282502444
1.455522971652004
1.4408602150537635
1.426197458455523
1.4134897360703813
1.401759530791789
1.3890518084066472
1.3763440860215057
1.364613880742913
1.3528836754643203
1.3421309872922775
1.3304007820136852
1.3186705767350928
1.3088954056695992
1.2981427174975562
1.2873900293255132
1.2766373411534702
1.2658846529814272
1.2570869990224829
1.2502443792766371
1.2434017595307918
1.2375366568914956
1.2297165200391007
1.219941348973607
1.2150537634408602
1.2111436950146628
1.2043010752688172
1.1964809384164223
1.1896383186705768
1.1857282502443791
1.1886608015640274
1.2072336265884651
1.2473118279569892
1.313782991202346
1.4086021505376345
1.5288367546432062
1.6666666666666667
1.7927663734115349
1.9100684261974583
2.038123167155425
2.164222873900293
2.2795698924731185
2.380254154447703
2.464320625610948
2.530791788856305
2.579667644183773
2.6148582600195502
2.638318670576735
2.650048875855328
2.649071358748778
2.6392961876832843
2.624633431085044
2.6070381231671558
2.5855327468230693
2.5591397849462365
2.525904203323558
2.484848484848485
2.436950146627566
2.3841642228739004
2.32355816226784
2.259042033235582
2.198435972629521
2.1407624633431084
2.080156402737048
2.0175953079178885
1.9550342130987293
1.8973607038123168
1.8455522971652003
1.8005865102639296
1.7644183773216031
1.7360703812316716
1.710654936461388
1.6871945259042034
1.664711632453568
1.6451612903225807
1.6275659824046922
1.6099706744868034
1.5933528836754642
1.576735092864125
1.560117302052786
1.5454545454545454
1.533724340175953
1.52297165200391
1.512218963831867
1.501466275659824
1.487781036168133
1.47702834799609
1.4672531769305963
1.4545454545454546
1.439882697947214
1.426197458455523
1.412512218963832
1.3978494623655917
1.383186705767351
1.370478983382209
1.3587487781036167
1.3479960899315735
1.3372434017595307
1.3264907135874875
1.3186705767350928
1.3118279569892473
1.300097751710655
1.2864125122189638
1.2727272727272727
1.2590420332355816
1.24633431085044
1.2346041055718475
1.2238514173998043
1.2130987292277615
1.203323558162268
1.1964809384164223
1.1925708699902249
1.1906158357771262
1.1867057673509287
1.1827956989247312
1.1779081133919844
1.1700879765395895
1.160312805474096
1.1534701857282503
1.1456500488758554
1.1358748778103618
1.1270772238514175
1.1202346041055715
1.1143695014662756
1.1114369501466277
1.1094819159335287
1.1065493646138806
1.099706744868035
1.0918866080156402
1.0879765395894427
1.086021505376344
1.0850439882697946
1.0850439882697946
1.0850439882697946
1.083088954056696
1.078201368523949
1.0742913000977516
1.0713587487781036
1.067448680351906
1.0664711632453567
1.0742913000977516
1.099706744868035
1.1505376344086022
1.2346041055718475
1.3519061583577712
1.498533724340176
1.667644183773216
1.8455522971652003
2.022482893450636
2.1700879765395893
2.2952101661779083
2.419354838709677
2.532746823069404
2.6285434995112413
2.7038123167155423
2.7976539589442817
2.895405669599218
2.9550342130987293
2.9872922776148583
3.0019550342130987
3.003910068426197
2.991202346041056
2.9687194525904204
2.940371456500489
2.9071358748778104
2.870967741935484
2.827956989247312
2.779081133919844
2.724340175953079
2.66177908113392
2.592375366568915
2.5190615835777126
2.442815249266862
2.3685239491691106
2.304007820136853
2.247311827956989
2.190615835777126
2.132942326490713
2.0762463343108504
2.0254154447702835
1.9794721407624636
1.9393939393939397
1.9042033235581624
1.8729227761485825
1.8435972629521016
1.8172043010752688
1.7956989247311828
1.7761485826001957
1.7565982404692082
1.7390029325513197
1.7233626588465298
1.7067448680351909
1.6901270772238517
1.672531769305963
1.653958944281525
1.6344086021505375
1.616813294232649
1.5992179863147604
1.581622678396872
1.5669599217986314
1.5532746823069403
1.5386119257087
1.521994134897361
1.5034213098729228
1.4838709677419355
1.4672531769305963
1.4535679374389052
1.4408602150537635
1.4281524926686218
1.4164222873900294
1.404692082111437
1.3958944281524928
1.3890518084066472
1.3782991202346042
1.3636363636363635
1.3479960899315735
1.3313782991202343
1.3157380254154447
1.3010752688172045
1.2864125122189638
1.2746823069403714
1.2658846529814272
1.2580645161290325
1.2482893450635386
1.2404692082111437
1.2365591397849462
1.2326490713587488
1.227761485826002
1.2218963831867058
1.2160312805474096
1.2101661779081134
1.2043010752688172
1.198435972629521
1.1925708699902249
1.1867057673509287
1.1808406647116323
1.1779081133919844
1.176930596285435
1.1730205278592376
1.1681329423264908
1.163245356793744
1.1583577712609971
1.152492668621701
1.1466275659824048
1.1407624633431086
1.1348973607038124
1.1290322580645162
1.1202346041055715
1.110459433040078
1.1055718475073313
1.1026392961876832
1.0987292277614855
1.093841642228739
1.0899315738025417
1.0879765395894427
1.0869990224828934
1.086021505376344
1.086021505376344
1.086021505376344
1.086021505376344
1.086021505376344
1.0869990224828934
1.0879765395894427
1.0840664711632453
1.0762463343108504
1.0664711632453567
1.0557184750733135
1.04594330400782
1.0410557184750733
1.0498533724340176
1.0821114369501466
1.1436950146627567
1.2394916911045943
1.3714565004887584
1.5083088954056696
1.6529814271749756
1.827956989247312
2.013685239491691
2.196480938416422
2.364613880742913
2.512218963831867
2.6392961876832843
2.744868035190616
2.8289345063538613
2.89247311827957
2.93841642228739
2.964809384164223
2.9765395894428157
2.9824046920821115
2.9804496578690127
2.970674486803519
2.9530791788856305
2.9266862170087977
2.8944281524926687
2.8582600195503423
2.8152492668621703
2.766373411534702
2.7116324535679373
2.656891495601173
2.6021505376344085
2.541544477028348
2.4731182795698925
2.39980449657869
2.3255131964809386
2.254154447702835
2.187683284457478
2.1251221896383186
2.0664711632453567
2.0127077223851417
1.963831867057673
1.920821114369501
1.8866080156402736
1.858260019550342
1.83088954056696
1.8054740957966764
1.7810361681329423
1.7575757575757576
1.737047898338221
1.7174975562072337
1.696969696969697
1.6764418377321604
1.656891495601173
1.640273704789834
1.629521016617791
1.619745845552297
1.606060606060606
1.590420332355816
1.573802541544477
1.5571847507331378
1.5405669599217986
1.52297165200391
1.5053763440860215
1.487781036168133
1.4711632453567938
1.455522971652004
1.4418377321603129
1.4320625610948192
1.4242424242424243
1.412512218963832
1.3978494623655917
1.3822091886608017
1.367546432062561
1.3509286412512218
1.3343108504398826
1.3186705767350928
1.3020527859237536
1.2864125122189638
1.2717497556207231
1.2609970674486803
1.2561094819159335
1.2502443792766371
1.2443792766373412
1.238514173998045
1.2336265884652982
1.227761485826002
1.2218963831867058
1.2160312805474096
1.209188660801564
1.1994134897360704
1.1886608015640274
1.1779081133919844
1.1691104594330402
1.1622678396871946
1.1544477028347997
1.152492668621701
1.1622678396871946
1.1915933528836755
1.2473118279569892
1.3313782991202343
1.4428152492668622
1.5777126099706744
1.729227761485826
1.8866080156402736
2.0195503421309877
2.133919843597263
2.2482893450635384
2.3499511241446727
2.4359726295210167
2.5034213098729228
2.5542521994134897
2.591397849462365
2.616813294232649
2.634408602150537
2.643206256109482
2.643206256109482
2.634408602150537
2.616813294232649
2.593352883675464
2.565982404692082
2.5317693059628543
2.490713587487781
2.441837732160313
2.389051808406647
2.332355816226784
2.2688172043010755
2.19941348973607
2.126099706744868
2.0527859237536656
1.991202346041056
1.9364613880742916
1.881720430107527
1.8318670576735088
1.7888563049853372
1.750733137829912
1.7194525904203324
1.6920821114369502
1.6666666666666667
1.6441837732160314
1.624633431085044
1.606060606060606
1.587487781036168
1.5669599217986314
1.5454545454545454
1.5288367546432062
1.5141739980449658
1.501466275659824
1.4887585532746823
1.4750733137829912
1.4623655913978495
1.4486803519061584
1.4349951124144673
1.423264907135875
1.4134897360703813
1.4056695992179864
1.396871945259042
1.3861192570869991
1.3743890518084063
1.3626588465298142
1.3509286412512218
1.3391984359726294
1.327468230694037
1.3147605083088951
1.2991202346041055
1.281524926686217
1.2639296187683284
1.2473118279569892
1.2365591397849462
1.23069403714565
1.224828934506354
1.2189638318670577
1.2130987292277615
1.2043010752688172
1.1945259042033236
1.1867057673509287
1.1798631476050832
1.173998044965787
1.1681329423264908
1.1622678396871946
1.1573802541544478
1.152492668621701
1.1456500488758554
1.13880742913001
1.1300097751710656
1.1192570869990224
1.1114369501466277
1.104594330400782
1.0977517106549364
1.088954056695992
1.078201368523949
1.0703812316715542
1.0635386119257086
1.0596285434995112
1.0576735092864125
1.0557184750733135
1.0547409579667644
1.053763440860215
1.053763440860215
1.0518084066471165
1.0478983382209188
1.0449657869012707
1.043010752688172
1.0420332355816226
1.0420332355816226
1.0449657869012707
1.0488758553274682
1.050830889540567
1.0518084066471165
1.0527859237536656
1.0527859237536656
1.0518084066471165
1.0469208211143697
1.040078201368524
1.0361681329423265
1.043010752688172
1.0703812316715542
1.126099706744868
1.1994134897360704
1.2971652003910068
1.435972629521017
1.6041055718475072
1.790811339198436
1.9833822091886608
2.1700879765395893
2.3411534701857284
2.490713587487781
2.618768328445748
2.7253176930596283
2.8084066471163247
2.8611925708699903
2.895405669599218
2.9237536656891496
2.9423264907135875
2.9501466275659824
2.948191593352884
2.935483870967742
2.913000977517106
2.884652981427175
2.8514173998044967
2.812316715542522
2.7673509286412514
2.7155425219941347
2.662756598240469
2.608993157380254
2.548387096774193
2.4819159335288368
2.410557184750733
2.337243401759531
2.26197458455523
2.188660801564027
2.1192570869990224
2.0557184750733137
1.9960899315738023
1.943304007820137
1.900293255131965
1.866080156402737
1.833822091886608
1.8054740957966764
1.7790811339198436
1.7556207233626588
1.737047898338221
1.7204301075268815
1.7028347996089932
1.6852394916911049
1.667644183773216
1.6490713587487782
1.6304985337243405
1.6148582600195502
1.598240469208211
1.581622678396872
1.564027370478983
1.5464320625610948
1.5288367546432062
1.5112414467253177
1.4936461388074291
1.4760508308895406
1.458455522971652
1.4408602150537635
1.4252199413489737
1.412512218963832
1.4007820136852396
1.388074291300098
1.3743890518084063
1.3587487781036167
1.343108504398827
1.3294232649071358
1.316715542521994
1.3049853372434017
1.2932551319648091
1.281524926686217
1.267839687194526
1.2551319648093842
1.24633431085044
1.2375366568914956
1.2267839687194526
1.217008797653959
1.209188660801564
1.1994134897360704
1.1896383186705768
1.181818181818182
1.1749755620723363
1.1681329423264908
1.1622678396871946
1.1564027370478984
1.1534701857282503
1.1485826001955035
1.1407624633431086
1.133919843597263
1.126099706744868
1.1163245356793745
1.1065493646138806
1.0987292277614855
1.0918866080156402
1.086021505376344
1.0801564027370478
1.0742913000977516
1.0713587487781036
1.0694037145650048
1.0654936461388074
1.0606060606060606
1.056695992179863
1.0547409579667644
1.053763440860215
1.050830889540567
1.043010752688172
1.0361681329423265
1.0332355816226784
1.0361681329423265
1.0518084066471165
1.0801564027370478
1.1290322580645162
1.2111436950146628
1.324535679374389
1.4672531769305963
1.6314760508308896
1.8084066471163245
1.986314760508309
2.15347018572825
2.303030303030303
2.4330400782013686
2.5434995112414467
2.6207233626588464
2.675464320625611
2.724340175953079
2.763440860215054
1.7223851417399805
1.7008797653958945
1.6813294232649072
1.664711632453568
1.6500488758553276
1.6363636363636365
1.6236559139784943
1.6129032258064515
1.6021505376344083
1.590420332355816
1.576735092864125
1.560117302052786
1.541544477028348
1.52297165200391
1.5034213098729228
1.4838709677419355
1.4643206256109482
1.444770283479961
1.4271749755620724
1.41544477028348
1.4056695992179864
1.3949169110459434
1.3812316715542523
1.3665689149560116
1.3519061583577712
1.33822091886608
1.3255131964809383
1.3118279569892473
1.2991202346041055
1.2864125122189638
1.2727272727272727
1.262952101661779
1.2551319648093842
1.2443792766373412
1.2326490713587488
1.2218963831867058
1.2130987292277615
1.2052785923753666
1.198435972629521
1.1915933528836755
1.18475073313783
1.1788856304985338
1.1720430107526882
1.1652003910068427
1.1622678396871946
1.160312805474096
1.1564027370478984
1.1534701857282503
1.1495601173020529
1.144672531769306
1.13880742913001
1.1329423264907137
1.115347018572825
1.0928641251221896
1.0772238514173995
1.0664711632453567
1.0606060606060606
1.0576735092864125
1.0527859237536656
1.0469208211143697
1.040078201368524
1.0332355816226784
1.029325513196481
1.0273704789833822
1.0224828934506354
1.0205278592375366
1.0195503421309873
1.0156402737047898
1.0097751710654936
1.0068426197458455
1.0048875855327468
1.0009775171065494
0.9951124144672532
0.9882697947214076
0.981427174975562
0.9745845552297164
0.9667644183773216
0.9618768328445748
0.9374389051808406
0.9393939393939394
0.9550342130987292
0.9863147605083088
1.04594330400782
1.1515151515151516
1.3010752688172045
1.4897360703812317
1.7086999022482894
1.9442815249266865
2.1808406647116323
2.409579667644184
2.616813294232649
2.795698924731183
2.948191593352884
3.069403714565005
3.150537634408602
3.206256109481916
3.2561094819159337
3.2952101661779083
3.320625610948192
3.3313782991202348
3.329423264907136
3.315738025415445
3.29227761485826
3.26197458455523
3.2267839687194524
3.185728250244379
3.1388074291300097
3.086021505376344
3.027370478983382
2.964809384164223
2.8963831867057674
2.822091886608016
2.742913000977517
2.659824046920821
2.573802541544477
2.4887585532746823
2.407624633431085
2.332355816226784
2.2639296187683287
2.2052785923753664
2.155425219941349
2.110459433040078
2.070381231671554
2.03128054740958
1.997067448680352
1.967741935483871
1.9403714565004888
1.913978494623656
1.8875855327468232
1.86119257086999
1.836754643206256
1.8191593352883677
1.8035190615835777
1.7859237536656891
1.7683284457478006
1.7487781036168133
1.7282502443792769
1.7067448680351909
1.683284457478006
1.6588465298142718
1.635386119257087
1.6129032258064515
1.5923753665689149
1.5747800586510263
1.560117302052786
1.5454545454545454
1.5278592375366569
1.5112414467253177
1.495601173020528
1.47702834799609
1.456500488758553
1.4349951124144673
1.41544477028348
1.3978494623655917
1.3822091886608017
1.3665689149560116
1.3558162267839686
1.346041055718475
1.3343108504398826
1.3206256109481915
1.3088954056695992
1.2991202346041055
1.2903225806451613
1.2825024437927663
1.2727272727272727
1.2609970674486803
1.2473118279569892
1.2336265884652982
1.2228739002932552
1.2179863147605083
1.2150537634408602
1.2101661779081134
1.2043010752688172
1.1974584555229717
1.1867057673509287
1.1759530791788857
1.1671554252199414
1.1583577712609971
1.1505376344086022
1.142717497556207
1.1358748778103618
1.1319648093841643
1.1300097751710656
1.1251221896383188
1.1231671554252198
1.1270772238514175
1.1436950146627567
1.1837732160312806
1.2551319648093842
1.3587487781036167
1.4926686217008798
1.6529814271749756
1.827956989247312
2.0097751710654936
2.164222873900293
2.297165200391007
2.429130009775171
2.548387096774193
2.6480938416422286
2.727272727272727
2.788856304985337
2.834799608993157
2.866080156402737
2.887585532746823
2.900293255131965
2.903225806451613
2.89345063538612
2.8719452590420333
2.8426197458455524
2.8084066471163247
2.76930596285435
2.724340175953079
2.6725317693059627
2.6148582600195502
2.549364613880743
2.4750733137829912
2.393939393939394
2.3088954056695994
2.231671554252199
2.160312805474096
2.0879765395894427
2.018572825024438
1.9530791788856303
1.8944281524926687
1.8465298142717497
1.8084066471163245
1.7741935483870968
1.7438905180840665
1.7194525904203324
1.696969696969697
1.6744868035190617
1.6559139784946235
1.6373411534701858
1.6207233626588464
1.607038123167155
1.5933528836754642
1.5806451612903225
1.5669599217986314
1.5513196480938416
1.5356793743890518
1.5190615835777126
1.499511241446725
1.478983382209189
1.4613880742913
1.444770283479961
1.426197458455523
1.4076246334310851
1.391006842619746
1.375366568914956
1.3577712609970674
1.3401759530791788
1.3206256109481915
1.2991202346041055
1.2795698924731185
1.2590420332355816
1.2394916911045943
1.2258064516129032
1.2150537634408602
1.2023460410557183
1.1906158357771262
1.181818181818182
1.1730205278592376
1.1652003910068427
1.1573802541544478
1.1505376344086022
1.142717497556207
1.1358748778103618
1.1280547409579669
1.1241446725317692
1.1241446725317692
1.1241446725317692
1.1221896383186705
1.118279569892473
1.1124144672531768
1.1055718475073313
1.1006842619745845
1.0977517106549364
1.0948191593352885
1.0899315738025417
1.0811339198435972
1.0713587487781036
1.0664711632453567
1.064516129032258
1.0762463343108504
1.1065493646138806
1.1505376344086022
1.2189638318670577
1.316715542521994
1.4428152492668622
1.590420332355816
1.7517106549364614
1.9130009775171064
2.0664711632453567
2.190615835777126
2.2883675464320627
2.3812316715542523
2.4604105571847508
2.5210166177908118
2.5669599217986314
2.598240469208211
2.618768328445748
2.63049853372434
2.635386119257087
2.631476050830889
2.618768328445748
2.598240469208211
2.572825024437928
2.5434995112414467
2.5112414467253177
2.4750733137829912
2.434017595307918
2.388074291300098
2.337243401759531
2.281524926686217
2.219941348973607
2.1544477028347995
2.085043988269794
2.01564027370479
1.9550342130987293
1.902248289345064
1.8484848484848484
1.7986314760508308
1.7565982404692082
1.721407624633431
1.6920821114369502
1.6656891495601174
1.640273704789834
1.6148582600195502
1.5923753665689149
1.573802541544477
1.5591397849462365
1.5503421309872922
1.544477028347996
1.5386119257087
1.530791788856305
1.520039100684262
1.5053763440860215
1.4887585532746823
1.4711632453567938
1.4535679374389052
1.4349951124144673
1.4173998044965788
1.4007820136852396
1.3890518084066472
1.380254154447703
1.3695014662756595
1.359726295210166
1.3519061583577712
1.3440860215053765
1.3333333333333333
1.3225806451612905
1.310850439882698
1.2991202346041055
1.2864125122189638
1.2746823069403714
1.2619745845552297
1.2531769305962854
1.2443792766373412
1.2316715542521994
1.219941348973607
1.209188660801564
1.2003910068426198
1.1935483870967742
1.1867057673509287
1.1808406647116323
1.173998044965787
1.1681329423264908
1.1622678396871946
1.1593352883675463
1.1573802541544478
1.1534701857282503
1.1485826001955035
1.142717497556207
1.1368523949169111
1.130987292277615
1.1251221896383188
1.1192570869990224
1.1133919843597262
1.10752688172043
1.1016617790811338
1.0957966764418376
1.0928641251221896
1.0909090909090908
1.0869990224828934
1.0821114369501466
1.0762463343108504
1.0703812316715542
1.0694037145650048
1.0840664711632453
1.1231671554252198
1.1925708699902249
1.2961876832844574
1.4291300097751711
1.563049853372434
1.696969696969697
1.8484848484848484
2.0019550342130987
2.144672531769306
2.2688172043010755
2.3734115347018574
2.4565004887585533
2.5190615835777126
2.5669599217986314
2.603128054740958
2.627565982404692
2.6392961876832843
2.6392961876832843
2.63049853372434
2.6148582600195502
2.593352883675464
2.567937438905181
2.5386119257087
2.5034213098729228
2.463343108504399
2.419354838709677
2.3714565004887587
2.3196480938416424
2.2639296187683287
2.210166177908113
2.155425219941349
2.09188660801564
2.026392961876833
1.963831867057673
1.903225806451613
1.8484848484848484
1.801564027370479
1.7624633431085044
1.7311827956989247
1.7028347996089932
1.678396871945259
1.656891495601173
1.6383186705767352
1.619745845552297
1.6021505376344083
1.585532746823069
1.5698924731182795
1.5562072336265884
1.541544477028348
1.5268817204301075
1.5131964809384164
1.500488758553275
1.487781036168133
1.474095796676442
1.4613880742913
1.4486803519061584
1.4330400782013686
1.4164222873900294
1.3998044965786902
1.3861192570869991
1.3724340175953078
1.359726295210166
1.3479960899315735
1.335288367546432
1.3235581622678396
1.310850439882698
1.3020527859237536
1.2942326490713587
1.284457478005865
1.2717497556207231
1.2580645161290325
1.2453567937438903
1.2326490713587488
1.219941348973607
1.209188660801564
1.2003910068426198
1.1935483870967742
1.1867057673509287
1.1808406647116323
1.1779081133919844
1.1759530791788857
1.1720430107526882
1.1671554252199414
1.1612903225806452
1.155425219941349
1.1495601173020529
1.1436950146627567
1.1378299120234605
1.1319648093841643
1.126099706744868
1.1192570869990224
1.1163245356793745
1.1143695014662756
1.110459433040078
1.1055718475073313
1.1006842619745845
1.0928641251221896
1.083088954056696
1.0742913000977516
1.0664711632453567
1.0596285434995112
1.0527859237536656
1.0469208211143697
1.0420332355816226
1.0410557184750733
1.0410557184750733
1.0371456500488758
1.032258064516129
1.0273704789833822
1.0205278592375366
1.013685239491691
