ppg
0.9296187683284456
0.9227761485826002
0.9188660801564028
0.919843597262952
0.9227761485826002
0.9247311827956988
0.9257086999022482
0.9257086999022482
0.9266862170087976
0.927663734115347
0.927663734115347
0.927663734115347
0.9266862170087976
0.9257086999022482
0.9237536656891496
0.9257086999022482
0.9286412512218964
0.9296187683284456
0.9296187683284456
0.9296187683284456
0.9296187683284456
0.9315738025415444
0.9345063538611924
0.93841642228739
0.9442815249266864
0.9511241446725318
0.978494623655914
1.0166177908113392
1.040078201368524
1.053763440860215
1.0596285434995112
1.0606060606060606
1.0586510263929618
1.0547409579667644
1.0498533724340176
1.043010752688172
1.035190615835777
1.0273704789833822
1.0195503421309873
1.013685239491691
1.0117302052785924
1.0117302052785924
1.0097751710654936
1.007820136852395
1.0048875855327468
1.002932551319648
1.0019550342130987
1.0019550342130987
1.002932551319648
1.0048875855327468
1.0058651026392962
1.007820136852395
1.0117302052785924
1.018572825024438
1.0273704789833822
1.0361681329423265
1.0439882697947214
1.0498533724340176
1.0547409579667644
1.0606060606060606
1.0694037145650048
1.0879765395894427
1.1231671554252198
1.1837732160312806
1.278592375366569
1.388074291300098
1.5190615835777126
1.6950146627565983
1.902248289345064
2.126099706744868
2.3519061583577714
2.565982404692082
2.758553274682307
2.9237536656891496
3.058651026392962
3.166177908113392
3.2482893450635384
3.310850439882698
3.3489736070381237
3.3704789833822093
3.3900293255131966
3.404692082111437
3.4134897360703813
3.41544477028348
3.4086021505376345
3.393939393939394
3.36950146627566
3.3362658846529816
3.2932551319648096
3.2248289345063537
3.1593352883675463
3.1065493646138806
3.038123167155425
2.9589442815249267
2.8729227761485827
2.782991202346041
2.69208211143695
2.6041055718475072
2.5219941348973607
2.4486803519061584
2.3841642228739004
2.3313782991202348
2.290322580645161
2.260019550342131
2.2385141739980448
2.2238514173998043
2.21505376344086
2.2082111436950145
2.201368523949169
2.1925708699902247
2.179863147605083
2.163245356793744
2.142717497556207
2.118279569892473
2.089931573802541
2.0625610948191597
2.035190615835777
2.003910068426197
1.970674486803519
1.9364613880742916
1.902248289345064
1.8670576735092863
1.833822091886608
1.801564027370479
1.76930596285435
1.7380254154447703
1.7086999022482894
1.6803519061583578
1.6578690127077225
1.6383186705767352
1.616813294232649
1.595307917888563
1.573802541544477
1.5542521994134897
1.5366568914956011
1.5190615835777126
1.501466275659824
1.4848484848484849
1.469208211143695
1.4516129032258065
1.4379276637341154
1.426197458455523
1.409579667644184
1.3890518084066472
1.3665689149560116
1.343108504398827
1.3186705767350928
1.2932551319648091
1.262952101661779
1.2297165200391007
1.2023460410557183
1.1837732160312806
1.1691104594330402
1.1573802541544478
1.1466275659824048
1.1280547409579669
1.1055718475073313
1.0850439882697946
1.0713587487781036
1.056695992179863
1.0381231671554252
1.0234604105571847
1.010752688172043
0.9990224828934506
0.9931573802541545
0.9921798631476052
0.989247311827957
0.9872922776148584
0.9941348973607038
1.0146627565982405
1.0547409579667644
1.1192570869990224
1.1779081133919844
1.281524926686217
1.4545454545454546
1.6344086021505375
1.8172043010752688
1.975562072336266
2.1163245356793743
2.260997067448681
2.393939393939394
2.509286412512219
2.6041055718475072
2.679374389051808
2.73802541544477
2.782013685239492
2.8152492668621703
2.8406647116324537
2.860215053763441
2.8699902248289346
2.8729227761485827
2.874877810361681
2.873900293255132
2.866080156402737
2.850439882697948
2.825024437927664
2.789833822091887
2.742913000977517
2.684261974584555
2.6158357771261
2.5376344086021505
2.453567937438905
2.376344086021505
2.304985337243402
2.23069403714565
2.1593352883675463
2.0948191593352883
2.040078201368524
1.9951124144672527
1.9589442815249267
1.9286412512218964
1.902248289345064
1.8778103616813293
1.8523949169110456
1.8299120234604105
1.8084066471163245
1.782991202346041
1.7546432062561097
1.7243401759530792
1.6930596285434996
1.66177908113392
1.629521016617791
1.5972629521016617
1.565982404692082
1.5376344086021505
1.5102639296187683
1.4897360703812317
1.4731182795698925
1.456500488758553
1.4418377321603129
1.4301075268817205
1.4203323558162269
1.4115347018572826
1.4027370478983383
1.392961876832845
1.3841642228739004
1.375366568914956
1.3655913978494625
1.3548387096774193
1.346041055718475
1.3372434017595307
1.324535679374389
1.3098729227761483
1.2932551319648091
1.2756598240469208
1.2580645161290325
1.2404692082111437
1.2228739002932552
1.206256109481916
1.1915933528836755
1.1779081133919844
1.1700879765395895
1.166177908113392
1.1612903225806452
1.1564027370478984
1.1544477028347997
1.1544477028347997
1.155425219941349
1.1583577712609971
1.1612903225806452
1.1652003910068427
1.1700879765395895
1.1759530791788857
1.181818181818182
1.1906158357771262
1.1994134897360704
1.2082111436950147
1.2160312805474096
1.2228739002932552
1.2287390029325511
1.2346041055718475
1.241446725317693
1.2512218963831867
1.2668621700879763
1.2942326490713587
1.3411534701857282
1.3998044965786902
1.47702834799609
1.5894428152492668
1.7331378299120237
1.900293255131965
2.024437927663734
2.117302052785924
2.236559139784946
2.360703812316716
2.4760508308895406
2.576735092864125
2.6608015640273703
2.730205278592375
2.777126099706745
2.809384164222874
2.8426197458455524
2.873900293255132
2.9012707722385143
2.9237536656891496
2.941348973607038
2.9550342130987293
2.962854349951124
2.962854349951124
2.956011730205278
2.940371456500489
2.9159335288367547
2.8826979472140764
2.841642228739003
2.792766373411535
2.735092864125122
2.670576735092864
2.60019550342131
2.5268817204301075
2.4516129032258065
2.378299120234604
2.3098729227761488
2.247311827956989
2.1915933528836757
2.146627565982405
2.1094819159335287
2.0762463343108504
2.046920821114369
2.0205278592375366
1.997067448680352
1.975562072336266
1.9550342130987293
1.9345063538611929
1.9130009775171064
1.889540566959922
1.866080156402737
1.844574780058651
1.8240469208211143
1.8005865102639296
1.7761485826001957
1.7517106549364614
1.7272727272727273
1.7028347996089932
1.678396871945259
1.6549364613880744
1.6314760508308896
1.607038123167155
1.5835777126099706
1.560117302052786
1.5405669599217986
1.5239491691104594
1.504398826979472
1.4848484848484849
1.4643206256109482
1.444770283479961
1.426197458455523
1.4076246334310851
1.3890518084066472
1.370478983382209
1.3519061583577712
1.3333333333333333
1.3206256109481915
1.3098729227761483
1.2971652003910068
1.2864125122189638
1.2776148582600195
1.270772238514174
1.2668621700879763
1.2649071358748778
1.2649071358748778
1.2658846529814272
1.2658846529814272
1.2658846529814272
1.2658846529814272
1.2658846529814272
1.2668621700879763
1.2649071358748778
1.2619745845552297
1.2570869990224829
1.2512218963831867
1.2443792766373412
1.2355816226783969
1.2238514173998043
1.209188660801564
1.1906158357771262
1.1671554252199414
1.1456500488758554
1.1241446725317692
1.096774193548387
1.0664711632453567
1.0410557184750733
1.0263929618768328
1.029325513196481
1.0557184750733135
1.1094819159335287
1.1896383186705768
1.2932551319648091
1.414467253176931
1.5454545454545454
1.6608015640273706
1.7634408602150538
1.868035190615836
1.964809384164223
2.047898338220919
2.118279569892473
2.174975562072336
2.219941348973607
2.2561094819159337
2.2844574780058653
2.3069403714565007
2.324535679374389
2.335288367546432
2.3411534701857284
2.347018572825025
2.3499511241446727
2.347018572825025
2.3362658846529816
2.3167155425219943
2.286412512218964
2.2453567937438903
2.1945259042033234
2.133919843597263
2.065493646138808
1.991202346041056
1.9227761485826005
1.858260019550342
1.7859237536656891
1.7126099706744868
1.6412512218963833
1.5708699902248289
1.5034213098729228
1.4408602150537635
1.3822091886608017
1.3284457478005864
1.2805474095796676
1.2394916911045943
1.2082111436950147
1.1837732160312806
1.1573802541544478
1.1319648093841643
1.1055718475073313
1.0791788856304985
1.0527859237536656
1.0273704789833822
1.002932551319648
0.9794721407624634
0.9579667644183774
0.9403714565004888
0.9257086999022482
0.9178885630498532
0.9149560117302052
0.9100684261974584
0.906158357771261
0.9032258064516128
0.9022482893450636
0.9032258064516128
0.906158357771261
0.9120234604105572
0.9208211143695014
0.9325513196480938
0.9472140762463344
0.9657869012707724
0.9863147605083088
1.010752688172043
1.0361681329423265
1.0635386119257086
1.0928641251221896
1.1241446725317692
1.1564027370478984
1.1896383186705768
1.224828934506354
1.2609970674486803
1.2961876832844574
1.327468230694037
1.3558162267839686
1.383186705767351
1.409579667644184
1.4330400782013686
1.4535679374389052
1.4711632453567938
1.4858260019550342
1.498533724340176
1.5112414467253177
1.521994134897361
1.5298142717497556
1.5366568914956011
1.541544477028348
1.544477028347996
1.544477028347996
1.541544477028348
1.5347018572825024
1.5239491691104594
1.5102639296187683
1.4926686217008798
1.4731182795698925
1.4545454545454546
1.4418377321603129
1.439882697947214
1.4486803519061584
1.4731182795698925
1.521016617790811
1.595307917888563
1.6930596285434996
1.812316715542522
1.9442815249266865
2.081133919843597
2.21505376344086
2.3391984359726297
2.4486803519061584
2.5425219941348973
2.6207233626588464
2.675464320625611
2.7155425219941347
2.755620723362659
2.792766373411535
2.827956989247312
2.860215053763441
2.889540566959922
2.913978494623656
2.9335288367546437
2.949169110459433
2.959921798631476
2.964809384164223
2.959921798631476
2.9472140762463344
2.930596285434995
2.905180840664712
2.8690127077223853
2.8211143695014664
2.7624633431085046
2.6940371456500487
2.618768328445748
2.5405669599217986
2.4613880742913
2.383186705767351
2.30791788856305
2.242424242424242
2.1847507331378297
2.1270772238514173
2.0733137829912023
2.0234604105571847
1.978494623655914
1.93841642228739
1.9012707722385145
1.8670576735092863
1.833822091886608
1.8005865102639296
1.7839687194525904
1.7810361681329423
1.7663734115347018
1.7409579667644184
1.70772238514174
1.6715542521994136
1.635386119257087
1.5992179863147604
1.564027370478983
1.5317693059628543
1.501466275659824
1.4731182795698925
1.4457478005865103
1.4193548387096775
1.3978494623655917
1.3773216031280548
1.3519061583577712
1.3235581622678396
1.2932551319648091
1.262952101661779
1.2346041055718475
1.2082111436950147
1.18475073313783
1.164222873900293
1.144672531769306
1.1280547409579669
1.1173020527859236
1.1094819159335287
1.099706744868035
1.088954056695992
1.078201368523949
1.067448680351906
1.0557184750733135
1.0439882697947214
1.0303030303030305
1.0156402737047898
1.0
0.9843597262952102
0.9696969696969696
0.959921798631476
0.9530791788856304
0.9452590420332356
0.93841642228739
0.9325513196480938
0.927663734115347
0.9237536656891496
0.9188660801564028
0.913978494623656
0.9090909090909092
0.9032258064516128
0.8963831867057673
0.8924731182795699
0.8914956011730205
0.8875855327468231
0.8875855327468231
0.8963831867057673
0.919843597262952
0.9657869012707724
1.0371456500488758
1.1348973607038124
1.2561094819159335
1.3949169110459434
1.542521994134897
1.6901270772238517
1.8142717497556209
1.9188660801564028
2.021505376344086
2.112414467253177
2.189638318670577
2.2521994134897363
2.3010752688172045
2.340175953079179
2.372434017595308
2.39980449657869
2.423264907135875
2.443792766373412
2.4565004887585533
2.464320625610948
2.4731182795698925
2.4789833822091887
2.4809384164222874
2.47702834799609
2.466275659824047
2.447702834799609
2.420332355816227
2.3841642228739004
2.340175953079179
2.2883675464320627
2.2297165200391005
2.175953079178885
2.124144672531769
2.0684261974584555
2.013685239491691
1.963831867057673
1.9188660801564028
1.8807429130009776
1.847507331378299
1.8191593352883677
1.7947214076246334
1.7712609970674489
1.747800586510264
1.7272727272727273
1.70772238514174
1.6842619745845553
1.6578690127077225
1.6285434995112416
1.5992179863147604
1.56891495601173
1.5376344086021505
1.5063538611925709
1.4760508308895406
1.4467253176930597
1.4193548387096775
1.393939393939394
1.375366568914956
1.3607038123167154
1.346041055718475
1.332355816226784
1.3206256109481915
1.310850439882698
1.3049853372434017
1.3020527859237536
1.3020527859237536
1.3040078201368523
1.3079178885630498
1.3128054740957966
1.3186705767350928
1.324535679374389
1.3284457478005864
1.3294232649071358
1.3294232649071358
1.327468230694037
1.3255131964809383
1.3225806451612905
1.3186705767350928
1.3147605083088951
1.310850439882698
1.3069403714565004
1.3049853372434017
1.3040078201368523
1.300097751710655
1.2942326490713587
1.2883675464320623
1.281524926686217
1.273704789833822
1.2649071358748778
1.2551319648093842
1.2453567937438903
1.2336265884652982
1.2209188660801564
1.2082111436950147
1.1994134897360704
1.1935483870967742
1.18475073313783
1.1749755620723363
1.166177908113392
1.1583577712609971
1.1515151515151516
1.1456500488758554
1.142717497556207
1.1466275659824048
1.1612903225806452
1.1925708699902249
1.2365591397849462
1.2961876832844574
1.3851417399804498
1.500488758553275
1.6363636363636365
1.7859237536656891
1.9393939393939397
2.088954056695992
2.2277614858260018
2.3499511241446727
2.4545454545454546
2.541544477028348
2.611925708699902
2.6608015640273703
2.695014662756598
2.7282502443792764
2.757575757575758
2.782991202346041
2.8025415444770285
2.8152492668621703
2.823069403714565
2.823069403714565
2.81622678396872
2.801564027370479
2.777126099706745
2.744868035190616
2.705767350928641
2.6578690127077222
2.60019550342131
2.533724340175953
2.4594330400782014
2.3792766373411536
2.2961876832844577
2.2111436950146626
2.1280547409579667
2.048875855327468
1.9765395894428155
1.9120234604105573
1.86119257086999
1.8201368523949168
1.7820136852394917
1.7487781036168133
1.718475073313783
1.6920821114369502
1.667644183773216
1.6451612903225807
1.6226783968719452
1.6001955034213098
1.576735092864125
1.5513196480938416
1.5288367546432062
1.5073313782991202
1.4809384164222874
1.4516129032258065
1.4203323558162269
1.3890518084066472
1.3587487781036167
1.3284457478005864
1.300097751710655
1.273704789833822
1.249266862170088
1.2258064516129032
1.2052785923753666
1.1915933528836755
1.1808406647116323
1.1691104594330402
1.1573802541544478
1.1456500488758554
1.133919843597263
1.1241446725317692
1.115347018572825
1.1065493646138806
1.099706744868035
1.093841642228739
1.088954056695992
1.088954056695992
1.0918866080156402
1.093841642228739
1.096774193548387
1.1006842619745845
1.1055718475073313
1.110459433040078
1.115347018572825
1.1202346041055715
1.1231671554252198
1.1251221896383188
1.1270772238514175
1.1270772238514175
1.1300097751710656
1.133919843597263
1.1358748778103618
1.1368523949169111
1.13880742913001
1.173998044965787
1.2267839687194526
1.2570869990224829
1.2766373411534702
1.2913000977517106
1.3020527859237536
1.310850439882698
1.3186705767350928
1.3255131964809383
1.3304007820136852
1.3372434017595307
1.3509286412512218
1.3782991202346042
1.4242424242424243
1.4936461388074291
1.587487781036168
1.7028347996089932
1.835777126099707
1.978494623655914
2.1221896383186705
2.243401759530792
2.346041055718475
2.4486803519061584
2.541544477028348
2.619745845552297
2.6823069403714563
2.732160312805474
2.7702834799608995
2.80058651026393
2.8240469208211145
2.841642228739003
2.8533724340175954
2.857282502443793
2.854349951124145
2.849462365591398
2.8396871945259043
2.823069403714565
2.7976539589442817
2.763440860215054
2.718475073313783
2.6637341153470184
2.60019550342131
2.529814271749756
2.4545454545454546
2.376344086021505
2.3069403714565007
2.242424242424242
2.1739980449657867
2.10850439882698
2.048875855327468
1.9960899315738023
1.9501466275659824
1.9100684261974583
1.8758553274682308
1.844574780058651
1.81524926686217
1.7859237536656891
1.7605083088954057
1.737047898338221
1.7096774193548387
1.6793743890518085
1.6471163245356797
1.6148582600195502
1.5826001955034212
1.5503421309872922
1.5190615835777126
1.4887585532746823
1.4604105571847508
1.434017595307918
1.4105571847507332
1.392961876832845
1.3792766373411536
1.364613880742913
1.348973607038123
1.3343108504398826
1.3206256109481915
1.3069403714565004
1.2932551319648091
1.2805474095796676
1.267839687194526
1.2551319648093842
1.241446725317693
1.2326490713587488
1.2267839687194526
1.217008797653959
1.2072336265884651
1.198435972629521
1.1906158357771262
1.1857282502443791
1.1827956989247312
1.1808406647116323
1.1808406647116323
1.181818181818182
1.1827956989247312
1.18475073313783
1.1886608015640274
1.1935483870967742
1.195503421309873
1.1964809384164223
1.1974584555229717
1.198435972629521
1.1994134897360704
1.2003910068426198
1.2023460410557183
1.2052785923753666
1.2072336265884651
1.209188660801564
1.2140762463343109
1.219941348973607
1.224828934506354
1.2287390029325511
1.2316715542521994
1.2326490713587488
1.2336265884652982
1.2355816226783969
1.2404692082111437
1.2541544477028348
1.2825024437927663
1.3313782991202343
1.3919843597262953
1.4701857282502444
1.5806451612903225
1.7174975562072337
1.873900293255132
2.040078201368524
2.206256109481916
2.364613880742913
2.5083088954056696
2.633431085043988
2.7390029325513194
2.8260019550342133
2.897360703812317
2.946236559139785
2.9804496578690127
3.013685239491691
3.0439882697947214
3.071358748778104
3.093841642228739
3.110459433040078
3.120234604105572
3.12316715542522
3.1192570869990224
3.10752688172043
3.086021505376344
3.0557184750733137
3.0175953079178885
2.9696969696969697
2.9120234604105573
2.84652981427175
2.776148582600196
2.702834799608993
2.6295210166177907
2.5591397849462365
2.4946236559139785
2.4359726295210167
2.3851417399804498
2.3411534701857284
2.3059628543499517
2.274682306940372
2.244379276637341
2.2140762463343107
2.1847507331378297
2.1544477028347995
2.12316715542522
2.09188660801564
2.060606060606061
2.029325513196481
1.9990224828934504
1.9696969696969695
1.9442815249266865
1.919843597262952
1.8934506353861196
1.866080156402737
1.8377321603128052
1.8093841642228736
1.7810361681329423
1.7526881720430108
1.7243401759530792
1.696969696969697
1.6695992179863148
1.6422287390029326
1.616813294232649
1.5962854349951123
1.5786901270772238
1.5591397849462365
1.5386119257087
1.517106549364614
1.4965786901270772
1.47702834799609
1.458455522971652
1.4408602150537635
1.4252199413489737
1.4115347018572826
1.3998044965786902
1.392961876832845
1.3890518084066472
1.3822091886608017
1.3743890518084063
1.367546432062561
1.3607038123167154
1.35386119257087
1.3470185728250244
1.3411534701857282
1.3372434017595307
1.3343108504398826
1.332355816226784
1.332355816226784
1.3343108504398826
1.33822091886608
1.3411534701857282
1.3421309872922775
1.3421309872922775
1.3411534701857282
1.3401759530791788
1.33822091886608
1.335288367546432
1.3313782991202343
1.3264907135874875
1.321603128054741
1.321603128054741
1.324535679374389
1.3313782991202343
1.3499511241446724
1.3841642228739004
1.439882697947214
1.520039100684262
1.6265884652981428
1.7556207233626588
1.903225806451613
2.059628543499511
2.2170087976539588
2.366568914956012
2.4858260019550342
2.581622678396872
2.674486803519061
2.7565982404692084
2.8260019550342133
2.8836754643206257
2.930596285434995
2.9687194525904204
3.0009775171065494
3.027370478983382
3.046920821114369
3.060606060606061
3.0635386119257086
3.0576735092864125
3.0498533724340176
3.0361681329423265
3.0146627565982405
2.98435972629521
2.9442815249266863
2.89345063538612
2.833822091886608
2.766373411534702
2.69208211143695
2.6148582600195502
2.4995112414467253
2.375366568914956
2.283479960899316
2.204301075268817
2.134897360703812
2.074291300097752
2.021505376344086
1.975562072336266
1.9345063538611929
1.8973607038123168
1.8621700879765395
1.827956989247312
1.7956989247311828
1.7673509286412512
1.7409579667644184
1.7126099706744868
1.6823069403714566
1.6520039100684265
1.6217008797653958
1.5923753665689149
1.564027370478983
1.5366568914956011
1.5102639296187683
1.4848484848484849
1.4613880742913
1.4389051808406648
1.4222873900293256
1.4086021505376345
1.392961876832845
1.3763440860215057
1.3587487781036167
1.3421309872922775
1.3255131964809383
1.3088954056695992
1.29227761485826
1.2776148582600195
1.262952101661779
1.249266862170088
1.2404692082111437
1.2336265884652982
1.224828934506354
1.2150537634408602
1.2043010752688172
1.1945259042033236
1.18475073313783
1.1749755620723363
1.1652003910068427
1.1564027370478984
1.147605083088954
1.13880742913001
1.130987292277615
1.126099706744868
1.1231671554252198
1.118279569892473
1.1133919843597262
1.1085043988269794
1.1036168132942326
1.0987292277614855
1.0948191593352885
1.0899315738025417
1.086021505376344
1.083088954056696
1.0801564027370478
1.0801564027370478
1.0821114369501466
1.0821114369501466
1.0801564027370478
1.0762463343108504
1.072336265884653
1.0694037145650048
1.0703812316715542
1.0801564027370478
1.1055718475073313
1.1505376344086022
1.2218963831867058
1.3206256109481915
1.426197458455523
1.541544477028348
1.6871945259042034
1.8484848484848484
2.013685239491691
2.1730205278592374
2.318670576735093
2.44672531769306
2.5562072336265884
2.64613880742913
2.719452590420332
2.779081133919844
2.819159335288368
2.8475073313782997
2.87683284457478
2.9042033235581624
2.9266862170087977
2.943304007820137
2.95405669599218
2.956989247311828
2.952101661779081
2.9393939393939394
2.917888563049853
2.886608015640274
2.849462365591398
2.8054740957966766
2.750733137829912
2.687194525904203
2.616813294232649
2.541544477028348
2.462365591397849
2.3812316715542523
2.303030303030303
2.2297165200391005
2.1622678396871944
2.101661779081134
2.048875855327468
2.005865102639296
1.970674486803519
1.9374389051808407
1.906158357771261
1.8758553274682308
1.8465298142717497
1.8162267839687196
1.7859237536656891
1.75366568914956
1.721407624633431
1.6881720430107527
1.6549364613880744
1.6275659824046922
1.6021505376344083
1.5747800586510263
1.5464320625610948
1.517106549364614
1.4887585532746823
1.4613880742913
1.4222873900293256
1.3978494623655917
1.3743890518084063
1.3333333333333333
1.3176930596285434
1.3049853372434017
1.278592375366569
1.2639296187683284
1.249266862170088
1.2218963831867058
1.2082111436950147
1.1945259042033236
1.1759530791788857
1.163245356793744
1.155425219941349
1.1515151515151516
1.144672531769306
1.1378299120234605
1.1300097751710656
1.121212121212121
1.1133919843597262
1.1055718475073313
1.0987292277614855
1.0918866080156402
1.086021505376344
1.0801564027370478
1.075268817204301
1.0742913000977516
1.0742913000977516
1.072336265884653
1.0703812316715542
1.0684261974584557
1.0664711632453567
1.0654936461388074
1.064516129032258
1.0625610948191593
1.0606060606060606
1.0576735092864125
1.053763440860215
1.053763440860215
1.056695992179863
1.0625610948191593
1.078201368523949
1.110459433040078
1.1652003910068427
1.24633431085044
1.3558162267839686
1.4897360703812317
1.643206256109482
1.8074291300097751
1.9726295210166176
2.1309872922776147
2.259042033235582
2.363636363636364
2.4652981427174976
2.555229716520039
2.63049853372434
2.69208211143695
2.7419354838709675
2.782991202346041
2.817204301075269
2.8455522971652005
2.8690127077223853
2.8856304985337244
2.89247311827957
2.8914956011730206
2.887585532746823
2.87683284457478
2.8582600195503423
