ppg
1.0058651026392962
1.007820136852395
1.0097751710654936
1.0117302052785924
1.013685239491691
1.0175953079178883
1.021505376344086
1.024437927663734
1.0273704789833822
1.0303030303030305
1.0342130987292275
1.043010752688172
1.056695992179863
1.0801564027370478
1.121212121212121
1.1837732160312806
1.2727272727272727
1.3900293255131966
1.533724340175953
1.699902248289345
1.881720430107527
2.0684261974584555
2.251221896383187
2.420332355816227
2.552297165200391
2.654936461388074
2.7517106549364616
2.832844574780059
2.8944281524926687
2.93841642228739
2.9667644183773216
2.9824046920821115
2.988269794721408
2.9853372434017595
2.972629521016618
2.952101661779081
2.9227761485826003
2.884652981427175
2.8377321603128056
2.780058651026393
2.7096774193548385
2.627565982404692
2.5347018572825024
2.4349951124144678
2.332355816226784
2.23069403714565
2.133919843597263
2.0449657869012707
1.9667644183773216
1.9042033235581624
1.8543499511241448
1.8093841642228736
1.7702834799608993
1.7390029325513197
1.7145650048875856
1.6950146627565983
1.6774193548387095
1.66177908113392
1.64613880742913
1.629521016617791
1.611925708699902
1.5923753665689149
1.5757575757575757
1.560117302052786
1.543499511241447
1.5268817204301075
1.5112414467253177
1.4965786901270772
1.4838709677419355
1.4711632453567938
1.458455522971652
1.444770283479961
1.4301075268817205
1.41544477028348
1.4027370478983383
1.3890518084066472
1.370478983382209
1.3499511241446724
1.3264907135874875
1.3010752688172045
1.2727272727272727
1.2443792766373412
1.217008797653959
1.1915933528836755
1.1681329423264908
1.1456500488758554
1.126099706744868
1.1133919843597262
1.1055718475073313
1.096774193548387
1.088954056695992
1.0840664711632453
1.083088954056696
1.086021505376344
1.0918866080156402
1.1016617790811338
1.1133919843597262
1.1280547409579669
1.1436950146627567
1.1593352883675463
1.173998044965787
1.1886608015640274
1.2023460410557183
1.2150537634408602
1.2258064516129032
1.2336265884652982
1.2375366568914956
1.2375366568914956
1.2365591397849462
1.2336265884652982
1.2297165200391007
1.224828934506354
1.2218963831867058
1.2179863147605083
1.2121212121212122
1.2052785923753666
1.1974584555229717
1.1886608015640274
1.1788856304985338
1.1691104594330402
1.1583577712609971
1.1485826001955035
1.1378299120234605
1.126099706744868
1.1173020527859236
1.110459433040078
1.1016617790811338
1.086021505376344
1.0703812316715542
1.0596285434995112
1.0469208211143697
1.0332355816226784
1.0234604105571847
1.0224828934506354
1.0361681329423265
1.0694037145650048
1.1270772238514175
1.195503421309873
1.281524926686217
1.4007820136852396
1.547409579667644
1.7135874877810362
1.8914956011730208
2.072336265884653
2.247311827956989
2.4115347018572826
2.560117302052786
2.6901270772238512
2.801564027370479
2.8807429130009776
2.9374389051808407
2.992179863147605
3.038123167155425
3.074291300097752
3.1006842619745845
3.115347018572825
3.117302052785924
3.1065493646138806
3.083088954056696
3.04594330400782
2.995112414467253
2.929618768328446
2.8582600195503423
2.7810361681329425
2.6930596285435
2.5972629521016617
2.4995112414467253
2.403714565004888
2.313782991202346
2.232649071358749
2.1622678396871944
2.102639296187683
2.053763440860215
2.0127077223851417
1.9804496578690127
1.9521016617790807
1.924731182795699
1.8983382209188664
1.871945259042033
1.844574780058651
1.81524926686217
1.7839687194525904
1.750733137829912
1.7145650048875856
1.6774193548387095
1.640273704789834
1.603128054740958
1.5728250244379276
1.5366568914956011
1.501466275659824
1.4760508308895406
1.447702834799609
1.4193548387096775
1.391006842619746
1.364613880742913
1.3391984359726294
1.316715542521994
1.2961876832844574
1.2776148582600195
1.2639296187683284
1.2531769305962854
1.241446725317693
1.2297165200391007
1.2150537634408602
1.2013685239491692
1.1915933528836755
1.1808406647116323
1.1710654936461389
1.160312805474096
1.1505376344086022
1.1397849462365592
1.1300097751710656
1.1231671554252198
1.1173020527859236
1.1094819159335287
1.099706744868035
1.088954056695992
1.0772238514173995
1.0654936461388074
1.050830889540567
1.0391006842619743
1.0303030303030305
1.0205278592375366
1.0117302052785924
1.0068426197458455
1.0039100684261977
0.9980449657869012
0.9921798631476052
0.9872922776148584
0.9872922776148584
0.9912023460410556
0.9912023460410556
0.9902248289345064
0.989247311827957
0.989247311827957
0.989247311827957
0.989247311827957
0.9921798631476052
0.997067448680352
1.0
1.002932551319648
1.0058651026392962
1.0087976539589445
1.010752688172043
1.013685239491691
1.0166177908113392
1.0195503421309873
1.021505376344086
1.024437927663734
1.029325513196481
1.0371456500488758
1.0488758553274682
1.0684261974584557
1.1026392961876832
1.1544477028347997
1.262952101661779
1.418377321603128
1.5356793743890518
1.6373411534701858
1.775171065493646
1.9305962854349952
2.069403714565005
2.193548387096774
2.32355816226784
2.444770283479961
2.550342130987292
2.634408602150537
2.702834799608993
2.750733137829912
2.777126099706745
2.793743890518084
2.8025415444770285
2.8044965786901277
2.80058651026393
2.782013685239492
2.7517106549364616
2.718475073313783
2.6911045943304006
2.64613880742913
2.5747800586510263
2.5210166177908118
2.4516129032258065
2.3519061583577714
2.2580645161290325
2.189638318670577
2.1251221896383186
2.047898338220919
1.9931573802541545
1.9413489736070384
1.8826979472140764
1.8377321603128052
1.8025415444770283
1.7741935483870968
1.7487781036168133
1.7243401759530792
1.699902248289345
1.6735092864125125
1.6451612903225807
1.6187683284457477
1.5933528836754642
1.564027370478983
1.533724340175953
1.501466275659824
1.4682306940371457
1.4349951124144673
1.4027370478983383
1.3724340175953078
1.3440860215053765
1.316715542521994
1.2913000977517106
1.2717497556207231
1.2561094819159335
1.238514173998045
1.2209188660801564
1.203323558162268
1.187683284457478
1.173998044965787
1.1622678396871946
1.152492668621701
1.1436950146627567
1.1358748778103618
1.1290322580645162
1.1221896383186705
1.1192570869990224
1.1163245356793745
1.1114369501466277
1.1055718475073313
1.0987292277614855
1.0909090909090908
1.0840664711632453
1.0762463343108504
1.0694037145650048
1.0625610948191593
1.056695992179863
1.050830889540567
1.0478983382209188
1.0469208211143697
1.043010752688172
1.0381231671554252
1.0332355816226784
1.0273704789833822
1.021505376344086
1.0166177908113392
1.010752688172043
1.0058651026392962
1.0009775171065494
0.9980449657869012
0.9960899315738024
0.997067448680352
0.9990224828934506
1.0
1.0
1.0
1.0
1.0
1.0009775171065494
1.0019550342130987
1.0039100684261977
1.0058651026392962
1.007820136852395
1.010752688172043
1.0156402737047898
1.018572825024438
1.021505376344086
1.0234604105571847
1.0263929618768328
1.029325513196481
1.0332355816226784
1.0391006842619743
1.050830889540567
1.0713587487781036
1.10752688172043
1.1622678396871946
1.2258064516129032
1.3049853372434017
1.41544477028348
1.5503421309872922
1.704789833822092
1.870967741935484
2.040078201368524
2.203323558162268
2.3528836754643208
2.4838709677419355
2.592375366568915
2.67644183773216
2.7311827956989245
2.763440860215054
2.789833822091887
2.807429130009776
2.81622678396872
2.8181818181818183
2.8132942326490715
2.801564027370479
2.782991202346041
2.7565982404692084
2.721407624633431
2.675464320625611
2.619745845552297
2.560117302052786
2.4946236559139785
2.418377321603128
2.335288367546432
2.2502443792766376
2.167155425219941
2.088954056695992
2.018572825024438
1.9579667644183771
1.906158357771261
1.8621700879765395
1.825024437927664
1.796676441837732
1.7741935483870968
1.7517106549364614
1.7302052785923754
1.70772238514174
1.6842619745845553
1.6588465298142718
1.6314760508308896
1.6021505376344083
1.5718475073313782
1.5395894428152492
1.5073313782991202
1.4760508308895406
1.4486803519061584
1.4242424242424243
1.3978494623655917
1.3714565004887584
1.3450635386119256
1.321603128054741
1.300097751710655
1.2795698924731185
1.2619745845552297
1.2453567937438903
1.2287390029325511
1.2130987292277615
1.2013685239491692
1.1915933528836755
1.181818181818182
1.1720430107526882
1.1622678396871946
1.1534701857282503
1.1456500488758554
1.1378299120234605
1.1300097751710656
1.1221896383186705
1.1143695014662756
1.1065493646138806
1.0987292277614855
1.093841642228739
1.0909090909090908
1.0850439882697946
1.0791788856304985
1.072336265884653
1.0654936461388074
1.0586510263929618
1.0527859237536656
1.0488758553274682
1.0449657869012707
1.0420332355816226
1.0381231671554252
1.0371456500488758
1.0381231671554252
1.0371456500488758
1.035190615835777
1.0332355816226784
1.0312805474095796
1.029325513196481
1.0273704789833822
1.0254154447702837
1.0234604105571847
1.021505376344086
1.0195503421309873
1.0175953079178883
1.018572825024438
1.0224828934506354
1.024437927663734
1.0254154447702837
1.0263929618768328
1.0273704789833822
1.0283479960899315
1.029325513196481
1.0303030303030305
1.032258064516129
1.0342130987292275
1.040078201368524
1.0498533724340176
1.0586510263929618
1.0654936461388074
1.0742913000977516
1.0909090909090908
1.1202346041055715
1.1681329423264908
1.2404692082111437
1.3401759530791788
1.466275659824047
1.6177908113391983
1.7888563049853372
1.945259042033236
2.0928641251221896
2.257086999022483
2.420332355816227
2.56891495601173
2.696969696969697
2.801564027370479
2.881720430107527
2.940371456500489
2.9804496578690127
3.005865102639296
3.0195503421309877
3.0234604105571847
3.01564027370479
2.99902248289345
2.978494623655914
2.951124144672532
2.9149560117302054
2.8699902248289346
2.8152492668621703
2.748778103616813
2.6715542521994133
2.5865102639296187
2.495601173020528
2.403714565004888
2.321603128054741
2.249266862170088
2.176930596285435
2.110459433040078
2.0527859237536656
2.004887585532747
1.964809384164223
1.9315738025415443
1.902248289345064
1.8758553274682308
1.8504398826979471
1.823069403714565
1.7947214076246334
1.76930596285435
1.7438905180840665
1.715542521994135
1.6842619745845553
1.651026392961877
1.616813294232649
1.5826001955034212
1.5483870967741935
1.5141739980449658
1.4809384164222874
1.4496578690127078
1.4193548387096775
1.3949169110459434
1.3743890518084063
1.3528836754643203
1.332355816226784
1.3128054740957966
1.2942326490713587
1.2776148582600195
1.2619745845552297
1.2473118279569892
1.2336265884652982
1.2209188660801564
1.209188660801564
1.198435972629521
1.1925708699902249
1.1886608015640274
1.1837732160312806
1.1788856304985338
1.1720430107526882
1.1652003910068427
1.1583577712609971
1.1515151515151516
1.1456500488758554
1.13880742913001
1.1319648093841643
1.1241446725317692
1.1192570869990224
1.115347018572825
1.1094819159335287
1.1026392961876832
1.0948191593352885
1.0869990224828934
1.0801564027370478
1.075268817204301
1.0713587487781036
1.0684261974584557
1.0654936461388074
1.0635386119257086
1.06158357771261
1.06158357771261
1.0635386119257086
1.064516129032258
1.064516129032258
1.064516129032258
1.064516129032258
1.0635386119257086
1.0625610948191593
1.0606060606060606
1.0586510263929618
1.056695992179863
1.0557184750733135
1.0576735092864125
1.06158357771261
1.064516129032258
1.067448680351906
1.0713587487781036
1.0742913000977516
1.075268817204301
1.0762463343108504
1.078201368523949
1.083088954056696
1.0918866080156402
1.110459433040078
1.1436950146627567
1.1857282502443791
1.2434017595307918
1.3294232649071358
1.444770283479961
1.5884652981427174
1.7546432062561097
1.935483870967742
2.1221896383186705
2.304007820136853
2.4731182795698925
2.6236559139784945
2.7497556207233624
2.838709677419355
2.8993157380254155
2.951124144672532
2.989247311827957
3.0146627565982405
3.0283479960899315
3.03128054740958
3.026392961876833
3.0146627565982405
2.9960899315738025
2.9687194525904204
2.9315738025415445
2.8836754643206257
2.8299120234604107
2.76930596285435
2.6959921798631474
2.6129032258064515
2.52297165200391
2.43108504398827
2.340175953079179
2.254154447702835
2.174975562072336
2.104594330400782
2.0449657869012707
1.9951124144672527
1.9560117302052784
1.9257086999022484
1.8973607038123168
1.870967741935484
1.8465298142717497
1.822091886608016
1.7976539589442817
1.7702834799608993
1.7409579667644184
1.7096774193548387
1.675464320625611
1.6392961876832846
1.6041055718475072
1.5728250244379276
1.5454545454545454
1.5151515151515151
1.4838709677419355
1.4535679374389052
1.4242424242424243
1.3958944281524928
1.3695014662756595
1.3450635386119256
1.321603128054741
1.300097751710655
1.2805474095796676
1.2668621700879763
1.2570869990224829
1.24633431085044
1.2355816226783969
1.2258064516129032
1.2160312805474096
1.2072336265884651
1.1974584555229717
1.187683284457478
1.176930596285435
1.1671554252199414
1.1564027370478984
1.147605083088954
1.1436950146627567
1.1407624633431086
1.1358748778103618
1.1300097751710656
1.1231671554252198
1.115347018572825
1.10752688172043
1.099706744868035
1.0928641251221896
1.086021505376344
1.0801564027370478
1.0762463343108504
1.075268817204301
1.075268817204301
1.0742913000977516
1.0733137829912025
1.0713587487781036
1.0694037145650048
1.067448680351906
1.0654936461388074
1.0635386119257086
1.06158357771261
1.0596285434995112
1.0596285434995112
1.0625610948191593
1.0664711632453567
1.0684261974584557
1.0694037145650048
1.0694037145650048
1.0694037145650048
1.0684261974584557
1.0684261974584557
1.0694037145650048
1.0703812316715542
1.072336265884653
1.0742913000977516
1.075268817204301
1.078201368523949
1.0821114369501466
1.0840664711632453
1.086021505376344
1.0909090909090908
1.104594330400782
1.130987292277615
1.1749755620723363
1.2434017595307918
1.33822091886608
1.4594330400782014
1.607038123167155
1.7487781036168133
1.8914956011730208
2.059628543499511
2.2355816226783967
2.404692082111437
2.5591397849462365
2.6823069403714563
2.776148582600196
2.854349951124145
2.913000977517106
2.95405669599218
2.979472140762464
2.9931573802541545
2.992179863147605
2.981427174975562
2.9667644183773216
1.0557184750733135
1.0576735092864125
1.06158357771261
1.072336265884653
1.0948191593352885
1.1348973607038124
1.1974584555229717
1.2864125122189638
1.4037145650048877
1.547409579667644
1.6871945259042034
1.828934506353861
1.9960899315738023
2.1710654936461387
2.340175953079179
2.4946236559139785
2.627565982404692
2.7370478983382207
2.822091886608016
2.8836754643206257
2.9227761485826003
2.943304007820137
2.948191593352884
2.93841642228739
2.917888563049853
2.889540566959922
2.8514173998044967
2.803519061583578
2.744868035190616
2.675464320625611
2.5962854349951123
2.509286412512219
2.41544477028348
2.3196480938416424
2.2248289345063537
2.1417399804496577
2.070381231671554
2.0019550342130987
1.9423264907135875
1.8944281524926687
1.8592375366568916
1.8347996089931573
1.818181818181818
1.8074291300097751
1.8005865102639296
1.7947214076246334
1.7888563049853372
1.7820136852394917
1.7732160312805474
1.7605083088954057
1.7448680351906158
1.726295210166178
1.7057673509286413
1.6823069403714566
1.6578690127077225
1.6314760508308896
1.6041055718475072
1.576735092864125
1.5493646138807429
1.52297165200391
1.501466275659824
1.4819159335288368
1.4594330400782014
1.436950146627566
1.414467253176931
1.3919843597262953
1.370478983382209
1.3509286412512218
1.3333333333333333
1.3186705767350928
1.305962854349951
1.2942326490713587
1.2864125122189638
1.2795698924731185
1.270772238514174
1.2609970674486803
1.2512218963831867
1.241446725317693
1.2326490713587488
1.2228739002932552
1.2140762463343109
1.2052785923753666
1.195503421309873
1.1857282502443791
1.1759530791788857
1.1691104594330402
1.163245356793744
1.155425219941349
1.1456500488758554
1.1358748778103618
1.1280547409579669
1.1221896383186705
1.1163245356793745
1.1114369501466277
1.10752688172043
1.1036168132942326
1.099706744868035
1.0977517106549364
1.0977517106549364
1.0957966764418376
1.0928641251221896
1.0909090909090908
1.088954056695992
1.086021505376344
1.0840664711632453
1.0821114369501466
1.0811339198435972
1.0791788856304985
1.078201368523949
1.0772238514173995
1.0791788856304985
1.0821114369501466
1.083088954056696
1.083088954056696
1.0821114369501466
1.0811339198435972
1.0791788856304985
1.0772238514173995
1.075268817204301
1.075268817204301
1.0791788856304985
1.0909090909090908
1.110459433040078
1.141739980449658
1.1935483870967742
1.2697947214076246
1.3734115347018572
1.504398826979472
1.6588465298142718
1.83088954056696
2.010752688172043
2.190615835777126
2.3597262952101663
2.5131964809384164
2.6451612903225805
2.739980449657869
2.807429130009776
2.8670576735092865
2.913000977517106
2.946236559139785
2.967741935483871
2.979472140762464
2.9824046920821115
2.9765395894428157
2.962854349951124
2.9423264907135875
2.9120234604105573
2.874877810361681
2.8289345063538613
2.773216031280548
2.705767350928641
2.6285434995112413
2.5425219941348973
2.450635386119257
2.357771260997068
2.2668621700879767
2.182795698924731
2.10752688172043
2.0410557184750733
1.9853372434017595
1.9403714565004888
1.9042033235581624
1.871945259042033
1.8416422287390029
1.8132942326490715
1.7859237536656891
1.7575757575757576
1.729227761485826
1.6989247311827955
1.6666666666666667
1.632453567937439
1.598240469208211
1.5679374389051808
1.5405669599217986
1.5102639296187683
1.479960899315738
1.4486803519061584
1.418377321603128
1.388074291300098
1.3587487781036167
1.3313782991202343
1.3069403714565004
1.2854349951124144
1.2668621700879763
1.2512218963831867
1.2404692082111437
1.2326490713587488
1.2218963831867058
1.2101661779081134
1.198435972629521
1.1867057673509287
1.1759530791788857
1.1652003910068427
1.1544477028347997
1.142717497556207
1.130987292277615
1.1192570869990224
1.1114369501466277
1.1065493646138806
1.0987292277614855
1.0899315738025417
1.0811339198435972
1.0713587487781036
1.06158357771261
1.0527859237536656
1.0439882697947214
1.035190615835777
1.0273704789833822
1.0205278592375366
1.013685239491691
1.010752688172043
1.0087976539589445
1.0058651026392962
1.002932551319648
1.0
0.997067448680352
0.9941348973607038
0.9921798631476052
0.9912023460410556
0.9912023460410556
0.9912023460410556
0.9921798631476052
0.9960899315738024
1.002932551319648
1.0097751710654936
1.0127077223851415
1.013685239491691
1.0127077223851415
1.0117302052785924
1.0097751710654936
1.007820136852395
1.0068426197458455
1.0058651026392962
1.0068426197458455
1.0087976539589445
1.0127077223851415
1.0175953079178883
1.0205278592375366
1.0234604105571847
1.0263929618768328
1.0342130987292275
1.0488758553274682
1.0762463343108504
1.121212121212121
1.1906158357771262
1.2873900293255132
1.412512218963832
1.5395894428152492
1.672531769305963
1.836754643206256
2.01564027370479
2.1955034213098727
2.366568914956012
2.5210166177908118
2.653958944281525
2.7624633431085046
2.84652981427175
2.9071358748778104
2.948191593352884
2.973607038123167
2.9804496578690127
2.9765395894428157
2.970674486803519
2.9589442815249267
2.941348973607038
2.9159335288367547
2.8836754643206257
2.8406647116324537
2.787878787878788
2.7253176930596283
2.6510263929618767
2.567937438905181
2.487781036168133
2.409579667644184
2.3255131964809386
2.241446725317693
2.1622678396871944
2.089931573802541
2.027370478983382
1.9745845552297163
1.9305962854349952
1.8934506353861196
1.86119257086999
1.8328445747800584
1.8074291300097751
1.7839687194525904
1.758553274682307
1.7311827956989247
1.7018572825024438
1.6705767350928642
1.6373411534701858
1.603128054740958
1.56891495601173
1.533724340175953
1.499511241446725
1.466275659824047
1.434017595307918
1.4076246334310851
1.3841642228739004
1.3587487781036167
1.3333333333333333
1.3098729227761483
1.2883675464320623
1.2697947214076246
1.252199413489736
1.2365591397849462
1.2228739002932552
1.2101661779081134
1.198435972629521
1.1906158357771262
1.1837732160312806
1.1759530791788857
1.1671554252199414
1.1583577712609971
1.1485826001955035
1.13880742913001
1.1300097751710656
1.121212121212121
1.1133919843597262
1.104594330400782
1.0957966764418376
1.0869990224828934
1.0821114369501466
1.078201368523949
1.072336265884653
1.0664711632453567
1.0606060606060606
1.0547409579667644
1.0488758553274682
1.043010752688172
1.0361681329423265
1.0303030303030305
1.0254154447702837
1.021505376344086
1.021505376344086
1.0224828934506354
1.0224828934506354
1.021505376344086
1.0195503421309873
1.0175953079178883
1.0166177908113392
1.0175953079178883
1.018572825024438
1.0195503421309873
1.0195503421309873
1.018572825024438
1.0175953079178883
1.0195503421309873
1.0224828934506354
1.024437927663734
1.0263929618768328
1.0283479960899315
1.0312805474095796
1.0342130987292275
1.0381231671554252
1.0420332355816226
1.0469208211143697
1.0518084066471165
1.0586510263929618
1.0684261974584557
1.0850439882697946
1.1124144672531768
1.1583577712609971
1.2267839687194526
1.321603128054741
1.4428152492668622
1.5884652981427174
1.75366568914956
1.9315738025415443
2.113391984359726
2.2883675464320627
2.4486803519061584
2.5718475073313782
2.6666666666666665
2.7546432062561097
2.8260019550342133
2.878787878787879
2.9149560117302054
2.9374389051808407
2.949169110459433
2.951124144672532
2.945259042033236
2.932551319648094
2.911045943304008
2.8826979472140764
2.84652981427175
2.7996089931573804
2.742913000977517
2.67644183773216
2.60019550342131
2.5180840664711632
2.43108504398827
2.343108504398827
2.2580645161290325
2.1788856304985336
2.10850439882698
2.047898338220919
1.9990224828934504
1.9608993157380252
1.9257086999022484
1.895405669599218
1.868035190615836
1.8416422287390029
1.8142717497556209
1.7869012707722385
1.758553274682307
1.7282502443792769
1.696969696969697
1.6637341153470186
1.6344086021505375
1.607038123167155
1.5757575757575757
1.543499511241447
1.5102639296187683
1.47702834799609
1.444770283479961
1.4134897360703813
1.3841642228739004
1.356793743890518
1.3313782991202343
1.3079178885630498
1.2864125122189638
1.270772238514174
1.260019550342131
1.2482893450635386
1.2365591397849462
1.2238514173998043
1.2121212121212122
1.2013685239491692
1.1915933528836755
1.1827956989247312
1.1730205278592376
1.163245356793744
1.1534701857282503
1.147605083088954
1.142717497556207
1.1368523949169111
1.1300097751710656
1.1221896383186705
1.1143695014662756
1.1055718475073313
1.0948191593352885
1.083088954056696
1.0694037145650048
1.0557184750733135
1.043010752688172
1.0312805474095796
1.0234604105571847
1.0175953079178883
1.0097751710654936
1.0019550342130987
0.9951124144672532
0.989247311827957
0.9843597262952102
0.9804496578690128
0.978494623655914
0.9775171065493646
0.9775171065493646
0.9794721407624634
0.9843597262952102
0.9912023460410556
0.9960899315738024
1.0
1.002932551319648
1.0048875855327468
1.007820136852395
1.0097751710654936
1.0117302052785924
1.0127077223851415
1.013685239491691
1.0146627565982405
1.0166177908113392
1.0205278592375366
1.0254154447702837
1.0303030303030305
1.0342130987292275
1.0391006842619743
1.0449657869012707
1.0547409579667644
1.0772238514173995
1.1143695014662756
1.166177908113392
1.241446725317693
1.3440860215053765
1.452590420332356
1.5718475073313782
1.7233626588465298
1.895405669599218
2.075268817204301
2.254154447702835
2.421309872922776
2.570869990224829
2.6989247311827955
2.803519061583578
2.884652981427175
2.9442815249266863
2.9853372434017595
3.005865102639296
3.0117302052785924
3.013685239491691
