ppg
3.3167155425219943
3.317693059628544
3.3098729227761488
3.294232649071359
3.270772238514174
3.2404692082111435
3.203323558162268
3.163245356793744
3.117302052785924
3.065493646138808
3.005865102639296
2.9393939393939394
2.865102639296188
2.7810361681329425
2.6901270772238512
2.593352883675464
2.490713587487781
2.3958944281524928
2.3059628543499517
2.2111436950146626
2.1163245356793743
2.027370478983382
1.946236559139785
1.8748778103616808
1.8132942326490715
1.7624633431085044
1.7204301075268815
1.6852394916911049
1.656891495601173
1.6334310850439884
1.6158357771260996
1.6011730205278591
1.58455522971652
1.565982404692082
1.547409579667644
1.5268817204301075
1.504398826979472
1.4809384164222874
1.456500488758553
1.4330400782013686
1.409579667644184
1.3890518084066472
1.3734115347018572
1.3616813294232648
1.3479960899315735
1.3333333333333333
1.3176930596285434
1.3020527859237536
1.2864125122189638
1.2717497556207231
1.2580645161290325
1.2453567937438903
1.2336265884652982
1.2228739002932552
1.2130987292277615
1.2072336265884651
1.203323558162268
1.1964809384164223
1.1906158357771262
1.1867057673509287
1.18475073313783
1.1837732160312806
1.181818181818182
1.1779081133919844
1.1730205278592376
1.1671554252199414
1.1612903225806452
1.1583577712609971
1.1573802541544478
1.1534701857282503
1.147605083088954
1.1407624633431086
1.133919843597263
1.1329423264907137
1.142717497556207
1.1700879765395895
1.2218963831867058
1.2913000977517106
1.380254154447703
1.495601173020528
1.608993157380254
1.7223851417399805
1.855327468230694
1.9931573802541545
2.124144672531769
2.2404692082111435
2.340175953079179
2.4222873900293256
2.484848484848485
2.529814271749756
2.5591397849462365
2.575757575757576
2.578690127077224
2.570869990224829
2.557184750733138
2.535679374389052
2.50733137829912
2.4750733137829912
2.439882697947214
2.40078201368524
2.356793743890518
2.3088954056695994
2.2561094819159337
2.19941348973607
2.144672531769306
2.0879765395894427
2.022482893450636
1.9521016617790807
1.8797653958944285
1.8064516129032255
1.7360703812316716
1.6705767350928642
1.6129032258064515
1.563049853372434
1.521016617790811
1.4868035190615836
1.4604105571847508
1.4428152492668622
1.43108504398827
1.4222873900293256
1.414467253176931
1.4066471163245358
1.3988269794721409
1.391006842619746
1.3812316715542523
1.3695014662756595
1.356793743890518
1.3440860215053765
1.3313782991202343
1.321603128054741
1.3118279569892473
1.2981427174975562
1.2825024437927663
1.267839687194526
1.2531769305962854
1.238514173998045
1.2258064516129032
1.2150537634408602
1.203323558162268
1.1925708699902249
1.1808406647116323
1.1681329423264908
1.1583577712609971
1.1505376344086022
1.13880742913001
1.1270772238514175
1.1163245356793745
1.1055718475073313
1.0957966764418376
1.088954056695992
1.083088954056696
1.0791788856304985
1.075268817204301
1.0713587487781036
1.0703812316715542
1.0703812316715542
1.0694037145650048
1.0664711632453567
1.0635386119257086
1.0606060606060606
1.0576735092864125
1.053763440860215
1.050830889540567
1.0469208211143697
1.0449657869012707
1.0439882697947214
1.0439882697947214
1.04594330400782
1.0488758553274682
1.0518084066471165
1.0547409579667644
1.0576735092864125
1.0606060606060606
1.064516129032258
1.067448680351906
1.0713587487781036
1.0742913000977516
1.078201368523949
1.0811339198435972
1.0850439882697946
1.088954056695992
1.0899315738025417
1.088954056695992
1.0869990224828934
1.0840664711632453
1.0821114369501466
1.0840664711632453
1.096774193548387
1.1280547409579669
1.1867057673509287
1.2746823069403714
1.392961876832845
1.5161290322580645
1.6490713587487782
1.8113391984359728
1.9843597262952104
2.1544477028347995
2.310850439882698
2.450635386119257
2.56891495601173
2.6666666666666665
2.745845552297165
2.806451612903226
2.8514173998044967
2.87683284457478
2.887585532746823
2.895405669599218
2.897360703812317
2.89247311827957
2.8826979472140764
2.868035190615836
2.849462365591398
2.8260019550342133
2.798631476050831
2.7673509286412514
2.7311827956989245
2.689149560117302
2.644183773216031
2.5943304007820136
2.5376344086021505
2.474095796676442
2.4027370478983383
2.3255131964809386
2.243401759530792
2.1593352883675463
2.0733137829912023
1.988269794721408
1.906158357771261
1.83088954056696
1.7712609970674489
1.7223851417399805
1.6764418377321604
1.6383186705767352
1.607038123167155
1.5796676441837731
1.5562072336265884
1.5347018572825024
1.5151515151515151
1.495601173020528
1.47702834799609
1.458455522971652
1.439882697947214
1.4252199413489737
1.4134897360703813
1.3988269794721409
1.3822091886608017
1.364613880742913
1.3470185728250244
1.3294232649071358
1.3118279569892473
1.2942326490713587
1.2766373411534702
1.2561094819159335
1.2365591397849462
1.2238514173998043
1.2140762463343109
1.2013685239491692
1.1857282502443791
1.1710654936461389
1.1564027370478984
1.141739980449658
1.1290322580645162
1.1173020527859236
1.104594330400782
1.0909090909090908
1.0791788856304985
1.0684261974584557
1.06158357771261
1.0557184750733135
1.0478983382209188
1.0166177908113392
1.0175953079178883
1.0263929618768328
1.0518084066471165
1.099706744868035
1.173998044965787
1.2766373411534702
1.4056695992179864
1.555229716520039
1.6959921798631477
1.83088954056696
1.9824046920821117
2.133919843597263
2.2737047898338223
2.396871945259042
2.501466275659824
2.5855327468230693
2.649071358748778
2.6959921798631474
2.729227761485826
2.748778103616813
2.7565982404692084
2.752688172043011
2.740957966764418
2.7262952101661777
2.7096774193548385
2.689149560117302
2.664711632453568
2.636363636363636
2.6041055718475072
2.565982404692082
2.5219941348973607
2.472140762463343
2.41544477028348
2.358748778103617
2.3010752688172045
2.233626588465298
2.160312805474096
2.0948191593352883
2.03128054740958
1.9608993157380252
1.8914956011730208
1.8269794721407624
1.76930596285435
1.7204301075268815
1.6813294232649072
1.6520039100684265
1.6285434995112416
1.6080156402737047
1.590420332355816
1.576735092864125
1.565982404692082
1.5571847507331378
1.5483870967741935
1.5386119257087
1.5288367546432062
1.517106549364614
1.5034213098729228
1.487781036168133
1.4721407624633431
1.458455522971652
1.4437927663734116
1.4271749755620724
1.4105571847507332
1.393939393939394
1.3763440860215057
1.359726295210166
1.3440860215053765
1.3304007820136852
1.3157380254154447
1.3010752688172045
1.2903225806451613
1.281524926686217
1.270772238514174
1.2590420332355816
1.2482893450635386
1.238514173998045
1.2297165200391007
1.2209188660801564
1.2101661779081134
1.1974584555229717
1.1837732160312806
1.1720430107526882
1.163245356793744
1.160312805474096
1.1671554252199414
1.187683284457478
1.2297165200391007
1.2971652003910068
1.392961876832845
1.512218963831867
1.6500488758553276
1.7996089931573802
1.9501466275659824
2.0928641251221896
2.222873900293255
2.32355816226784
2.401759530791789
2.4731182795698925
2.529814271749756
2.572825024437928
2.601173020527859
2.6177908113391983
2.622678396871945
2.618768328445748
2.606060606060606
2.587487781036168
2.565982404692082
2.5405669599217986
2.512218963831867
2.4819159335288368
2.4486803519061584
2.409579667644184
2.363636363636364
2.3118279569892475
2.2531769305962857
2.1867057673509285
2.114369501466276
2.037145650048876
1.956989247311828
1.8748778103616808
1.804496578690127
1.7419354838709675
1.6793743890518085
1.6217008797653958
1.5728250244379276
1.5317693059628543
1.498533724340176
1.4711632453567938
1.4506353861192571
1.434017595307918
1.4203323558162269
1.4076246334310851
1.3958944281524928
1.3870967741935485
1.3782991202346042
1.3665689149560116
1.35386119257087
1.3421309872922775
1.3294232649071358
1.3147605083088951
1.300097751710655
1.2854349951124144
1.2717497556207231
1.260019550342131
1.2473118279569892
1.2365591397849462
1.2267839687194526
1.2150537634408602
1.2013685239491692
1.187683284457478
1.1730205278592376
1.1573802541544478
1.141739980449658
1.126099706744868
1.1114369501466277
1.096774193548387
1.0821114369501466
1.067448680351906
1.056695992179863
1.0498533724340176
1.0410557184750733
1.0371456500488758
1.043010752688172
1.0654936461388074
1.110459433040078
1.1837732160312806
1.284457478005865
1.4105571847507332
1.5571847507331378
1.715542521994135
1.855327468230694
1.9804496578690127
2.1114369501466275
2.233626588465298
2.3391984359726297
2.4242424242424243
2.4887585532746823
2.535679374389052
2.5669599217986314
2.58455522971652
2.590420332355816
2.5865102639296187
2.576735092864125
2.5610948191593352
2.5405669599217986
2.5161290322580645
2.486803519061584
2.452590420332356
2.4115347018572826
2.364613880742913
2.312805474095797
2.254154447702835
2.189638318670577
2.1192570869990224
2.0439882697947214
1.9736070381231672
1.905180840664712
1.827956989247312
1.750733137829912
1.6774193548387095
1.6099706744868034
1.5503421309872922
1.499511241446725
1.458455522971652
1.426197458455523
1.4007820136852396
1.3822091886608017
1.3685239491691104
1.359726295210166
1.3519061583577712
1.3440860215053765
1.335288367546432
1.3255131964809383
1.3157380254154447
1.3049853372434017
1.29227761485826
1.2776148582600195
1.2609970674486803
1.2443792766373412
1.2287390029325511
1.2179863147605083
1.2082111436950147
1.1964809384164223
1.1837732160312806
1.1700879765395895
1.155425219941349
1.1407624633431086
1.1270772238514175
1.115347018572825
1.1036168132942326
1.0928641251221896
1.0821114369501466
1.0713587487781036
1.064516129032258
1.0606060606060606
1.0547409579667644
1.0478983382209188
1.040078201368524
1.032258064516129
1.024437927663734
1.0166177908113392
1.0097751710654936
1.0048875855327468
1.0009775171065494
0.9990224828934506
1.0
1.0009775171065494
1.0009775171065494
1.0009775171065494
1.0009775171065494
1.0009775171065494
1.0009775171065494
1.0009775171065494
1.0009775171065494
1.0009775171065494
1.0019550342130987
1.0019550342130987
1.0019550342130987
1.0048875855327468
1.007820136852395
1.0068426197458455
1.0048875855327468
1.002932551319648
1.0019550342130987
1.0019550342130987
1.0019550342130987
1.0019550342130987
1.0019550342130987
1.0019550342130987
1.0019550342130987
1.0039100684261977
1.007820136852395
1.0097751710654936
1.0097751710654936
1.007820136852395
1.0048875855327468
1.002932551319648
1.0019550342130987
1.0019550342130987
1.0019550342130987
1.0039100684261977
1.0068426197458455
1.0117302052785924
1.0175953079178883
1.0205278592375366
1.0224828934506354
1.0254154447702837
1.0283479960899315
1.0312805474095796
1.035190615835777
1.0391006842619743
1.043010752688172
1.04594330400782
1.053763440860215
1.0606060606060606
1.0654936461388074
1.0703812316715542
1.0733137829912025
1.0821114369501466
1.1055718475073313
1.155425219941349
1.2434017595307918
1.3734115347018572
1.5454545454545454
1.7575757575757576
1.997067448680352
2.2502443792766376
2.4701857282502444
2.6637341153470184
2.865102639296188
3.0557184750733137
3.2238514173998043
3.363636363636364
3.474095796676442
3.5562072336265884
3.6148582600195502
3.654936461388074
3.6774193548387095
3.684261974584555
3.6803519061583576
3.662756598240469
3.6373411534701856
3.610948191593353
3.581622678396872
3.547409579667644
3.506353861192571
3.4594330400782014
3.4056695992179864
3.3421309872922778
3.269794721407625
3.187683284457478
3.0928641251221896
2.99902248289345
2.905180840664712
2.798631476050831
2.684261974584555
2.567937438905181
2.4565004887585533
2.3499511241446727
2.251221896383187
2.163245356793744
2.0869990224828934
2.024437927663734
1.9745845552297163
1.9345063538611929
1.9042033235581624
1.8807429130009776
1.857282502443793
1.8347996089931573
1.8113391984359728
1.7869012707722385
1.761485826001955
1.7350928641251222
1.70772238514174
1.6793743890518085
1.6500488758553276
1.6226783968719452
1.5992179863147604
1.5786901270772238
1.5571847507331378
1.5356793743890518
1.5131964809384164
1.4926686217008798
1.4711632453567938
1.4496578690127078
1.4291300097751711
1.409579667644184
1.3919843597262953
1.3743890518084063
1.3558162267839686
1.3411534701857282
1.3294232649071358
1.313782991202346
1.2981427174975562
1.284457478005865
1.2717497556207231
1.2609970674486803
1.2512218963831867
1.2424242424242424
1.2336265884652982
1.224828934506354
1.2160312805474096
1.2101661779081134
1.2072336265884651
1.2023460410557183
1.1974584555229717
1.1915933528836755
1.1837732160312806
1.176930596285435
1.1700879765395895
1.163245356793744
1.1564027370478984
1.1515151515151516
1.1485826001955035
1.1456500488758554
1.1456500488758554
1.1466275659824048
1.144672531769306
1.141739980449658
1.1378299120234605
1.133919843597263
1.130987292277615
1.1319648093841643
1.141739980449658
1.1710654936461389
1.227761485826002
1.316715542521994
1.418377321603128
1.5395894428152492
1.7018572825024438
1.8905180840664717
2.09188660801564
2.29227761485826
2.479960899315738
2.649071358748778
2.793743890518084
2.9120234604105573
3.003910068426197
3.074291300097752
3.1251221896383186
3.1515151515151514
3.161290322580645
3.1652003910068425
3.161290322580645
3.1515151515151514
3.1358748778103616
3.113391984359726
3.0869990224828934
3.0557184750733137
3.018572825024438
2.9745845552297165
2.9237536656891496
2.8699902248289346
2.812316715542522
2.745845552297165
2.6695992179863146
2.5835777126099706
2.49266862170088
2.3978494623655915
2.2991202346041058
2.20039100684262
2.104594330400782
2.0146627565982405
1.9335288367546437
1.8631476050830889
1.8093841642228736
1.7673509286412512
1.729227761485826
1.6989247311827955
1.6744868035190617
1.6559139784946235
1.640273704789834
1.6256109481915937
1.611925708699902
1.598240469208211
1.58455522971652
1.5698924731182795
1.5571847507331378
1.5454545454545454
1.530791788856305
1.5131964809384164
1.4936461388074291
1.4731182795698925
1.4506353861192571
1.4291300097751711
1.409579667644184
1.391006842619746
1.3734115347018572
1.3558162267839686
1.33822091886608
1.3225806451612905
1.3079178885630498
1.2903225806451613
1.2727272727272727
1.2551319648093842
1.2375366568914956
1.219941348973607
1.2023460410557183
1.1857282502443791
1.1710654936461389
1.1583577712609971
1.147605083088954
1.1407624633431086
1.1378299120234605
1.1329423264907137
1.1270772238514175
1.1241446725317692
1.1280547409579669
1.1456500488758554
1.18475073313783
1.252199413489736
1.3499511241446724
1.478983382209189
1.6363636363636365
1.7869012707722385
1.9364613880742916
2.10752688172043
2.2795698924731185
2.441837732160313
2.5855327468230693
2.705767350928641
2.8025415444770285
2.87683284457478
2.929618768328446
2.964809384164223
2.98435972629521
2.989247311827957
2.9804496578690127
2.962854349951124
2.9423264907135875
2.916911045943304
2.884652981427175
2.84652981427175
2.8025415444770285
2.7517106549364616
2.6930596285435
2.627565982404692
2.555229716520039
2.4760508308895406
2.39980449657869
2.3225806451612905
2.233626588465298
2.139784946236559
2.0449657869012707
1.9521016617790807
1.86119257086999
1.7761485826001957
1.7008797653958945
1.6363636363636365
1.581622678396872
1.5376344086021505
1.5034213098729228
1.479960899315738
1.4633431085043989
1.4496578690127078
1.4379276637341154
1.426197458455523
1.414467253176931
1.4027370478983383
1.3900293255131966
1.3773216031280548
1.3636363636363635
1.3509286412512218
1.3362658846529814
1.3235581622678396
1.310850439882698
1.2942326490713587
1.2776148582600195
1.260019550342131
1.217008797653959
1.1622678396871946
1.1280547409579669
1.104594330400782
1.086021505376344
1.072336265884653
1.0625610948191593
1.0527859237536656
1.0478983382209188
1.0449657869012707
1.0381231671554252
1.0303030303030305
1.0234604105571847
1.0156402737047898
1.007820136852395
1.0
0.9921798631476052
0.9853372434017597
0.978494623655914
0.9716520039100685
0.9687194525904204
0.9696969696969696
0.9765395894428152
0.9960899315738024
1.0342130987292275
1.096774193548387
1.1867057673509287
1.3040078201368523
1.4418377321603129
1.5933528836754642
1.7487781036168133
1.8983382209188664
2.034213098729228
2.139784946236559
2.220918866080156
2.2952101661779083
2.355816226783969
2.40078201368524
2.429130009775171
2.4457478005865103
2.450635386119257
2.444770283479961
2.432062561094819
2.41544477028348
2.3949169110459434
2.3704789833822093
2.343108504398827
2.312805474095797
2.2766373411534704
2.2346041055718477
2.185728250244379
2.1300097751710654
2.070381231671554
2.003910068426197
1.932551319648094
1.857282502443793
1.780058651026393
1.7028347996089932
1.6363636363636365
1.5777126099706744
1.520039100684262
1.466275659824047
1.4193548387096775
1.383186705767351
1.3558162267839686
1.335288367546432
1.3196480938416422
1.3088954056695992
1.300097751710655
1.29227761485826
1.2864125122189638
1.281524926686217
1.2756598240469208
1.267839687194526
1.2590420332355816
1.249266862170088
1.2375366568914956
1.224828934506354
1.2121212121212122
1.198435972629521
1.18475073313783
1.1730205278592376
1.1622678396871946
1.1534701857282503
1.1466275659824048
1.13880742913001
1.1280547409579669
1.1163245356793745
1.1036168132942326
1.0899315738025417
1.0772238514173995
1.0654936461388074
1.0557184750733135
1.0488758553274682
1.0439882697947214
1.0420332355816226
1.0410557184750733
1.0371456500488758
1.032258064516129
1.0263929618768328
1.0205278592375366
1.0156402737047898
1.010752688172043
1.0058651026392962
1.0019550342130987
0.9980449657869012
0.9941348973607038
0.989247311827957
0.9882697947214076
0.9882697947214076
0.9863147605083088
0.9843597262952102
0.981427174975562
0.978494623655914
0.9745845552297164
0.9716520039100685
0.967741935483871
0.9648093841642228
0.9628543499511242
0.9618768328445748
0.9638318670576737
0.967741935483871
0.9696969696969696
0.9696969696969696
0.9696969696969696
0.9687194525904204
0.967741935483871
0.9657869012707724
0.9638318670576737
0.9608993157380256
0.9579667644183774
0.9560117302052786
0.9550342130987292
0.9560117302052786
0.956989247311828
0.9579667644183774
0.959921798631476
0.9618768328445748
0.9648093841642228
0.967741935483871
0.9687194525904204
0.9696969696969696
0.9687194525904204
0.9667644183773216
0.9628543499511242
0.9608993157380256
0.9608993157380256
0.9628543499511242
0.975562072336266
1.0068426197458455
1.0635386119257086
1.1515151515151516
1.2717497556207231
1.4213098729227762
1.595307917888563
1.7810361681329423
1.9667644183773216
2.142717497556207
2.283479960899316
2.3958944281524928
2.5034213098729228
2.5962854349951123
2.6725317693059627
2.732160312805474
2.776148582600196
2.8044965786901277
2.8211143695014664
2.8269794721407626
2.8260019550342133
2.819159335288368
2.803519061583578
2.782991202346041
2.758553274682307
2.7311827956989245
2.701857282502444
2.668621700879765
2.631476050830889
2.589442815249267
2.541544477028348
2.487781036168133
1.043010752688172
1.04594330400782
1.050830889540567
1.0527859237536656
1.053763440860215
1.056695992179863
1.0596285434995112
1.0635386119257086
1.067448680351906
1.0703812316715542
1.0703812316715542
1.0684261974584557
1.0664711632453567
1.0694037145650048
1.0791788856304985
1.1006842619745845
1.1407624633431086
1.206256109481916
1.303030303030303
1.4320625610948192
1.587487781036168
1.761485826001955
1.9442815249266865
2.1270772238514173
2.300097751710655
2.4389051808406648
2.552297165200391
2.6637341153470184
2.7614858260019552
2.841642228739003
2.903225806451613
2.948191593352884
2.979472140762464
2.99902248289345
3.0097751710654936
3.0117302052785924
3.006842619745845
2.995112414467253
2.9775171065493646
2.95405669599218
2.927663734115347
2.8993157380254155
2.868035190615836
2.832844574780059
2.792766373411535
2.748778103616813
2.699902248289345
2.644183773216031
2.582600195503421
2.5141739980449658
2.44672531769306
2.378299120234604
2.2991202346041058
2.2130987292277613
2.126099706744868
2.0391006842619745
1.9560117302052784
1.878787878787879
1.8093841642228736
1.7497556207233629
1.6989247311827955
1.6549364613880744
1.6177908113391983
1.5894428152492668
1.56891495601173
1.552297165200391
1.5386119257087
1.525904203323558
1.5141739980449658
1.501466275659824
1.4858260019550342
1.469208211143695
1.4516129032258065
1.435972629521017
1.4203323558162269
1.4076246334310851
1.396871945259042
1.3812316715542523
1.3626588465298142
1.3421309872922775
1.324535679374389
1.3079178885630498
1.29227761485826
1.278592375366569
1.2649071358748778
1.2512218963831867
1.2355816226783969
1.2189638318670577
1.2072336265884651
1.1974584555229717
1.1857282502443791
1.173998044965787
1.1622678396871946
1.1505376344086022
1.1368523949169111
1.1221896383186705
1.110459433040078
1.1006842619745845
1.093841642228739
1.0909090909090908
1.0909090909090908
1.0928641251221896
1.093841642228739
1.0928641251221896
1.0899315738025417
1.0879765395894427
1.0850439882697946
1.0811339198435972
1.078201368523949
1.0742913000977516
1.0713587487781036
1.0703812316715542
1.0694037145650048
1.0703812316715542
1.0703812316715542
1.0694037145650048
1.0694037145650048
1.0694037145650048
1.0694037145650048
1.0703812316715542
1.072336265884653
1.075268817204301
1.078201368523949
1.0821114369501466
1.0850439882697946
1.0879765395894427
1.0918866080156402
1.093841642228739
1.0948191593352885
1.096774193548387
1.099706744868035
1.1016617790811338
1.1026392961876832
1.1026392961876832
1.1016617790811338
1.1006842619745845
1.1016617790811338
1.110459433040078
1.1290322580645162
1.1622678396871946
1.219941348973607
1.3069403714565004
1.4252199413489737
1.5718475073313782
1.739980449657869
1.921798631476051
2.1065493646138806
2.2844574780058653
2.4486803519061584
2.593352883675464
2.701857282502444
2.782991202346041
2.8563049853372435
2.917888563049853
2.9657869012707723
3.0
3.022482893450636
3.034213098729228
3.038123167155425
3.034213098729228
3.024437927663734
3.0087976539589443
2.988269794721408
2.962854349951124
2.9345063538611926
2.903225806451613
2.8670576735092865
2.8269794721407626
2.782991202346041
2.7331378299120237
2.678396871945259
2.6177908113391983
2.550342130987292
2.47702834799609
2.3958944281524928
2.3196480938416424
2.24633431085044
2.1652003910068425
2.0821114369501466
2.0009775171065494
1.9237536656891496
1.8514173998044965
1.7869012707722385
1.7302052785923754
1.683284457478006
1.643206256109482
1.6099706744868034
1.5826001955034212
1.5610948191593352
1.544477028347996
1.525904203323558
1.5073313782991202
1.4887585532746823
1.4701857282502444
1.4506353861192571
1.4320625610948192
1.4134897360703813
1.3949169110459434
1.3743890518084063
1.3528836754643203
1.3343108504398826
1.3186705767350928
1.3010752688172045
1.2825024437927663
1.2639296187683284
1.2453567937438903
1.2267839687194526
1.209188660801564
1.1945259042033236
1.1808406647116323
1.166177908113392
1.1515151515151516
1.1368523949169111
1.1251221896383188
1.115347018572825
1.1036168132942326
1.0899315738025417
1.0762463343108504
1.0635386119257086
1.0527859237536656
1.0449657869012707
1.0391006842619743
1.0342130987292275
1.029325513196481
1.0254154447702837
1.024437927663734
1.024437927663734
1.0224828934506354
1.0195503421309873
1.0166177908113392
1.0127077223851415
1.0087976539589445
1.0058651026392962
1.0019550342130987
0.9980449657869012
0.9941348973607038
0.9902248289345064
0.9902248289345064
0.9941348973607038
0.9980449657869012
1.0
1.0
1.0
0.9990224828934506
0.9990224828934506
1.0009775171065494
1.002932551319648
1.0058651026392962
1.0097751710654936
1.0127077223851415
