ppg
1.5894428152492668
1.616813294232649
1.635386119257087
1.6441837732160314
1.6422287390029326
1.6285434995112416
1.603128054740958
1.56891495601173
1.5278592375366569
1.4809384164222874
1.4320625610948192
1.391006842619746
1.3548387096774193
1.3176930596285434
1.284457478005865
1.2570869990224829
1.2365591397849462
1.2238514173998043
1.2189638318670577
1.2209188660801564
1.227761485826002
1.2375366568914956
1.249266862170088
1.2619745845552297
1.2746823069403714
1.2864125122189638
1.295210166177908
1.300097751710655
1.3010752688172045
1.2981427174975562
1.2903225806451613
1.278592375366569
1.2639296187683284
1.2482893450635386
1.2316715542521994
1.2140762463343109
1.2003910068426198
1.187683284457478
1.1720430107526882
1.155425219941349
1.1378299120234605
1.121212121212121
1.104594330400782
1.088954056695992
1.0762463343108504
1.0635386119257086
1.0527859237536656
1.043010752688172
1.0381231671554252
1.0371456500488758
1.035190615835777
1.0332355816226784
1.0312805474095796
1.029325513196481
1.0273704789833822
1.0263929618768328
1.0273704789833822
1.0342130987292275
1.0518084066471165
1.086021505376344
1.141739980449658
1.2082111436950147
1.2913000977517106
1.404692082111437
1.543499511241447
1.6989247311827955
1.8631476050830889
2.0254154447702835
2.177908113391984
2.312805474095797
2.4252199413489737
2.5141739980449658
2.5806451612903225
2.619745845552297
2.638318670576735
2.649071358748778
2.6510263929618767
2.644183773216031
2.63049853372434
2.611925708699902
2.5865102639296187
2.555229716520039
2.5161290322580645
2.4682306940371457
2.4115347018572826
2.347996089931574
2.2854349951124147
2.2218963831867056
2.150537634408602
2.075268817204301
2.0009775171065494
1.9315738025415443
1.869012707722385
1.8142717497556209
1.7683284457478006
1.7302052785923754
1.6989247311827955
1.6744868035190617
1.6559139784946235
1.640273704789834
1.624633431085044
1.608993157380254
1.5923753665689149
1.573802541544477
1.5532746823069403
1.5317693059628543
1.5083088954056696
1.4838709677419355
1.458455522971652
1.43108504398827
1.4027370478983383
1.3782991202346042
1.3558162267839686
1.3304007820136852
1.305962854349951
1.2825024437927663
1.260019550342131
1.238514173998045
1.2189638318670577
1.2003910068426198
1.1837732160312806
1.1691104594330402
1.1564027370478984
1.1485826001955035
1.141739980449658
1.1329423264907137
1.1241446725317692
1.115347018572825
1.10752688172043
1.099706744868035
1.0928641251221896
1.0879765395894427
1.083088954056696
1.078201368523949
1.0742913000977516
1.0694037145650048
1.0664711632453567
1.0654936461388074
1.0625610948191593
1.0576735092864125
1.0527859237536656
1.0478983382209188
1.0420332355816226
1.035190615835777
1.029325513196481
1.024437927663734
1.0205278592375366
1.0175953079178883
1.0175953079178883
1.018572825024438
1.0175953079178883
1.0156402737047898
1.013685239491691
1.0117302052785924
1.010752688172043
1.010752688172043
1.010752688172043
1.010752688172043
1.010752688172043
1.0087976539589445
1.0068426197458455
1.007820136852395
1.010752688172043
1.0127077223851415
1.0146627565982405
1.0175953079178883
1.0205278592375366
1.0234604105571847
1.024437927663734
1.0254154447702837
1.0254154447702837
1.0254154447702837
1.0263929618768328
1.0283479960899315
1.0312805474095796
1.0312805474095796
1.0303030303030305
1.0283479960899315
1.0254154447702837
1.0234604105571847
1.0234604105571847
1.032258064516129
1.0547409579667644
1.099706744868035
1.1759530791788857
1.2658846529814272
1.3763440860215057
1.5298142717497556
1.715542521994135
1.920821114369501
2.132942326490713
2.3382209188660803
2.5249266862170088
2.687194525904203
2.8211143695014664
2.9237536656891496
2.997067448680352
3.0439882697947214
3.0635386119257086
3.064516129032258
3.058651026392962
3.046920821114369
3.0283479960899315
3.002932551319648
2.9716520039100685
2.932551319648094
2.887585532746823
2.833822091886608
2.7722385141739982
2.702834799608993
2.633431085043988
2.544477028347996
2.439882697947214
2.346041055718475
2.259042033235582
2.1788856304985336
2.1065493646138806
2.042033235581622
1.986314760508309
1.93841642228739
1.8983382209188664
1.866080156402737
1.8387096774193548
1.81524926686217
1.793743890518084
1.7712609970674489
1.7468230694037146
1.721407624633431
1.6950146627565983
1.6666666666666667
1.6363636363636365
1.6050830889540566
1.573802541544477
1.542521994134897
1.512218963831867
1.4858260019550342
1.4613880742913
1.4349951124144673
1.409579667644184
1.3841642228739004
1.359726295210166
1.335288367546432
1.3128054740957966
1.2932551319648091
1.2746823069403714
1.2580645161290325
1.2434017595307918
1.2297165200391007
1.219941348973607
1.2121212121212122
1.2043010752688172
1.1964809384164223
1.187683284457478
1.1788856304985338
1.1700879765395895
1.1622678396871946
1.1534701857282503
1.1456500488758554
1.1378299120234605
1.1300097751710656
1.126099706744868
1.1241446725317692
1.121212121212121
1.1173020527859236
1.1133919843597262
1.1094819159335287
1.104594330400782
1.1006842619745845
1.0957966764418376
1.0918866080156402
1.088954056695992
1.0869990224828934
1.0850439882697946
1.0850439882697946
1.086021505376344
1.086021505376344
1.086021505376344
1.086021505376344
1.0850439882697946
1.0850439882697946
1.0850439882697946
1.0840664711632453
1.0821114369501466
1.0801564027370478
1.078201368523949
1.078201368523949
1.0791788856304985
1.078201368523949
1.0772238514173995
1.075268817204301
1.0733137829912025
1.0713587487781036
1.0694037145650048
1.067448680351906
1.0664711632453567
1.0684261974584557
1.0772238514173995
1.0977517106549364
1.1280547409579669
1.1720430107526882
1.241446725317693
1.3362658846529814
1.457478005865103
1.5992179863147604
1.7546432062561097
1.9159335288367547
2.072336265884653
2.2160312805474094
2.3421309872922778
2.4457478005865103
2.5161290322580645
2.563049853372434
2.5992179863147604
2.6207233626588464
2.6295210166177907
2.6285434995112413
2.6177908113391983
2.5992179863147604
2.573802541544477
2.5434995112414467
2.5083088954056696
2.4672531769305963
2.420332355816227
2.3714565004887587
2.318670576735093
2.257086999022483
2.190615835777126
2.120234604105572
2.048875855327468
1.9794721407624636
1.9149560117302051
1.858260019550342
1.8093841642228736
1.7673509286412512
1.7341153470185728
1.7086999022482894
1.6901270772238517
1.6735092864125125
1.6588465298142718
1.6441837732160314
1.629521016617791
1.6138807429130009
1.5962854349951123
1.576735092864125
1.555229716520039
1.530791788856305
1.5053763440860215
1.478005865102639
1.4535679374389052
1.4301075268817205
1.4037145650048877
1.375366568914956
1.3479960899315735
1.3225806451612905
1.2991202346041055
1.2766373411534702
1.2551319648093842
1.2355816226783969
1.2179863147605083
1.2023460410557183
1.1906158357771262
1.181818181818182
1.1720430107526882
1.1622678396871946
1.1544477028347997
1.147605083088954
1.142717497556207
1.1368523949169111
1.130987292277615
1.1251221896383188
1.1202346041055715
1.115347018572825
1.1114369501466277
1.110459433040078
1.1094819159335287
1.10752688172043
1.1036168132942326
1.099706744868035
1.0948191593352885
1.0909090909090908
1.0869990224828934
1.083088954056696
1.0791788856304985
1.0742913000977516
1.0684261974584557
1.064516129032258
1.0625610948191593
1.0586510263929618
1.0547409579667644
1.050830889540567
1.0469208211143697
1.0420332355816226
1.0381231671554252
1.0332355816226784
1.029325513196481
1.0254154447702837
1.0234604105571847
1.0224828934506354
1.0234604105571847
1.024437927663734
1.024437927663734
1.0234604105571847
1.0224828934506354
1.024437927663734
1.0332355816226784
1.050830889540567
1.0850439882697946
1.1397849462365592
1.219941348973607
1.324535679374389
1.4320625610948192
1.547409579667644
1.6901270772238517
1.8465298142717497
2.002932551319648
2.1495601173020527
2.280547409579668
2.3900293255131966
2.4760508308895406
2.539589442815249
2.582600195503421
2.6070381231671558
2.6148582600195502
2.610948191593353
2.6021505376344085
2.589442815249267
2.570869990224829
2.5464320625610948
2.515151515151515
2.47702834799609
2.43108504398827
2.376344086021505
2.313782991202346
2.243401759530792
2.167155425219941
2.096774193548387
2.0303030303030303
1.9589442815249267
1.889540566959922
1.826001955034213
1.76930596285435
1.7223851417399805
1.6852394916911049
1.656891495601173
1.635386119257087
1.6207233626588464
1.6099706744868034
1.6011730205278591
1.5923753665689149
1.5826001955034212
1.5718475073313782
1.560117302052786
1.5454545454545454
1.5278592375366569
1.5083088954056696
1.487781036168133
1.466275659824047
1.444770283479961
1.4242424242424243
1.4027370478983383
1.3841642228739004
1.3685239491691104
1.3509286412512218
1.332355816226784
1.313782991202346
1.2961876832844574
1.2795698924731185
1.2727272727272727
1.270772238514174
1.2649071358748778
1.2570869990224829
1.249266862170088
1.2434017595307918
1.2404692082111437
1.2365591397849462
1.2326490713587488
1.2287390029325511
1.2258064516129032
1.2238514173998043
1.2228739002932552
1.2209188660801564
1.2189638318670577
1.2179863147605083
1.2179863147605083
1.2238514173998043
1.2355816226783969
1.2561094819159335
1.2932551319648091
1.3509286412512218
1.434017595307918
1.541544477028348
1.6686217008797657
1.8103616813294232
1.9579667644183771
2.104594330400782
2.242424242424242
2.363636363636364
2.453567937438905
2.5190615835777126
2.575757575757576
2.6177908113391983
2.6422287390029324
2.650048875855328
2.641251221896383
2.6177908113391983
2.581622678396872
2.5347018572825024
2.4780058651026398
2.4134897360703813
2.3421309872922778
2.272727272727273
2.2023460410557183
2.1221896383186705
2.0391006842619745
1.9579667644183771
1.8826979472140764
1.8162267839687196
1.7605083088954057
1.7174975562072337
1.6871945259042034
1.667644183773216
1.656891495601173
1.6520039100684265
1.651026392961877
1.6520039100684265
1.6520039100684265
1.651026392961877
1.64613880742913
1.6373411534701858
1.6236559139784943
1.606060606060606
1.58455522971652
1.560117302052786
1.5327468230694037
1.5034213098729228
1.478005865102639
1.4535679374389052
1.426197458455523
1.396871945259042
1.367546432062561
1.3391984359726294
1.3118279569892473
1.2854349951124144
1.2619745845552297
1.2404692082111437
1.2218963831867058
1.206256109481916
1.195503421309873
1.1867057673509287
1.1759530791788857
1.166177908113392
1.1593352883675463
1.152492668621701
1.147605083088954
1.144672531769306
1.142717497556207
1.141739980449658
1.141739980449658
1.141739980449658
1.1407624633431086
1.141739980449658
1.142717497556207
1.1407624633431086
1.1368523949169111
1.1319648093841643
1.1270772238514175
1.1221896383186705
1.115347018572825
1.10752688172043
1.1006842619745845
1.093841642228739
1.0879765395894427
1.0850439882697946
1.0840664711632453
1.083088954056696
1.0791788856304985
1.075268817204301
1.0713587487781036
1.0684261974584557
1.0654936461388074
1.0625610948191593
1.0596285434995112
1.056695992179863
1.0547409579667644
1.0518084066471165
1.0518084066471165
1.053763440860215
1.0547409579667644
1.0557184750733135
1.0576735092864125
1.0596285434995112
1.0625610948191593
1.0654936461388074
1.0684261974584557
1.0703812316715542
1.072336265884653
1.0742913000977516
1.0772238514173995
1.0801564027370478
1.0811339198435972
1.0801564027370478
1.078201368523949
1.075268817204301
1.0733137829912025
1.0703812316715542
1.0694037145650048
1.0762463343108504
1.096774193548387
1.1407624633431086
1.2150537634408602
1.3040078201368523
1.41544477028348
1.5728250244379276
1.7653958944281525
1.9824046920821117
2.209188660801564
2.432062561094819
2.638318670576735
2.8181818181818183
2.9657869012707723
3.080156402737048
3.164222873900293
3.212121212121212
3.232649071358749
3.242424242424242
3.2404692082111435
3.2297165200391005
3.210166177908113
3.182795698924731
3.1485826001955037
3.1065493646138806
3.056695992179863
2.99902248289345
2.9315738025415445
2.863147605083089
2.790811339198436
2.7067448680351904
2.6158357771261
2.5219941348973607
2.4281524926686218
2.3391984359726297
2.257086999022483
2.182795698924731
2.118279569892473
2.064516129032258
2.018572825024438
1.9794721407624636
1.9472140762463344
1.919843597262952
1.8934506353861196
1.8670576735092863
1.839687194525904
1.812316715542522
1.7849462365591398
1.7546432062561097
1.7194525904203324
1.683284457478006
1.6451612903225807
1.607038123167155
1.573802541544477
1.543499511241447
1.5102639296187683
1.4760508308895406
1.4418377321603129
1.4086021505376345
1.3763440860215057
1.3470185728250244
1.3186705767350928
1.29227761485826
1.2697947214076246
1.2512218963831867
1.2355816226783969
1.224828934506354
1.2179863147605083
1.2101661779081134
1.2013685239491692
1.1915933528836755
1.1808406647116323
1.1720430107526882
1.164222873900293
1.1564027370478984
1.1485826001955035
1.141739980449658
1.1329423264907137
1.1270772238514175
1.1221896383186705
1.1143695014662756
1.104594330400782
1.0957966764418376
1.0869990224828934
1.0791788856304985
1.072336265884653
1.067448680351906
1.0635386119257086
1.0606060606060606
1.0576735092864125
1.053763440860215
1.0518084066471165
1.050830889540567
1.0478983382209188
1.043010752688172
1.0371456500488758
1.0312805474095796
1.0263929618768328
1.021505376344086
1.0166177908113392
1.0127077223851415
1.010752688172043
1.0117302052785924
1.0146627565982405
1.018572825024438
1.0195503421309873
1.018572825024438
1.0175953079178883
1.018572825024438
1.024437927663734
1.043010752688172
1.0811339198435972
1.1436950146627567
1.2355816226783969
1.3587487781036167
1.509286412512219
1.6549364613880744
1.7702834799608993
1.8866080156402736
2.024437927663734
2.164222873900293
2.29227761485826
2.401759530791789
2.489736070381232
2.5562072336265884
2.6021505376344085
2.6295210166177907
2.641251221896383
2.6392961876832843
2.627565982404692
2.610948191593353
2.587487781036168
2.558162267839687
2.52297165200391
2.4809384164222874
2.432062561094819
2.376344086021505
2.314760508308896
2.247311827956989
2.174975562072336
2.101661779081134
2.0361681329423265
1.9765395894428155
1.9159335288367547
1.8592375366568916
1.8093841642228736
1.7683284457478006
1.7360703812316716
1.710654936461388
1.6901270772238517
1.6735092864125125
1.6588465298142718
1.64613880742913
1.6344086021505375
1.6217008797653958
1.606060606060606
1.587487781036168
1.5650048875855327
1.541544477028348
1.5161290322580645
1.4887585532746823
1.4604105571847508
1.4320625610948192
1.404692082111437
1.3782991202346042
1.35386119257087
1.3343108504398826
1.3186705767350928
1.303030303030303
1.2883675464320623
1.2746823069403714
1.262952101661779
1.252199413489736
1.241446725317693
1.2316715542521994
1.2228739002932552
1.2150537634408602
1.2072336265884651
1.2023460410557183
1.1994134897360704
1.195503421309873
1.1925708699902249
1.1896383186705768
1.187683284457478
1.1857282502443791
1.1827956989247312
1.1808406647116323
1.1779081133919844
1.1759530791788857
1.1720430107526882
1.1671554252199414
1.1622678396871946
1.1583577712609971
1.152492668621701
1.1466275659824048
1.141739980449658
1.1368523949169111
1.1319648093841643
1.1270772238514175
1.1221896383186705
1.1173020527859236
1.1124144672531768
1.1085043988269794
1.1065493646138806
1.1055718475073313
1.1026392961876832
1.0987292277614855
1.093841642228739
1.088954056695992
1.0850439882697946
1.083088954056696
1.0821114369501466
1.0811339198435972
1.0811339198435972
1.0811339198435972
1.0811339198435972
1.0821114369501466
1.0850439882697946
1.086021505376344
1.0879765395894427
1.093841642228739
1.1085043988269794
1.1378299120234605
1.1867057673509287
1.2619745845552297
1.3655913978494625
1.4965786901270772
1.6500488758553276
1.7947214076246334
1.9335288367546437
2.088954056695992
2.243401759530792
2.3851417399804498
2.506353861192571
2.6021505376344085
2.673509286412512
2.7223851417399803
2.7517106549364616
2.764418377321604
2.7653958944281527
2.757575757575758
2.740957966764418
2.718475073313783
2.69208211143695
2.6608015640273703
2.624633431085044
2.5806451612903225
2.527859237536657
2.4682306940371457
2.401759530791789
2.329423264907136
2.2531769305962857
2.175953079178885
2.1065493646138806
2.0449657869012707
1.981427174975562
1.9227761485826005
1.870967741935484
1.827956989247312
1.793743890518084
1.7653958944281525
1.7429130009775171
1.7253176930596286
1.7086999022482894
1.6911045943304008
1.6744868035190617
1.656891495601173
1.6344086021505375
1.608993157380254
1.5826001955034212
1.5542521994134897
1.5239491691104594
1.4916911045943304
1.457478005865103
1.4213098729227762
1.383186705767351
1.3440860215053765
1.3049853372434017
1.2727272727272727
1.2443792766373412
1.2130987292277615
1.181818181818182
1.1534701857282503
1.1280547409579669
1.1055718475073313
1.0879765395894427
1.075268817204301
1.067448680351906
1.0635386119257086
1.0635386119257086
1.067448680351906
1.075268817204301
1.0840664711632453
1.0948191593352885
1.10752688172043
1.121212121212121
1.1348973607038124
1.147605083088954
1.1612903225806452
1.1749755620723363
1.187683284457478
1.198435972629521
1.2101661779081134
1.2218963831867058
1.2326490713587488
1.2424242424242424
1.2512218963831867
1.2570869990224829
1.260019550342131
1.260019550342131
1.2561094819159335
1.249266862170088
1.241446725317693
1.23069403714565
1.219941348973607
1.2111436950146628
1.2043010752688172
1.1935483870967742
1.1798631476050832
1.164222873900293
1.1466275659824048
1.1290322580645162
1.110459433040078
1.0918866080156402
1.0762463343108504
1.0625610948191593
1.0498533724340176
1.0391006842619743
1.032258064516129
1.0283479960899315
1.0224828934506354
1.0166177908113392
1.0156402737047898
1.0234604105571847
1.0469208211143697
1.0899315738025417
1.1593352883675463
1.2580645161290325
1.3851417399804498
1.5376344086021505
1.6823069403714566
1.8240469208211143
1.9853372434017595
2.1485826001955037
2.3010752688172045
2.434017595307918
2.5425219941348973
2.6236559139784945
2.6803519061583576
2.7155425219941347
2.7331378299120237
2.7370478983382207
2.730205278592375
2.713587487781036
2.6911045943304006
2.665689149560117
2.634408602150537
2.595307917888563
2.548387096774193
2.493646138807429
2.4301075268817205
2.358748778103617
2.281524926686217
2.20039100684262
2.118279569892473
2.0449657869012707
1.9775171065493649
1.9090909090909087
1.844574780058651
1.7878787878787878
1.7409579667644184
1.7018572825024438
1.6715542521994136
1.664711632453568
1.6695992179863148
1.6627565982404693
1.6500488758553276
1.6334310850439884
1.616813294232649
1.598240469208211
1.5757575757575757
1.5493646138807429
1.520039100684262
1.4897360703812317
1.456500488758553
1.4222873900293256
1.3870967741935485
1.3519061583577712
1.316715542521994
1.281524926686217
1.2531769305962854
1.2297165200391007
1.203323558162268
1.1759530791788857
2.704789833822092
2.644183773216031
2.582600195503421
2.517106549364614
2.4457478005865103
2.36950146627566
2.2932551319648096
2.217986314760508
2.146627565982405
2.081133919843597
2.0234604105571847
1.9745845552297163
1.9364613880742916
1.9071358748778104
1.884652981427175
1.866080156402737
1.8504398826979471
1.835777126099707
1.8211143695014664
1.804496578690127
1.7859237536656891
1.7653958944281525
1.7419354838709675
1.715542521994135
1.6881720430107527
1.66177908113392
1.6373411534701858
1.6099706744868034
1.5806451612903225
1.5503421309872922
1.520039100684262
1.4897360703812317
1.4613880742913
1.4349951124144673
1.4105571847507332
1.388074291300098
1.367546432062561
1.3499511241446724
1.3372434017595307
1.327468230694037
1.316715542521994
1.3049853372434017
1.2932551319648091
1.281524926686217
1.270772238514174
1.2619745845552297
1.2551319648093842
1.2502443792766371
1.24633431085044
1.241446725317693
1.2394916911045943
1.238514173998045
1.2355816226783969
1.23069403714565
1.2258064516129032
1.219941348973607
1.2130987292277615
1.2072336265884651
1.2013685239491692
1.1964809384164223
1.1906158357771262
1.1857282502443791
1.1808406647116323
1.1779081133919844
1.1759530791788857
1.1710654936461389
1.1652003910068427
1.1583577712609971
1.152492668621701
1.147605083088954
1.1436950146627567
1.1407624633431086
1.1378299120234605
1.1358748778103618
1.133919843597263
1.1348973607038124
1.1368523949169111
1.1358748778103618
1.1348973607038124
1.1319648093841643
1.1280547409579669
1.1231671554252198
1.118279569892473
1.1133919843597262
1.110459433040078
1.1114369501466277
1.121212121212121
1.1436950146627567
1.176930596285435
1.2258064516129032
1.3040078201368523
1.4105571847507332
1.543499511241447
1.6979472140762464
1.866080156402737
2.038123167155425
2.2052785923753664
2.358748778103617
2.4916911045943304
2.601173020527859
2.675464320625611
2.7233626588465296
2.760508308895406
2.7839687194525906
2.795698924731183
2.7966764418377323
2.788856304985337
2.774193548387097
2.7546432062561097
2.730205278592375
2.699902248289345
2.6637341153470184
2.6236559139784945
2.579667644183773
2.5268817204301075
2.4652981427174976
2.396871945259042
2.32355816226784
2.24633431085044
2.16911045943304
2.093841642228739
2.0234604105571847
1.9579667644183771
1.8993157380254155
1.8504398826979471
1.8132942326490715
1.7849462365591398
1.7605083088954057
1.7390029325513197
1.7204301075268815
1.7028347996089932
1.6852394916911049
1.6666666666666667
1.64613880742913
1.6236559139784943
1.598240469208211
1.5708699902248289
1.5464320625610948
1.5239491691104594
1.499511241446725
1.474095796676442
1.447702834799609
1.4222873900293256
1.3978494623655917
1.3734115347018572
1.3499511241446724
1.327468230694037
1.305962854349951
1.2864125122189638
1.2688172043010753
1.2570869990224829
1.249266862170088
1.241446725317693
1.2355816226783969
1.23069403714565
1.2267839687194526
1.2238514173998043
1.2209188660801564
1.217008797653959
1.2121212121212122
1.2072336265884651
1.203323558162268
1.2023460410557183
1.2023460410557183
1.2003910068426198
1.1974584555229717
1.1935483870967742
1.1886608015640274
1.18475073313783
1.1808406647116323
1.1749755620723363
1.1681329423264908
1.1622678396871946
1.1564027370478984
1.1505376344086022
1.1485826001955035
1.147605083088954
1.144672531769306
1.1407624633431086
1.1368523949169111
1.133919843597263
1.130987292277615
1.1280547409579669
1.126099706744868
1.1241446725317692
1.1241446725317692
1.1241446725317692
1.126099706744868
1.1290322580645162
1.130987292277615
1.1329423264907137
1.1358748778103618
1.1378299120234605
1.1397849462365592
1.1407624633431086
1.141739980449658
1.1436950146627567
1.1495601173020529
1.1622678396871946
1.1886608015640274
1.2238514173998043
1.2746823069403714
1.35386119257087
1.4604105571847508
1.5913978494623655
1.7438905180840665
1.9100684261974583
2.0791788856304985
2.242424242424242
2.391006842619746
2.5190615835777126
2.624633431085044
2.696969696969697
2.7438905180840663
2.779081133919844
2.801564027370479
2.811339198435973
2.811339198435973
2.8044965786901277
2.791788856304985
2.773216031280548
2.7497556207233624
2.719452590420332
2.6823069403714563
2.638318670576735
2.591397849462365
2.539589442815249
2.4789833822091887
2.409579667644184
2.335288367546432
2.259042033235582
2.182795698924731
2.1094819159335287
2.042033235581622
1.9843597262952104
1.935483870967742
1.895405669599218
1.866080156402737
1.844574780058651
1.8269794721407624
1.8113391984359728
1.796676441837732
1.7810361681329423
1.7634408602150538
1.7429130009775171
1.7194525904203324
1.694037145650049
1.6666666666666667
1.6392961876832846
1.6109481915933528
