ppg
1.5141739980449658
1.499511241446725
1.4868035190615836
1.474095796676442
1.4623655913978495
1.452590420332356
1.4418377321603129
1.4281524926686218
1.412512218963832
1.3958944281524928
1.3782991202346042
1.3587487781036167
1.3401759530791788
1.3235581622678396
1.3118279569892473
1.249266862170088
1.2502443792766371
1.2531769305962854
1.2541544477028348
1.2531769305962854
1.2502443792766371
1.24633431085044
1.241446725317693
1.2394916911045943
1.2453567937438903
1.2639296187683284
1.3010752688172045
1.3655913978494625
1.4604105571847508
1.564027370478983
1.6803519061583578
1.83088954056696
2.002932551319648
2.182795698924731
2.357771260997068
2.5190615835777126
2.6608015640273703
2.779081133919844
2.8729227761485827
2.9442815249266863
2.997067448680352
3.027370478983382
3.0410557184750733
3.0498533724340176
3.0518084066471163
3.046920821114369
3.038123167155425
3.024437927663734
3.007820136852395
2.986314760508309
2.960899315738025
2.9345063538611926
2.9042033235581624
2.868035190615836
2.8289345063538613
2.7869012707722387
2.739980449657869
2.689149560117302
2.634408602150537
2.572825024437928
2.505376344086021
2.432062561094819
2.35386119257087
2.271749755620724
2.190615835777126
2.113391984359726
2.047898338220919
1.9902248289345064
1.9315738025415443
1.87683284457478
1.828934506353861
1.7869012707722385
1.7517106549364614
1.7223851417399805
1.696969696969697
1.672531769305963
1.651026392961877
1.629521016617791
1.607038123167155
1.587487781036168
1.5698924731182795
1.5513196480938416
1.530791788856305
1.512218963831867
1.4936461388074291
1.4760508308895406
1.4594330400782014
1.4428152492668622
1.426197458455523
1.4086021505376345
1.3890518084066472
1.3734115347018572
1.3587487781036167
1.3421309872922775
1.327468230694037
1.313782991202346
1.300097751710655
1.2883675464320623
1.2756598240469208
1.262952101661779
1.2512218963831867
1.2404692082111437
1.2297165200391007
1.2209188660801564
1.2160312805474096
1.2140762463343109
1.2101661779081134
1.2052785923753666
1.2003910068426198
1.195503421309873
1.1906158357771262
1.1827956989247312
1.1749755620723363
1.1710654936461389
1.1691104594330402
1.1681329423264908
1.1700879765395895
1.173998044965787
1.176930596285435
1.1788856304985338
1.176930596285435
1.1730205278592376
1.1691104594330402
1.163245356793744
1.1573802541544478
1.1544477028347997
1.1534701857282503
1.152492668621701
1.152492668621701
1.1564027370478984
1.1622678396871946
1.166177908113392
1.1691104594330402
1.1710654936461389
1.1700879765395895
1.1700879765395895
1.1720430107526882
1.176930596285435
1.1906158357771262
1.2209188660801564
1.273704789833822
1.33822091886608
1.4213098729227762
1.5386119257087
1.686217008797654
1.8533724340175952
2.029325513196481
2.2052785923753664
2.3734115347018574
2.529814271749756
2.6666666666666665
2.782013685239492
2.87683284457478
2.9423264907135875
2.9872922776148583
3.0283479960899315
3.06158357771261
3.0869990224828934
3.10752688172043
3.124144672531769
3.136852394916911
3.145650048875855
3.1515151515151514
3.15347018572825
3.150537634408602
3.142717497556207
3.1270772238514173
3.1055718475073317
3.0840664711632453
3.060606060606061
3.0303030303030303
2.995112414467253
2.9550342130987293
2.90811339198436
2.8533724340175954
2.790811339198436
2.720430107526881
2.644183773216031
2.570869990224829
2.4995112414467253
2.420332355816227
2.3391984359726297
2.260019550342131
2.1837732160312804
2.114369501466276
2.0547409579667644
2.006842619745845
1.967741935483871
1.9364613880742916
1.911045943304008
1.889540566959922
1.871945259042033
1.855327468230694
1.8377321603128052
1.822091886608016
1.8064516129032255
1.7888563049853372
1.76930596285435
1.7487781036168133
1.7282502443792769
1.70772238514174
1.6871945259042034
1.667644183773216
1.6529814271749756
1.6412512218963833
1.6275659824046922
1.6129032258064515
1.5972629521016617
1.5806451612903225
1.5610948191593352
1.541544477028348
1.52297165200391
1.5063538611925709
1.4926686217008798
1.479960899315738
1.4652981427174976
1.4545454545454546
1.4437927663734116
1.4301075268817205
1.418377321603128
1.4076246334310851
1.396871945259042
1.3861192570869991
1.375366568914956
1.3665689149560116
1.3607038123167154
1.3548387096774193
1.3088954056695992
1.2453567937438903
1.2121212121212122
1.1935483870967742
1.1808406647116323
1.1720430107526882
1.1652003910068427
1.1622678396871946
1.163245356793744
1.166177908113392
1.1671554252199414
1.1671554252199414
1.1652003910068427
1.1622678396871946
1.160312805474096
1.1593352883675463
1.1564027370478984
1.1534701857282503
1.152492668621701
1.1515151515151516
1.1495601173020529
1.1466275659824048
1.144672531769306
1.147605083088954
1.1573802541544478
1.1788856304985338
1.2121212121212122
1.2609970674486803
1.33822091886608
1.4457478005865103
1.5786901270772238
1.7311827956989247
1.8944281524926687
2.058651026392962
2.217986314760508
2.3655913978494625
2.496578690127077
2.6080156402737047
2.6989247311827955
2.7595307917888565
2.798631476050831
2.833822091886608
2.8611925708699903
2.878787878787879
2.887585532746823
2.889540566959922
2.884652981427175
2.8729227761485827
2.8563049853372435
2.8367546432062563
2.8132942326490715
2.787878787878788
2.760508308895406
2.7341153470185726
2.704789833822092
2.670576735092864
2.63049853372434
2.581622678396872
2.5249266862170088
2.4604105571847508
2.3900293255131966
2.315738025415445
2.2375366568914954
2.155425219941349
2.080156402737048
2.0117302052785924
1.9393939393939397
1.868035190615836
1.8005865102639296
1.7390029325513197
1.686217008797654
1.640273704789834
1.6001955034213098
1.5650048875855327
1.5327468230694037
1.5053763440860215
1.4838709677419355
1.4652981427174976
1.444770283479961
1.4213098729227762
1.396871945259042
1.3724340175953078
1.3499511241446724
1.3284457478005864
1.3069403714565004
1.2864125122189638
1.2649071358748778
1.2443792766373412
1.2238514173998043
1.2082111436950147
1.1964809384164223
1.1837732160312806
1.1720430107526882
1.160312805474096
1.147605083088954
1.1348973607038124
1.1221896383186705
1.1094819159335287
1.0948191593352885
1.0801564027370478
1.064516129032258
1.0527859237536656
1.043010752688172
1.032258064516129
1.0224828934506354
1.0166177908113392
1.013685239491691
1.0117302052785924
1.010752688172043
1.010752688172043
1.0087976539589445
1.0058651026392962
1.0019550342130987
0.997067448680352
0.9960899315738024
0.9951124144672532
0.9921798631476052
0.9912023460410556
0.9902248289345064
0.9902248289345064
0.9902248289345064
0.9902248289345064
0.9902248289345064
0.9902248289345064
0.9902248289345064
0.9902248289345064
0.9921798631476052
0.9960899315738024
0.9990224828934506
1.002932551319648
1.007820136852395
1.0117302052785924
1.013685239491691
1.0146627565982405
1.0156402737047898
1.018572825024438
1.0303030303030305
1.0576735092864125
1.0987292277614855
1.1612903225806452
1.2561094819159335
1.3812316715542523
1.5347018572825024
1.7086999022482894
1.89247311827957
2.072336265884653
2.2404692082111435
2.3929618768328447
2.5268817204301075
2.638318670576735
2.727272727272727
2.7859237536656893
2.823069403714565
2.854349951124145
2.877810361681329
2.895405669599218
2.90811339198436
2.9159335288367547
2.919843597262952
2.919843597262952
2.9159335288367547
2.909090909090909
2.900293255131965
2.8856304985337244
2.865102639296188
2.843597262952102
2.819159335288368
2.791788856304985
2.757575757575758
2.7145650048875853
2.6637341153470184
2.6070381231671558
2.5454545454545454
2.4780058651026398
2.403714565004888
2.3225806451612905
2.2453567937438903
2.172043010752688
2.0928641251221896
2.0117302052785924
1.932551319648094
1.8621700879765395
1.7996089931573802
1.7438905180840665
1.696969696969697
1.6578690127077225
1.624633431085044
1.598240469208211
1.576735092864125
1.5581622678396871
1.5356793743890518
1.5112414467253177
1.4858260019550342
1.4604105571847508
1.434017595307918
1.4086021505376345
1.3822091886608017
1.3577712609970674
1.3362658846529814
1.316715542521994
1.2961876832844574
1.2795698924731185
1.2649071358748778
1.2473118279569892
1.227761485826002
1.2072336265884651
1.1886608015640274
1.1700879765395895
1.1515151515151516
1.1348973607038124
1.118279569892473
1.1026392961876832
1.0869990224828934
1.0762463343108504
1.0703812316715542
1.0654936461388074
1.0596285434995112
1.0547409579667644
1.0498533724340176
1.0068426197458455
1.0087976539589445
1.0205278592375366
1.050830889540567
1.1065493646138806
1.1896383186705768
1.3040078201368523
1.423264907135875
1.5513196480938416
1.7096774193548387
1.8778103616813293
2.0439882697947214
2.21505376344086
2.378299120234604
2.5112414467253177
2.616813294232649
2.6959921798631474
2.7546432062561097
2.795698924731183
2.81622678396872
2.8240469208211145
2.8289345063538613
2.8299120234604107
2.825024437927664
2.8152492668621703
2.801564027370479
2.7859237536656893
2.7653958944281527
2.7419354838709675
2.718475073313783
2.6930596285435
2.6637341153470184
2.632453567937439
2.595307917888563
2.550342130987292
2.4995112414467253
2.444770283479961
2.3851417399804498
2.318670576735093
2.247311827956989
2.1710654936461387
2.090909090909091
2.007820136852395
1.924731182795699
1.8533724340175952
1.790811339198436
1.7272727272727273
1.6686217008797657
1.616813294232649
1.5718475073313782
1.5347018572825024
1.5024437927663734
1.4760508308895406
1.4535679374389052
1.43108504398827
1.4105571847507332
1.391006842619746
1.3763440860215057
1.3636363636363635
1.346041055718475
1.3264907135874875
1.305962854349951
1.2854349951124144
1.2639296187683284
1.241446725317693
1.2179863147605083
1.195503421309873
1.1730205278592376
1.1495601173020529
1.1300097751710656
1.1124144672531768
1.0899315738025417
1.0684261974584557
1.050830889540567
1.0361681329423265
1.0234604105571847
1.0117302052785924
1.0
0.989247311827957
0.978494623655914
0.967741935483871
0.956989247311828
0.9501466275659824
0.9452590420332356
0.9393939393939394
0.9335288367546432
0.927663734115347
0.9217986314760508
0.916911045943304
0.9100684261974584
0.9012707722385142
0.8914956011730205
0.8807429130009775
0.8719452590420332
0.8670576735092864
0.8660801564027371
0.8660801564027371
0.8660801564027371
0.8660801564027371
0.8670576735092864
0.8719452590420332
0.8768328445747801
0.8817204301075269
0.8875855327468231
0.8905180840664711
0.8914956011730205
0.8924731182795699
0.895405669599218
0.8993157380254154
0.9002932551319648
0.8993157380254154
0.9022482893450636
0.9178885630498532
0.95405669599218
1.0166177908113392
1.1065493646138806
1.2258064516129032
1.3695014662756595
1.5327468230694037
1.683284457478006
1.8240469208211143
1.978494623655914
2.1309872922776147
2.271749755620724
2.3929618768328447
2.49266862170088
2.570869990224829
2.627565982404692
2.6637341153470184
2.684261974584555
2.6930596285435
2.69208211143695
2.6852394916911044
2.67644183773216
2.6666666666666665
2.6559139784946235
2.6451612903225805
2.634408602150537
2.6236559139784945
2.610948191593353
2.593352883675464
2.570869990224829
2.5434995112414467
2.512218963831867
2.4780058651026398
2.436950146627566
2.3870967741935485
2.3313782991202348
2.269794721407625
2.201368523949169
2.1280547409579667
2.0518084066471163
1.9745845552297163
1.900293255131965
1.827956989247312
1.7605083088954057
1.7067448680351909
1.6627565982404693
1.6207233626588464
1.581622678396872
1.547409579667644
1.520039100684262
1.495601173020528
1.4721407624633431
1.452590420332356
1.4349951124144673
1.418377321603128
1.401759530791789
1.3851417399804498
1.3734115347018572
1.364613880742913
1.3548387096774193
1.3421309872922775
1.324535679374389
1.3049853372434017
1.281524926686217
1.2541544477028348
1.2258064516129032
1.1974584555229717
1.1700879765395895
1.144672531769306
1.126099706744868
1.1133919843597262
1.0987292277614855
1.083088954056696
1.0684261974584557
1.0547409579667644
1.0410557184750733
1.0283479960899315
1.0166177908113392
1.0058651026392962
0.9951124144672532
0.9853372434017597
0.9765395894428152
0.9716520039100685
0.9696969696969696
0.9628543499511242
0.95405669599218
0.9442815249266864
0.9345063538611924
0.9237536656891496
0.9130009775171064
0.9022482893450636
0.8914956011730205
0.8807429130009775
0.8719452590420332
0.8670576735092864
0.8651026392961877
0.8611925708699902
0.855327468230694
0.8465298142717498
0.8367546432062561
0.8260019550342131
0.8132942326490714
0.8015640273704789
0.7888563049853372
0.7751710654936461
0.761485826001955
0.750733137829912
0.7458455522971652
0.7468230694037146
0.7526881720430108
0.7741935483870968
0.820136852394917
0.895405669599218
1.002932551319648
1.13880742913001
1.295210166177908
1.4633431085043989
1.635386119257087
1.8035190615835777
1.9423264907135875
2.058651026392962
2.175953079178885
2.2844574780058653
2.3792766373411536
2.458455522971652
2.5239491691104594
2.578690127077224
2.622678396871945
2.658846529814272
2.686217008797654
2.704789833822092
2.717497556207233
2.720430107526881
2.719452590420332
2.721407624633431
2.724340175953079
2.724340175953079
2.721407624633431
2.7145650048875853
2.702834799608993
2.686217008797654
2.6608015640273703
2.625610948191593
2.5806451612903225
2.530791788856305
2.4750733137829912
2.409579667644184
2.337243401759531
2.259042033235582
2.179863147605083
2.099706744868035
2.0205278592375366
1.9442815249266865
1.870967741935484
1.801564027370479
1.7380254154447703
1.7380254154447703
1.7790811339198436
1.7878787878787878
1.7790811339198436
1.7673509286412512
1.7565982404692082
1.747800586510264
1.7380254154447703
1.7253176930596286
1.7116324535679377
1.696969696969697
1.6823069403714566
1.6695992179863148
1.6608015640273706
1.651026392961877
1.6383186705767352
1.624633431085044
1.611925708699902
1.6001955034213098
1.5894428152492668
1.5786901270772238
1.5679374389051808
1.5571847507331378
1.547409579667644
1.5366568914956011
1.5268817204301075
1.5190615835777126
1.5131964809384164
1.504398826979472
1.495601173020528
1.4858260019550342
1.4760508308895406
1.4652981427174976
1.455522971652004
1.4467253176930597
1.4408602150537635
1.436950146627566
1.4320625610948192
1.4291300097751711
1.4281524926686218
1.4252199413489737
1.4213098729227762
1.418377321603128
1.4164222873900294
1.41544477028348
1.41544477028348
1.4134897360703813
1.409579667644184
1.4056695992179864
1.4007820136852396
1.3958944281524928
1.393939393939394
1.392961876832845
1.3919843597262953
1.3919843597262953
1.3890518084066472
1.3851417399804498
1.380254154447703
1.3743890518084063
1.364613880742913
1.3548387096774193
1.3479960899315735
1.3440860215053765
1.348973607038123
1.3665689149560116
1.401759530791789
1.4613880742913
1.5503421309872922
1.6666666666666667
1.8064516129032255
1.9618768328445748
2.1251221896383186
2.2873900293255134
2.439882697947214
2.576735092864125
2.69208211143695
2.774193548387097
2.831867057673509
2.8807429130009776
2.917888563049853
2.9442815249266863
2.961876832844575
2.9716520039100685
2.975562072336266
2.9745845552297165
2.970674486803519
2.961876832844575
2.9501466275659824
2.9335288367546437
2.913978494623656
2.89247311827957
2.8690127077223853
2.843597262952102
2.8132942326490715
2.7751710654936463
2.729227761485826
2.675464320625611
2.613880742913001
2.5464320625610948
2.474095796676442
2.406647116324536
2.3411534701857284
2.2688172043010755
2.1955034213098727
2.126099706744868
2.0635386119257086
2.007820136852395
1.9608993157380252
1.9237536656891496
1.8944281524926687
1.873900293255132
1.8592375366568916
1.8494623655913975
1.8416422287390029
1.835777126099707
1.828934506353861
1.8201368523949168
1.8093841642228736
1.7947214076246334
1.7781036168132942
1.7595307917888563
1.7390029325513197
1.7174975562072337
1.6950146627565983
1.6735092864125125
1.6578690127077225
1.6422287390029326
1.6236559139784943
1.606060606060606
1.5865102639296187
1.5669599217986314
1.5464320625610948
1.5249266862170088
1.501466275659824
1.478005865102639
1.457478005865103
1.4408602150537635
1.4291300097751711
1.423264907135875
1.4213098729227762
1.4203323558162269
1.418377321603128
1.41544477028348
1.4105571847507332
1.4056695992179864
1.3988269794721409
1.3870967741935485
1.375366568914956
1.3626588465298142
1.3519061583577712
1.346041055718475
1.343108504398827
1.3401759530791788
1.3401759530791788
1.343108504398827
1.3470185728250244
1.3509286412512218
1.3528836754643203
1.3519061583577712
1.348973607038123
1.3421309872922775
1.3313782991202343
1.316715542521994
1.3040078201368523
1.2942326490713587
1.2805474095796676
1.2658846529814272
1.2502443792766371
1.2326490713587488
1.2140762463343109
1.1964809384164223
1.1867057673509287
1.1896383186705768
1.2111436950146628
1.2580645161290325
1.3196480938416422
1.4027370478983383
1.5239491691104594
1.6735092864125125
1.8406647116324533
2.018572825024438
2.198435972629521
2.3704789833822093
2.5268817204301075
2.6637341153470184
2.780058651026393
2.877810361681329
2.9589442815249267
3.013685239491691
3.0498533724340176
3.0840664711632453
3.114369501466276
3.136852394916911
3.15347018572825
3.164222873900293
3.1700879765395893
3.1700879765395893
3.1652003910068425
3.156402737047898
3.142717497556207
3.12316715542522
3.0977517106549364
3.0684261974584555
3.0361681329423265
3.0009775171065494
2.9589442815249267
2.9100684261974585
2.855327468230694
2.792766373411535
2.7223851417399803
2.643206256109482
2.558162267839687
2.4672531769305963
2.383186705767351
2.304007820136853
2.220918866080156
2.139784946236559
2.0635386119257086
1.9951124144672527
1.935483870967742
1.8836754643206255
1.8387096774193548
1.801564027370479
1.7702834799608993
1.7429130009775171
1.721407624633431
1.7028347996089932
1.6852394916911049
1.6656891495601174
1.643206256109482
1.6207233626588464
1.5992179863147604
1.5786901270772238
1.5581622678396871
1.5376344086021505
1.517106549364614
1.4965786901270772
1.4760508308895406
1.4594330400782014
1.4457478005865103
1.4301075268817205
1.4115347018572826
1.3919843597262953
1.3714565004887584
1.348973607038123
1.3284457478005864
1.3079178885630498
1.2883675464320623
1.270772238514174
1.2561094819159335
1.2473118279569892
1.241446725317693
1.2336265884652982
1.2258064516129032
1.2179863147605083
1.2101661779081134
1.1593352883675463
1.0850439882697946
1.043010752688172
1.0166177908113392
0.9980449657869012
0.9853372434017597
0.9765395894428152
0.9716520039100685
0.9706744868035192
0.9706744868035192
0.967741935483871
0.9618768328445748
0.9560117302052786
0.9501466275659824
0.946236559139785
0.9442815249266864
0.9442815249266864
0.9442815249266864
0.9442815249266864
0.9452590420332356
0.946236559139785
0.9442815249266864
0.9393939393939394
0.9325513196480938
0.9315738025415444
0.9442815249266864
0.9775171065493646
1.0391006842619743
1.1319648093841643
1.2580645161290325
1.4115347018572826
1.58455522971652
1.7438905180840665
1.89247311827957
2.0547409579667644
2.2111436950146626
2.3519061583577714
2.4750733137829912
2.5777126099706744
2.659824046920821
2.7233626588465296
2.773216031280548
2.8084066471163247
2.8299120234604107
2.8377321603128056
2.8377321603128056
2.8367546432062563
2.831867057673509
2.823069403714565
2.811339198435973
2.7976539589442817
2.782013685239492
2.7624633431085046
2.73802541544477
2.70772238514174
2.6715542521994133
2.632453567937439
2.5884652981427174
2.535679374389052
2.4750733137829912
2.406647116324536
2.329423264907136
2.24633431085044
2.1593352883675463
2.069403714565005
1.9775171065493649
1.8856304985337244
1.7986314760508308
1.718475073313783
1.653958944281525
1.6011730205278591
1.5493646138807429
1.5034213098729228
1.4652981427174976
1.434017595307918
1.4086021505376345
1.3861192570869991
1.3655913978494625
1.346041055718475
1.327468230694037
1.310850439882698
1.2971652003910068
1.2854349951124144
1.2717497556207231
1.2590420332355816
1.24633431085044
1.2316715542521994
1.217008797653959
1.2023460410557183
1.1857282502443791
1.1681329423264908
1.1505376344086022
1.1329423264907137
1.1173020527859236
1.1085043988269794
1.1026392961876832
1.093841642228739
1.0821114369501466
1.0694037145650048
1.0576735092864125
1.0469208211143697
1.0361681329423265
1.0283479960899315
1.024437927663734
1.0205278592375366
1.0156402737047898
1.0146627565982405
1.013685239491691
1.010752688172043
1.0068426197458455
1.0019550342130987
0.997067448680352
0.9941348973607038
0.989247311827957
0.9843597262952102
0.9794721407624634
0.9745845552297164
0.9726295210166178
0.9716520039100685
0.9736070381231672
0.9765395894428152
0.978494623655914
0.9794721407624634
0.9794721407624634
0.9794721407624634
0.9794721407624634
0.9794721407624634
0.9794721407624634
0.9794721407624634
0.978494623655914
0.975562072336266
0.975562072336266
0.978494623655914
0.9882697947214076
1.0127077223851415
1.0586510263929618
1.133919843597263
1.2424242424242424
1.383186705767351
1.552297165200391
1.7429130009775171
1.943304007820137
2.1407624633431084
2.324535679374389
2.4701857282502444
2.590420332355816
2.70772238514174
2.809384164222874
2.895405669599218
2.963831867057673
3.01564027370479
3.0547409579667644
3.0821114369501466
3.0987292277614857
3.10850439882698
3.112414467253177
3.1065493646138806
3.093841642228739
3.0791788856304985
3.064516129032258
3.046920821114369
3.026392961876833
3.003910068426197
2.9745845552297165
2.93841642228739
2.895405669599218
2.8475073313782997
2.791788856304985
2.7262952101661777
2.6608015640273703
2.592375366568915
2.5131964809384164
2.4281524926686218
2.3391984359726297
2.2502443792766376
2.163245356793744
2.080156402737048
2.002932551319648
1.9335288367546437
1.873900293255132
1.822091886608016
1.7820136852394917
1.75366568914956
1.729227761485826
1.70772238514174
1.689149560117302
1.672531769305963
1.6549364613880744
1.6383186705767352
1.6226783968719452
1.6050830889540566
1.587487781036168
1.5708699902248289
1.555229716520039
1.541544477028348
1.5278592375366569
1.5083088954056696
1.4858260019550342
1.4613880742913
1.4379276637341154
1.41544477028348
1.393939393939394
1.3743890518084063
1.3558162267839686
1.33822091886608
1.321603128054741
1.3088954056695992
1.2991202346041055
1.2864125122189638
1.2746823069403714
1.2639296187683284
1.2531769305962854
1.2434017595307918
1.23069403714565
1.2179863147605083
1.206256109481916
1.1964809384164223
1.1867057673509287
1.176930596285435
1.1720430107526882
1.1691104594330402
1.1622678396871946
1.1544477028347997
1.147605083088954
1.13880742913001
1.1280547409579669
1.118279569892473
1.10752688172043
1.0977517106549364
1.0869990224828934
1.0772238514173995
1.0703812316715542
1.0664711632453567
1.06158357771261
1.0596285434995112
1.0586510263929618
1.0547409579667644
1.0488758553274682
1.0420332355816226
1.0342130987292275
1.0263929618768328
1.0224828934506354
1.0283479960899315
1.0498533724340176
1.0840664711632453
1.1378299120234605
1.227761485826002
1.3519061583577712
1.5053763440860215
1.6823069403714566
1.8758553274682308
2.0733137829912023
2.2639296187683287
2.4408602150537635
2.598240469208211
2.732160312805474
2.8025415444770285
2.832844574780059
2.8729227761485827
2.90811339198436
2.9345063538611926
2.952101661779081
2.962854349951124
2.9667644183773216
2.963831867057673
2.956011730205278
2.9423264907135875
2.9237536656891496
2.9042033235581624
2.881720430107527
2.855327468230694
2.8269794721407626
2.795698924731183
2.7595307917888565
2.718475073313783
2.6715542521994133
2.6158357771261
2.552297165200391
2.4809384164222874
2.4027370478983383
