ppg
2.41544477028348
2.5454545454545454
2.664711632453568
2.7702834799608995
2.859237536656892
2.929618768328446
2.9765395894428157
3.0097751710654936
3.042033235581622
3.067448680351906
3.086021505376344
3.096774193548387
3.1006842619745845
3.096774193548387
3.085043988269794
3.0635386119257086
3.032258064516129
2.991202346041056
2.940371456500489
2.8826979472140764
2.819159335288368
2.745845552297165
2.6637341153470184
2.578690127077224
2.495601173020528
2.4173998044965788
2.346041055718475
2.281524926686217
2.2248289345063537
2.1730205278592374
2.124144672531769
2.081133919843597
2.042033235581622
2.0
1.9560117302052784
1.9149560117302051
1.8729227761485825
1.83088954056696
1.7927663734115349
1.7605083088954057
1.7350928641251222
1.7145650048875856
1.696969696969697
1.6764418377321604
1.6549364613880744
1.632453567937439
1.606060606060606
1.5796676441837731
1.5532746823069403
1.5268817204301075
1.5024437927663734
1.478983382209189
1.455522971652004
1.4320625610948192
1.4086021505376345
1.3861192570869991
1.3665689149560116
1.348973607038123
1.3313782991202343
1.3147605083088951
1.2991202346041055
1.2834799608993157
1.267839687194526
1.252199413489736
1.2365591397849462
1.2238514173998043
1.2130987292277615
1.2043010752688172
1.1974584555229717
1.1945259042033236
1.1886608015640274
1.1779081133919844
1.1652003910068427
1.1515151515151516
1.13880742913001
1.1290322580645162
1.118279569892473
1.1065493646138806
1.0977517106549364
1.088954056695992
1.083088954056696
1.0801564027370478
1.078201368523949
1.0772238514173995
1.075268817204301
1.0703812316715542
1.0654936461388074
1.0635386119257086
1.0606060606060606
1.0547409579667644
1.050830889540567
1.0488758553274682
1.0488758553274682
1.050830889540567
1.0557184750733135
1.0606060606060606
1.0625610948191593
1.0635386119257086
1.0606060606060606
1.0586510263929618
1.0635386119257086
1.0791788856304985
1.1143695014662756
1.1779081133919844
1.2727272727272727
1.393939393939394
1.517106549364614
1.6480938416422288
1.804496578690127
1.9745845552297163
2.145650048875855
2.3059628543499517
2.450635386119257
2.578690127077224
2.6901270772238512
2.789833822091887
2.875855327468231
2.948191593352884
3.006842619745845
3.0439882697947214
3.0684261974584555
3.09188660801564
3.1114369501466275
3.1251221896383186
3.1300097751710654
3.1270772238514173
3.113391984359726
3.089931573802541
3.056695992179863
3.01564027370479
2.964809384164223
2.90811339198436
2.8455522971652005
2.774193548387097
2.696969696969697
2.613880742913001
2.5347018572825024
2.4604105571847508
2.389051808406647
2.320625610948192
2.2561094819159337
2.196480938416422
2.1436950146627565
2.0948191593352883
2.0527859237536656
2.016617790811339
1.9794721407624636
1.9423264907135875
1.9042033235581624
1.866080156402737
1.8299120234604105
1.796676441837732
1.7644183773216031
1.7331378299120237
1.7018572825024438
1.6715542521994136
1.6451612903225807
1.619745845552297
1.5923753665689149
1.5669599217986314
1.547409579667644
1.5317693059628543
1.5180840664711632
1.5053763440860215
1.495601173020528
1.482893450635386
1.4652981427174976
1.444770283479961
1.4271749755620724
1.4086021505376345
1.3861192570869991
1.3607038123167154
1.335288367546432
1.3128054740957966
1.2942326490713587
1.2727272727272727
1.2512218963831867
1.2326490713587488
1.2160312805474096
1.1994134897360704
1.1837732160312806
1.1720430107526882
1.1622678396871946
1.1534701857282503
1.1495601173020529
1.147605083088954
1.144672531769306
1.13880742913001
1.1329423264907137
1.1241446725317692
1.1114369501466277
1.0977517106549364
1.083088954056696
1.0742913000977516
1.0654936461388074
1.0498533724340176
1.0342130987292275
1.0224828934506354
1.013685239491691
1.0087976539589445
1.0117302052785924
1.0224828934506354
1.0381231671554252
1.0547409579667644
1.0684261974584557
1.0772238514173995
1.083088954056696
1.0879765395894427
1.088954056695992
1.0879765395894427
1.0869990224828934
1.0918866080156402
1.1143695014662756
1.1622678396871946
1.2404692082111437
1.3470185728250244
1.478983382209189
1.6285434995112416
1.7683284457478006
1.8983382209188664
2.040078201368524
2.182795698924731
2.318670576735093
2.443792766373412
2.5562072336265884
2.654936461388074
2.740957966764418
2.812316715542522
2.8690127077223853
2.9120234604105573
2.9423264907135875
2.956011730205278
2.956989247311828
2.956011730205278
2.9501466275659824
2.936461388074292
2.9149560117302054
2.8885630498533725
2.855327468230694
2.814271749755621
2.7614858260019552
2.6989247311827955
2.6285434995112413
2.557184750733138
2.4858260019550342
2.409579667644184
2.3313782991202348
2.259042033235582
2.193548387096774
2.133919843597263
2.081133919843597
2.03128054740958
1.981427174975562
1.9315738025415443
1.8836754643206255
1.8387096774193548
1.7996089931573802
1.7673509286412512
1.7390029325513197
1.715542521994135
1.696969696969697
1.6803519061583578
1.664711632453568
1.6500488758553276
1.632453567937439
1.608993157380254
1.5826001955034212
1.5542521994134897
1.5278592375366569
1.5034213098729228
1.47702834799609
1.4516129032258065
1.4281524926686218
1.4056695992179864
1.3851417399804498
1.3665689149560116
1.346041055718475
1.3255131964809383
1.305962854349951
1.289345063538612
1.2697947214076246
1.2512218963831867
1.2365591397849462
1.2218963831867058
1.2072336265884651
1.1925708699902249
1.1798631476050832
1.1720430107526882
1.166177908113392
1.160312805474096
1.1515151515151516
1.1397849462365592
1.1270772238514175
1.1173020527859236
1.1085043988269794
1.096774193548387
1.086021505376344
1.0772238514173995
1.072336265884653
1.072336265884653
1.075268817204301
1.0811339198435972
1.0840664711632453
1.0850439882697946
1.086021505376344
1.086021505376344
1.086021505376344
1.0821114369501466
1.075268817204301
1.0664711632453567
1.0527859237536656
1.035190615835777
1.0156402737047898
0.9990224828934506
0.9872922776148584
0.9794721407624634
0.9794721407624634
0.9931573802541545
1.021505376344086
1.0664711632453567
1.1368523949169111
1.2365591397849462
1.3626588465298142
1.5112414467253177
1.6774193548387095
1.8494623655913975
2.0175953079178885
2.174975562072336
2.315738025415445
2.439882697947214
2.547409579667644
2.6236559139784945
2.6823069403714563
2.7419354838709675
2.7966764418377323
2.8455522971652005
2.889540566959922
2.927663734115347
2.960899315738025
2.988269794721408
3.0087976539589443
3.026392961876833
3.037145650048876
3.0332355816226784
3.018572825024438
2.9960899315738025
2.9589442815249267
2.90811339198436
2.8455522971652005
2.773216031280548
2.6940371456500487
2.611925708699902
2.527859237536657
2.447702834799609
2.376344086021505
2.30791788856305
2.2482893450635384
2.1974584555229715
2.1485826001955037
2.099706744868035
2.0498533724340176
2.003910068426197
1.956989247311828
1.911045943304008
1.8641251221896384
1.818181818181818
1.775171065493646
1.737047898338221
1.70772238514174
1.6823069403714566
1.6549364613880744
1.629521016617791
1.6041055718475072
1.5806451612903225
1.5581622678396871
1.5347018572825024
1.512218963831867
1.490713587487781
1.469208211143695
1.447702834799609
1.4271749755620724
1.4086021505376345
1.3870967741935485
1.3616813294232648
1.3362658846529814
1.3147605083088951
1.2971652003910068
1.2805474095796676
1.2658846529814272
1.2512218963831867
1.2365591397849462
1.2218963831867058
1.2072336265884651
1.198435972629521
1.1925708699902249
1.181818181818182
1.1691104594330402
1.1564027370478984
1.142717497556207
1.1290322580645162
1.1143695014662756
1.099706744868035
1.0869990224828934
1.0772238514173995
1.0694037145650048
1.0654936461388074
1.0635386119257086
1.0097751710654936
1.010752688172043
1.0195503421309873
1.04594330400782
1.0957966764418376
1.176930596285435
1.29227761485826
1.436950146627566
1.6021505376344083
1.780058651026393
1.9560117302052784
2.102639296187683
2.2297165200391005
2.361681329423265
2.486803519061584
2.5992179863147604
2.699902248289345
2.789833822091887
2.8670576735092865
2.930596285434995
2.983382209188661
3.026392961876833
3.0547409579667644
3.065493646138808
3.065493646138808
3.0439882697947214
3.0087976539589443
2.98435972629521
2.961876832844575
2.9374389051808407
2.90811339198436
2.8699902248289346
2.822091886608016
2.766373411534702
2.7008797653958942
2.627565982404692
2.555229716520039
2.4819159335288368
2.404692082111437
2.329423264907136
2.2580645161290325
2.193548387096774
2.1358748778103616
2.085043988269794
2.035190615835777
1.9872922776148585
1.9413489736070384
1.8963831867057677
1.857282502443793
1.8201368523949168
1.782991202346041
1.7497556207233629
1.7194525904203324
1.6911045943304008
1.6627565982404693
1.635386119257087
1.6080156402737047
1.5806451612903225
1.5532746823069403
1.5288367546432062
1.5063538611925709
1.487781036168133
1.4721407624633431
1.4545454545454546
1.4349951124144673
1.4115347018572826
1.3861192570869991
1.3636363636363635
1.3411534701857282
1.3176930596285434
1.2971652003910068
1.2805474095796676
1.2658846529814272
1.2551319648093842
1.24633431085044
1.2346041055718475
1.2218963831867058
1.2101661779081134
1.1994134897360704
1.187683284457478
1.1749755620723363
1.1622678396871946
1.1485826001955035
1.1348973607038124
1.121212121212121
1.1094819159335287
1.1026392961876832
1.096774193548387
1.0909090909090908
1.0879765395894427
1.086021505376344
1.0821114369501466
1.0762463343108504
1.0703812316715542
1.0635386119257086
1.056695992179863
1.0498533724340176
1.043010752688172
1.0420332355816226
1.0449657869012707
1.0439882697947214
1.0439882697947214
1.04594330400782
1.0478983382209188
1.0527859237536656
1.0586510263929618
1.0635386119257086
1.0635386119257086
1.0606060606060606
1.053763440860215
1.0420332355816226
1.0312805474095796
1.0205278592375366
1.0068426197458455
0.9951124144672532
0.9872922776148584
0.9872922776148584
1.0
1.032258064516129
1.0850439882697946
1.1622678396871946
1.2639296187683284
1.383186705767351
1.498533724340176
1.6177908113391983
1.758553274682307
1.9100684261974583
2.064516129032258
2.21505376344086
2.35386119257087
2.4780058651026398
2.5855327468230693
2.67644183773216
2.748778103616813
2.8054740957966766
2.8475073313782997
2.8699902248289346
2.881720430107527
2.8905180840664717
2.895405669599218
2.8944281524926687
2.886608015640274
2.875855327468231
2.860215053763441
2.8377321603128056
2.809384164222874
2.7751710654936463
2.7311827956989245
2.681329423264907
2.627565982404692
2.5640273704789838
2.4916911045943304
2.4164222873900294
2.3421309872922778
2.2688172043010755
2.2023460410557183
2.1417399804496577
2.0840664711632453
2.0283479960899315
1.9765395894428155
1.9305962854349952
1.8905180840664717
1.855327468230694
1.8191593352883677
1.7810361681329423
1.7448680351906158
1.7116324535679377
1.678396871945259
1.64613880742913
1.616813294232649
1.5884652981427174
1.5620723362658846
1.5395894428152492
1.521994134897361
1.5063538611925709
1.487781036168133
1.4682306940371457
1.4467253176930597
1.4242424242424243
1.3998044965786902
1.3743890518084063
1.3509286412512218
1.3313782991202343
1.3147605083088951
1.2991202346041055
1.2883675464320623
1.2795698924731185
1.2688172043010753
1.2561094819159335
1.2434017595307918
1.2297165200391007
1.2160312805474096
1.2023460410557183
1.1886608015640274
1.1759530791788857
1.1622678396871946
1.1485826001955035
1.1348973607038124
1.1251221896383188
1.1163245356793745
1.029325513196481
1.0263929618768328
1.021505376344086
1.0195503421309873
1.021505376344086
1.0312805474095796
1.0557184750733135
1.1036168132942326
1.1798631476050832
1.2873900293255132
1.4007820136852396
1.521016617790811
1.6705767350928642
1.833822091886608
1.9960899315738023
2.150537634408602
2.2932551319648096
2.4252199413489737
2.5454545454545454
2.6510263929618767
2.740957966764418
2.817204301075269
2.878787878787879
2.917888563049853
2.9393939393939394
2.9550342130987293
2.964809384164223
2.9657869012707723
2.959921798631476
2.948191593352884
2.930596285434995
2.90811339198436
2.8836754643206257
2.8563049853372435
2.8240469208211145
2.7869012707722387
2.7468230694037143
2.697947214076246
2.6392961876832843
2.572825024437928
2.4975562072336266
2.4173998044965788
2.3391984359726297
2.2629521016617797
2.190615835777126
2.126099706744868
2.0664711632453567
2.010752688172043
1.964809384164223
1.924731182795699
1.884652981427175
1.8455522971652003
1.8093841642228736
1.7741935483870968
1.7419354838709675
1.7116324535679377
1.6881720430107527
1.6666666666666667
1.6373411534701858
1.6041055718475072
1.573802541544477
1.5493646138807429
1.5268817204301075
1.5053763440860215
1.4838709677419355
1.4633431085043989
1.4428152492668622
1.4222873900293256
1.4007820136852396
1.3763440860215057
1.35386119257087
1.3362658846529814
1.3206256109481915
1.3088954056695992
1.300097751710655
1.289345063538612
1.2766373411534702
1.2639296187683284
1.2473118279569892
1.2287390029325511
1.2121212121212122
1.1974584555229717
1.1837732160312806
1.1700879765395895
1.1564027370478984
1.1456500488758554
1.1368523949169111
1.1280547409579669
1.1202346041055715
1.1124144672531768
1.1055718475073313
1.0987292277614855
1.0899315738025417
1.0791788856304985
1.0684261974584557
1.0596285434995112
1.0518084066471165
1.0449657869012707
1.0410557184750733
1.0410557184750733
1.0391006842619743
1.035190615835777
1.029325513196481
1.0254154447702837
1.0234604105571847
1.0205278592375366
1.0175953079178883
1.0156402737047898
1.0127077223851415
1.007820136852395
1.0058651026392962
1.0068426197458455
1.0068426197458455
1.0048875855327468
1.0009775171065494
0.9951124144672532
0.989247311827957
0.9824046920821116
0.9794721407624634
0.9833822091886608
0.9990224828934506
1.0332355816226784
1.0909090909090908
1.160312805474096
1.249266862170088
1.3695014662756595
1.512218963831867
1.6695992179863148
1.8318670576735088
1.9902248289345064
2.1407624633431084
2.280547409579668
2.4056695992179864
2.5161290322580645
2.611925708699902
2.681329423264907
2.7311827956989245
2.7781036168132944
2.8181818181818183
2.850439882697948
2.874877810361681
2.8905180840664717
2.895405669599218
2.8905180840664717
2.877810361681329
2.8582600195503423
2.834799608993157
2.811339198435973
2.787878787878788
2.7624633431085046
2.735092864125122
2.7038123167155423
2.6666666666666665
2.6158357771261
2.5464320625610948
2.4545454545454546
2.340175953079179
2.2111436950146626
2.078201368523949
1.9579667644183771
1.8641251221896384
1.796676441837732
1.7497556207233629
1.7233626588465298
1.7067448680351909
1.689149560117302
1.6666666666666667
1.6373411534701858
1.6021505376344083
1.565982404692082
1.533724340175953
1.5053763440860215
1.4809384164222874
1.4623655913978495
1.447702834799609
1.4320625610948192
1.4173998044965788
1.4027370478983383
1.3861192570869991
1.367546432062561
1.3499511241446724
1.3343108504398826
1.3196480938416422
1.3049853372434017
1.289345063538612
1.2766373411534702
1.2668621700879763
1.2551319648093842
1.2424242424242424
1.23069403714565
1.2218963831867058
1.2140762463343109
1.2052785923753666
1.195503421309873
1.1896383186705768
1.1867057673509287
1.1867057673509287
1.1915933528836755
1.198435972629521
1.2052785923753666
1.2111436950146628
1.2140762463343109
1.2150537634408602
1.2160312805474096
1.2160312805474096
1.2160312805474096
1.2111436950146628
1.1915933528836755
1.1466275659824048
1.0635386119257086
0.9657869012707724
0.8494623655913979
0.696969696969697
0.5425219941348973
0.4232649071358749
0.3685239491691104
0.3919843597262952
0.4868035190615836
0.6285434995112414
0.7839687194525904
0.9247311827956988
1.0332355816226784
1.1065493646138806
1.1515151515151516
1.176930596285435
1.1896383186705768
1.1964809384164223
1.1994134897360704
1.1974584555229717
1.1906158357771262
1.1779081133919844
1.160312805474096
1.1407624633431086
1.126099706744868
1.1192570869990224
1.1221896383186705
1.142717497556207
1.1886608015640274
1.2639296187683284
1.3685239491691104
1.499511241446725
1.6520039100684265
1.812316715542522
1.9716520039100685
2.1280547409579667
2.2737047898338223
2.4027370478983383
2.4995112414467253
2.572825024437928
2.6451612903225805
2.70772238514174
2.7595307917888565
2.8025415444770285
2.8377321603128056
2.865102639296188
2.8856304985337244
2.8993157380254155
2.906158357771261
2.906158357771261
2.8993157380254155
2.884652981427175
2.860215053763441
2.83088954056696
2.795698924731183
2.752688172043011
2.699902248289345
2.635386119257087
2.5640273704789838
2.486803519061584
2.404692082111437
2.3225806451612905
2.2453567937438903
2.1818181818181817
2.1280547409579667
2.074291300097752
2.0234604105571847
1.9775171065493649
1.9364613880742916
1.8993157380254155
1.8602150537634408
1.8201368523949168
1.7849462365591398
1.75366568914956
1.7233626588465298
1.6911045943304008
1.6627565982404693
1.6383186705767352
1.6129032258064515
1.5865102639296187
1.5581622678396871
1.530791788856305
1.5073313782991202
1.4848484848484849
1.4643206256109482
1.4418377321603129
1.4173998044965788
1.392961876832845
1.3743890518084063
1.3577712609970674
1.3411534701857282
1.324535679374389
1.305962854349951
1.2854349951124144
1.2649071358748778
1.2443792766373412
1.2238514173998043
1.2072336265884651
1.1915933528836755
1.1788856304985338
1.1691104594330402
1.164222873900293
1.160312805474096
1.2795698924731185
1.4613880742913
1.5483870967741935
1.5894428152492668
1.6080156402737047
1.6129032258064515
1.611925708699902
1.608993157380254
1.6050830889540566
1.6001955034213098
1.5972629521016617
1.5962854349951123
1.5933528836754642
1.590420332355816
1.587487781036168
1.5865102639296187
1.585532746823069
1.585532746823069
1.5865102639296187
1.5884652981427174
1.590420332355816
1.590420332355816
1.587487781036168
1.587487781036168
1.590420332355816
1.590420332355816
1.590420332355816
1.5913978494623655
1.5923753665689149
1.5923753665689149
1.5933528836754642
1.598240469208211
1.6080156402737047
1.629521016617791
1.6686217008797657
1.7165200391006843
1.7781036168132942
1.8621700879765395
1.963831867057673
2.0772238514174
2.1955034213098727
2.3118279569892475
2.4242424242424243
2.529814271749756
2.625610948191593
2.7096774193548385
2.7839687194525906
2.8475073313782997
2.89247311827957
2.9237536656891496
2.952101661779081
2.9745845552297165
2.989247311827957
2.997067448680352
2.997067448680352
2.991202346041056
2.9804496578690127
2.964809384164223
2.946236559139785
2.9237536656891496
2.8993157380254155
2.8719452590420333
2.8377321603128056
2.7976539589442817
2.7517106549364616
2.6989247311827955
2.643206256109482
2.5855327468230693
2.527859237536657
2.4731182795698925
2.423264907135875
2.378299120234604
2.337243401759531
2.304985337243402
2.2766373411534704
2.2453567937438903
2.2130987292277613
2.179863147605083
2.150537634408602
2.124144672531769
2.0987292277614857
2.071358748778104
2.042033235581622
2.0127077223851417
1.9833822091886608
1.959921798631476
1.9393939393939397
1.9178885630498532
1.8993157380254155
1.8866080156402736
1.87683284457478
1.8699902248289344
1.8641251221896384
1.858260019550342
1.8504398826979471
1.8387096774193548
1.8240469208211143
1.8103616813294232
1.796676441837732
1.7790811339198436
1.7605083088954057
1.7409579667644184
1.7204301075268815
1.7018572825024438
1.6842619745845553
1.667644183773216
1.6529814271749756
1.6422287390029326
1.6344086021505375
1.6275659824046922
1.624633431085044
1.624633431085044
1.6226783968719452
1.6207233626588464
1.6177908113391983
1.6138807429130009
1.6099706744868034
1.6050830889540566
1.6001955034213098
1.5962854349951123
1.5933528836754642
1.5894428152492668
1.587487781036168
1.5865102639296187
1.585532746823069
1.585532746823069
1.5826001955034212
1.5806451612903225
1.5796676441837731
1.576735092864125
1.5728250244379276
1.56891495601173
1.5650048875855327
1.563049853372434
1.564027370478983
1.5669599217986314
1.5708699902248289
1.5728250244379276
1.5708699902248289
1.5679374389051808
1.563049853372434
1.5562072336265884
1.5464320625610948
1.5376344086021505
1.5347018572825024
1.543499511241447
1.5708699902248289
1.6099706744868034
1.664711632453568
1.7448680351906158
1.844574780058651
1.9608993157380252
2.0879765395894427
2.21505376344086
2.3382209188660803
2.452590420332356
2.5562072336265884
2.64613880742913
2.7223851417399803
2.7859237536656893
2.83088954056696
2.86217008797654
2.8905180840664717
2.913000977517106
2.927663734115347
2.936461388074292
2.941348973607038
2.943304007820137
2.9442815249266863
2.945259042033236
2.9423264907135875
2.9345063538611926
2.921798631476051
2.9042033235581624
2.8797653958944283
2.84652981427175
2.8054740957966766
2.7565982404692084
2.6989247311827955
2.635386119257087
2.5698924731182795
2.5083088954056696
2.4516129032258065
2.396871945259042
2.347018572825025
2.3059628543499517
2.274682306940372
2.2453567937438903
2.217986314760508
2.190615835777126
2.161290322580645
2.133919843597263
2.10850439882698
2.083088954056696
2.058651026392962
2.0332355816226784
2.006842619745845
1.9833822091886608
1.963831867057673
1.945259042033236
1.9257086999022484
1.9071358748778104
1.8905180840664717
1.873900293255132
1.858260019550342
1.842619745845552
1.8269794721407624
1.812316715542522
1.8005865102639296
1.7888563049853372
1.7810361681329423
1.7741935483870968
1.7653958944281525
1.7565982404692082
1.7458455522971652
1.732160312805474
1.7165200391006843
1.7008797653958945
1.686217008797654
1.6715542521994136
1.6578690127077225
1.6471163245356797
1.640273704789834
1.635386119257087
1.6304985337243405
1.6256109481915937
1.6207233626588464
1.6158357771260996
1.6109481915933528
1.606060606060606
1.6001955034213098
1.595307917888563
1.590420332355816
1.58455522971652
1.5796676441837731
1.576735092864125
1.5757575757575757
1.5728250244379276
1.56891495601173
1.564027370478983
1.560117302052786
1.5571847507331378
1.5532746823069403
1.5503421309872922
1.5483870967741935
1.5464320625610948
1.542521994134897
1.5405669599217986
1.5395894428152492
1.5366568914956011
1.5347018572825024
1.533724340175953
1.533724340175953
1.533724340175953
1.530791788856305
1.5268817204301075
1.3919843597262953
1.1945259042033236
1.1006842619745845
1.0713587487781036
1.083088954056696
1.1231671554252198
1.1964809384164223
1.303030303030303
1.434017595307918
1.581622678396872
1.7429130009775171
1.905180840664712
2.060606060606061
2.210166177908113
2.350928641251222
2.47702834799609
2.572825024437928
2.6480938416422286
2.724340175953079
2.791788856304985
2.84652981427175
2.8856304985337244
2.9100684261974585
2.920821114369501
2.919843597262952
2.909090909090909
2.8914956011730206
2.8699902248289346
2.843597262952102
2.8132942326490715
2.7810361681329425
2.7438905180840663
2.7008797653958942
2.652003910068426
2.5943304007820136
2.529814271749756
2.4594330400782014
2.386119257086999
2.312805474095797
2.241446725317693
2.1710654936461387
2.10850439882698
2.050830889540567
1.994134897360704
1.9423264907135875
1.8914956011730208
1.847507331378299
1.8113391984359728
1.7790811339198436
1.750733137829912
1.7282502443792769
1.710654936461388
1.6950146627565983
1.6793743890518085
1.6686217008797657
1.6627565982404693
1.656891495601173
1.6471163245356797
1.635386119257087
1.6187683284457477
1.598240469208211
1.5747800586510263
1.5454545454545454
1.5131964809384164
1.479960899315738
1.4467253176930597
1.4173998044965788
1.392961876832845
1.3665689149560116
1.3391984359726294
1.3118279569892473
1.284457478005865
1.260019550342131
1.241446725317693
1.224828934506354
