ppg
2.2873900293255134
2.44672531769306
2.601173020527859
2.7390029325513194
2.855327468230694
2.948191593352884
3.016617790811339
3.065493646138808
3.096774193548387
3.115347018572825
3.1221896383186705
3.1192570869990224
3.10752688172043
3.090909090909091
3.0733137829912023
3.0547409579667644
3.0361681329423265
3.016617790811339
2.9960899315738025
2.975562072336266
2.9530791788856305
2.9286412512218964
2.902248289345064
2.8729227761485827
2.8406647116324537
2.806451612903226
2.768328445747801
2.7262952101661777
2.679374389051808
2.6285434995112413
2.5718475073313782
2.509286412512219
2.439882697947214
2.3626588465298144
2.27761485826002
2.1867057673509285
2.09188660801564
2.007820136852395
1.9335288367546437
1.8592375366568916
1.7947214076246334
1.7419354838709675
1.7028347996089932
1.6774193548387095
1.6627565982404693
1.6559139784946235
1.6520039100684265
1.6490713587487782
1.6451612903225807
1.6422287390029326
1.6383186705767352
1.6314760508308896
1.6226783968719452
1.6109481915933528
1.5972629521016617
1.5826001955034212
1.565982404692082
1.547409579667644
1.5288367546432062
1.512218963831867
1.4946236559139785
1.458455522971652
1.4164222873900294
1.391006842619746
1.370478983382209
1.3528836754643203
1.33822091886608
1.3255131964809383
1.3147605083088951
1.3079178885630498
1.303030303030303
1.300097751710655
1.2991202346041055
1.300097751710655
1.3020527859237536
1.3049853372434017
1.305962854349951
1.3069403714565004
1.3088954056695992
1.3118279569892473
1.3157380254154447
1.3196480938416422
1.3235581622678396
1.3284457478005864
1.335288367546432
1.3421309872922775
1.3499511241446724
1.3577712609970674
1.364613880742913
1.370478983382209
1.3743890518084063
1.3782991202346042
1.3822091886608017
1.3870967741935485
1.3919843597262953
1.3978494623655917
1.4037145650048877
1.409579667644184
1.41544477028348
1.4213098729227762
1.4252199413489737
1.426197458455523
1.423264907135875
1.4173998044965788
1.412512218963832
1.4134897360703813
1.4271749755620724
1.4613880742913
1.52297165200391
1.6148582600195502
1.7360703812316716
1.881720430107527
2.018572825024438
2.1495601173020527
2.294232649071359
2.4330400782013686
2.5562072336265884
2.658846529814272
2.7370478983382207
2.792766373411535
2.8299120234604107
2.8514173998044967
2.860215053763441
2.859237536656892
2.8484848484848486
2.831867057673509
2.8152492668621703
2.7976539589442817
2.780058651026393
2.7624633431085046
2.745845552297165
2.7282502443792764
2.7096774193548385
2.6911045943304006
2.6715542521994133
2.650048875855328
2.627565982404692
2.603128054740958
2.576735092864125
2.547409579667644
2.515151515151515
2.479960899315738
2.4408602150537635
2.3958944281524928
2.346041055718475
2.289345063538612
2.2238514173998043
2.150537634408602
2.069403714565005
1.994134897360704
1.920821114369501
1.8406647116324533
1.7624633431085044
1.6930596285434996
1.6363636363636365
1.5943304007820136
1.5669599217986314
1.5513196480938416
1.5454545454545454
1.544477028347996
1.5454545454545454
1.5454545454545454
1.5454545454545454
1.543499511241447
1.5376344086021505
1.5278592375366569
1.5161290322580645
1.5024437927663734
1.487781036168133
1.4721407624633431
1.455522971652004
1.4379276637341154
1.4203323558162269
1.4027370478983383
1.3890518084066472
1.3773216031280548
1.364613880742913
1.3519061583577712
1.3391984359726294
1.327468230694037
1.3176930596285434
1.3088954056695992
1.303030303030303
1.2991202346041055
1.2971652003910068
1.2971652003910068
1.2981427174975562
1.300097751710655
1.303030303030303
1.3040078201368523
1.3049853372434017
1.305962854349951
1.3088954056695992
1.3118279569892473
1.3147605083088951
1.316715542521994
1.3186705767350928
1.3206256109481915
1.3235581622678396
1.3264907135874875
1.3313782991202343
1.335288367546432
1.3401759530791788
1.3470185728250244
1.3548387096774193
1.3626588465298142
1.3714565004887584
1.3812316715542523
1.391006842619746
1.4007820136852396
1.4105571847507332
1.4193548387096775
1.4252199413489737
1.4281524926686218
1.4281524926686218
1.4252199413489737
1.4193548387096775
1.412512218963832
1.4105571847507332
1.4203323558162269
1.4496578690127078
1.5063538611925709
1.5923753665689149
1.70772238514174
1.826001955034213
1.948191593352884
2.0928641251221896
2.242424242424242
2.3812316715542523
2.501466275659824
2.5992179863147604
2.6715542521994133
2.721407624633431
2.752688172043011
2.768328445747801
2.7722385141739982
2.766373411534702
2.7536656891495603
2.739980449657869
2.724340175953079
2.708699902248289
2.6911045943304006
2.674486803519061
2.6578690127077222
2.641251221896383
2.625610948191593
2.6099706744868034
2.5943304007820136
2.5777126099706744
2.5591397849462365
1.3714565004887584
1.5356793743890518
1.7302052785923754
1.9423264907135875
2.158357771260997
2.363636363636364
2.548387096774193
2.7038123167155423
2.8260019550342133
2.9071358748778104
2.9579667644183774
2.9980449657869013
3.0234604105571847
3.035190615835777
3.0361681329423265
3.0283479960899315
3.0146627565982405
2.997067448680352
2.9765395894428157
2.95405669599218
2.930596285434995
2.90811339198436
2.8826979472140764
2.855327468230694
2.8289345063538613
2.8025415444770285
2.774193548387097
2.7419354838709675
2.7067448680351904
2.6666666666666665
2.621700879765396
2.5718475073313782
2.5180840664711632
2.4604105571847508
2.403714565004888
2.343108504398827
2.269794721407625
2.1847507331378297
2.088954056695992
1.9833822091886608
1.871945259042033
1.7605083088954057
1.6559139784946235
1.564027370478983
1.4897360703812317
1.434017595307918
1.396871945259042
1.375366568914956
1.364613880742913
1.359726295210166
1.356793743890518
1.3558162267839686
1.35386119257087
1.348973607038123
1.3401759530791788
1.3294232649071358
1.3157380254154447
1.2991202346041055
1.2805474095796676
1.262952101661779
1.24633431085044
1.224828934506354
1.2023460410557183
1.1779081133919844
1.1534701857282503
1.1300097751710656
1.1085043988269794
1.0869990224828934
1.067448680351906
1.0488758553274682
1.032258064516129
1.0175953079178883
1.0087976539589445
1.0039100684261977
0.9980449657869012
0.9921798631476052
0.9882697947214076
0.9843597262952102
0.981427174975562
0.9794721407624634
0.9804496578690128
0.9824046920821116
0.9843597262952102
0.9863147605083088
0.9902248289345064
0.9960899315738024
1.0
1.002932551319648
1.0058651026392962
1.0087976539589445
1.0127077223851415
1.099706744868035
1.227761485826002
1.2942326490713587
1.3304007820136852
1.3519061583577712
1.3665689149560116
1.3792766373411536
1.3900293255131966
1.3988269794721409
1.4056695992179864
1.4115347018572826
1.41544477028348
1.41544477028348
1.4115347018572826
1.4037145650048877
1.3900293255131966
1.3714565004887584
1.3479960899315735
1.3284457478005864
1.3128054740957966
1.3020527859237536
1.3049853372434017
1.3313782991202343
1.3861192570869991
1.4721407624633431
1.5865102639296187
1.7204301075268815
1.865102639296188
2.0087976539589443
2.1417399804496577
2.2453567937438903
2.324535679374389
2.3949169110459434
2.4516129032258065
2.49266862170088
2.5210166177908118
2.5386119257087
2.5464320625610948
2.547409579667644
2.5434995112414467
2.5347018572825024
2.52297165200391
2.5083088954056696
2.490713587487781
2.4701857282502444
2.449657869012708
2.4271749755620724
2.403714565004888
2.380254154447703
2.3548387096774195
2.3274682306940373
2.2981427174975564
2.264907135874878
2.228739002932551
2.187683284457478
2.1485826001955037
2.10752688172043
2.0576735092864125
2.0
1.9345063538611929
1.86119257086999
1.780058651026393
1.6920821114369502
1.5992179863147604
1.504398826979472
1.414467253176931
1.3333333333333333
1.2649071358748778
1.217008797653959
1.1857282502443791
1.160312805474096
1.1436950146627567
1.133919843597263
1.1300097751710656
1.1280547409579669
1.1270772238514175
1.126099706744868
1.1231671554252198
1.1202346041055715
1.1163245356793745
1.115347018572825
1.1163245356793745
1.1143695014662756
1.1114369501466277
1.1085043988269794
1.1055718475073313
1.1016617790811338
1.096774193548387
1.0918866080156402
1.0850439882697946
1.0762463343108504
1.0654936461388074
1.053763440860215
1.04594330400782
1.0391006842619743
1.0303030303030305
1.0195503421309873
1.007820136852395
0.9980449657869012
0.9882697947214076
0.9804496578690128
0.9736070381231672
0.9687194525904204
0.9648093841642228
0.9618768328445748
0.9618768328445748
0.9648093841642228
0.9657869012707724
0.9648093841642228
0.9628543499511242
0.9618768328445748
0.9638318670576737
0.9667644183773216
0.9706744868035192
0.9745845552297164
0.9804496578690128
0.9872922776148584
0.9951124144672532
1.0048875855327468
1.0175953079178883
1.0303030303030305
1.0420332355816226
1.0547409579667644
1.0684261974584557
1.0821114369501466
1.096774193548387
1.1124144672531768
1.1270772238514175
1.1397849462365592
1.1495601173020529
1.160312805474096
1.1710654936461389
1.1867057673509287
1.2140762463343109
1.2609970674486803
1.335288367546432
1.4408602150537635
1.5777126099706744
1.7419354838709675
1.9237536656891496
2.110459433040078
2.291300097751711
2.455522971652004
2.5806451612903225
2.673509286412512
2.757575757575758
2.825024437927664
2.874877810361681
2.909090909090909
2.9315738025415445
2.9442815249266863
2.9472140762463344
2.9442815249266863
2.9345063538611926
2.919843597262952
2.900293255131965
2.87683284457478
2.852394916911046
2.8269794721407626
2.80058651026393
2.7722385141739982
2.7419354838709675
2.708699902248289
2.6715542521994133
2.631476050830889
2.587487781036168
2.5386119257087
2.482893450635386
2.4271749755620724
2.3685239491691106
2.297165200391007
2.2160312805474094
2.1270772238514173
2.03128054740958
1.9335288367546437
1.8387096774193548
1.750733137829912
1.6744868035190617
1.6158357771260996
1.5728250244379276
1.5454545454545454
1.5298142717497556
1.520039100684262
1.5151515151515151
1.5131964809384164
1.5112414467253177
1.5073313782991202
1.501466275659824
1.495601173020528
1.4887585532746823
1.4819159335288368
1.4731182795698925
1.4633431085043989
1.456500488758553
1.4496578690127078
1.4408602150537635
1.4301075268817205
1.418377321603128
1.4056695992179864
1.391006842619746
1.375366568914956
1.3587487781036167
1.3401759530791788
1.3206256109481915
1.300097751710655
1.284457478005865
1.270772238514174
1.2541544477028348
1.2365591397849462
1.2209188660801564
1.2052785923753666
1.1906158357771262
1.176930596285435
1.1652003910068427
1.155425219941349
1.147605083088954
1.141739980449658
1.1358748778103618
1.133919843597263
1.1358748778103618
1.1368523949169111
1.13880742913001
1.142717497556207
1.1485826001955035
1.155425219941349
1.1622678396871946
1.1691104594330402
1.1749755620723363
1.181818181818182
1.1886608015640274
1.198435972629521
1.2101661779081134
1.2209188660801564
1.2316715542521994
1.2443792766373412
1.2590420332355816
1.2746823069403714
1.289345063538612
1.303030303030303
1.3147605083088951
1.3235581622678396
1.3284457478005864
1.3333333333333333
1.3401759530791788
1.3519061583577712
1.3763440860215057
1.4242424242424243
1.5024437927663734
1.6148582600195502
1.7595307917888563
1.9305962854349952
2.115347018572825
2.303030303030303
2.479960899315738
2.636363636363636
2.7536656891495603
2.850439882697948
2.943304007820137
3.0117302052785924
3.058651026392962
3.0879765395894427
3.103616813294233
3.10752688172043
3.102639296187683
3.09188660801564
3.0772238514174
3.059628543499511
3.038123167155425
3.013685239491691
2.988269794721408
2.961876832844575
2.9345063538611926
2.9042033235581624
2.8719452590420333
2.8367546432062563
2.7996089931573804
2.7595307917888565
2.7155425219941347
2.667644183773216
2.6148582600195502
2.563049853372434
2.509286412512219
2.444770283479961
2.3704789833822093
2.286412512218964
2.193548387096774
2.0928641251221896
1.988269794721408
1.8836754643206255
1.782991202346041
1.6911045943304008
1.611925708699902
1.5542521994134897
1.5141739980449658
1.482893450635386
1.4604105571847508
1.444770283479961
1.434017595307918
1.4252199413489737
1.4164222873900294
1.4086021505376345
1.4007820136852396
1.392961876832845
1.3861192570869991
1.380254154447703
1.3773216031280548
1.3773216031280548
1.3743890518084063
1.370478983382209
1.3655913978494625
1.359726295210166
1.3528836754643203
1.346041055718475
1.3391984359726294
1.3313782991202343
1.3235581622678396
1.3157380254154447
1.310850439882698
1.3069403714565004
1.3010752688172045
1.2942326490713587
1.2864125122189638
1.278592375366569
1.2717497556207231
1.2658846529814272
1.2609970674486803
1.2580645161290325
1.2551319648093842
1.2531769305962854
1.2512218963831867
1.252199413489736
1.2561094819159335
1.2590420332355816
1.2609970674486803
1.262952101661779
1.2658846529814272
1.270772238514174
1.2766373411534702
1.2834799608993157
1.2913000977517106
1.2991202346041055
1.3079178885630498
1.316715542521994
1.3264907135874875
1.335288367546432
1.343108504398827
1.3499511241446724
1.3577712609970674
1.3665689149560116
1.3773216031280548
1.3890518084066472
1.3988269794721409
1.4076246334310851
1.412512218963832
1.41544477028348
1.418377321603128
1.4242424242424243
1.436950146627566
1.4643206256109482
1.5161290322580645
1.598240469208211
1.7135874877810362
1.8602150537634408
2.03128054740958
2.21505376344086
2.398826979472141
2.5718475073313782
2.70772238514174
2.814271749755621
2.913978494623656
2.99902248289345
3.0664711632453567
3.1163245356793743
3.150537634408602
3.1710654936461387
3.1818181818181817
3.1837732160312804
3.179863147605083
3.1710654936461387
3.1593352883675463
3.142717497556207
3.1221896383186705
3.102639296187683
3.0821114369501466
3.059628543499511
3.034213098729228
3.006842619745845
2.9775171065493646
2.945259042033236
2.9100684261974585
2.8729227761485827
2.832844574780059
2.791788856304985
2.748778103616813
2.7008797653958942
2.6471163245356792
2.5865102639296187
2.5180840664711632
2.4408602150537635
2.35386119257087
2.259042033235582
2.161290322580645
2.0635386119257086
1.9726295210166176
1.8944281524926687
1.836754643206256
1.7947214076246334
1.761485826001955
1.739980449657869
1.7272727272727273
1.7194525904203324
1.7135874877810362
1.7086999022482894
1.7018572825024438
1.6930596285434996
1.6813294232649072
1.6686217008797657
1.6578690127077225
1.6471163245356797
1.632453567937439
1.616813294232649
1.6001955034213098
1.581622678396872
1.563049853372434
1.544477028347996
1.5268817204301075
1.509286412512219
1.4926686217008798
1.47702834799609
1.4633431085043989
1.4535679374389052
1.4457478005865103
1.436950146627566
1.4291300097751711
1.4222873900293256
1.4173998044965788
1.414467253176931
1.4134897360703813
1.4134897360703813
1.414467253176931
1.4173998044965788
1.4203323558162269
1.4252199413489737
1.43108504398827
1.435972629521017
1.4418377321603129
1.447702834799609
1.4545454545454546
1.4613880742913
1.466275659824047
1.4701857282502444
1.4750733137829912
1.478983382209189
1.482893450635386
1.4868035190615836
1.4916911045943304
1.4965786901270772
1.500488758553275
1.504398826979472
1.5083088954056696
1.512218963831867
1.5151515151515151
1.5180840664711632
1.520039100684262
1.521994134897361
1.52297165200391
1.521994134897361
1.521016617790811
1.521016617790811
1.521994134897361
1.530791788856305
1.5542521994134897
1.6021505376344083
1.6793743890518085
1.7888563049853372
1.927663734115347
2.0879765395894427
2.259042033235582
2.429130009775171
2.567937438905181
2.681329423264907
2.790811339198436
2.8836754643206257
2.956989247311828
3.0117302052785924
3.047898338220919
3.067448680351906
3.075268817204301
3.074291300097752
3.0664711632453567
3.053763440860215
3.038123167155425
3.0195503421309877
2.9980449657869013
2.9775171065493646
2.9589442815249267
2.941348973607038
2.9227761485826003
2.9042033235581624
2.8836754643206257
2.863147605083089
2.8406647116324537
2.81622678396872
2.788856304985337
2.758553274682307
2.7262952101661777
2.6901270772238512
2.650048875855328
2.6041055718475072
2.552297165200391
2.4916911045943304
2.421309872922776
2.2873900293255134
2.117302052785924
1.9833822091886608
1.8699902248289344
1.7702834799608993
1.6930596285434996
1.6344086021505375
1.58455522971652
1.547409579667644
1.521994134897361
1.5083088954056696
1.501466275659824
1.4975562072336266
1.495601173020528
1.4916911045943304
1.4858260019550342
1.4760508308895406
1.466275659824047
1.4545454545454546
1.4379276637341154
1.4193548387096775
1.3988269794721409
1.3773216031280548
1.3558162267839686
1.3343108504398826
1.3118279569892473
1.289345063538612
1.2658846529814272
1.2434017595307918
1.2238514173998043
1.209188660801564
1.1974584555229717
1.18475073313783
1.1730205278592376
1.163245356793744
1.155425219941349
1.1485826001955035
1.1436950146627567
1.1407624633431086
1.1397849462365592
1.1397849462365592
1.141739980449658
1.1456500488758554
1.1515151515151516
1.1564027370478984
1.160312805474096
1.164222873900293
1.1671554252199414
1.1700879765395895
1.173998044965787
1.1779081133919844
1.1827956989247312
1.1896383186705768
1.198435972629521
1.2082111436950147
1.2189638318670577
1.2297165200391007
1.238514173998045
1.2473118279569892
1.2551319648093842
1.2619745845552297
1.267839687194526
1.2717497556207231
1.273704789833822
1.273704789833822
1.270772238514174
1.2639296187683284
1.2561094819159335
1.24633431085044
1.2316715542521994
1.2150537634408602
1.203323558162268
1.203323558162268
1.2228739002932552
1.270772238514174
1.3509286412512218
1.4623655913978495
1.6011730205278591
1.7556207233626588
1.9159335288367547
2.050830889540567
2.163245356793744
2.271749755620724
2.3655913978494625
2.4389051808406648
2.49266862170088
2.527859237536657
2.548387096774193
2.557184750733138
2.557184750733138
2.5513196480938416
2.541544477028348
2.5268817204301075
2.509286412512219
2.493646138807429
2.4780058651026398
2.462365591397849
2.4457478005865103
2.4281524926686218
2.409579667644184
2.389051808406647
2.367546432062561
2.3440860215053765
2.317693059628544
2.2883675464320627
2.2580645161290325
2.225806451612903
2.188660801564027
2.1485826001955037
2.102639296187683
2.0498533724340176
1.9902248289345064
1.9227761485826005
1.8494623655913975
1.7702834799608993
1.686217008797654
1.603128054740958
1.5317693059628543
1.4711632453567938
1.41544477028348
1.370478983382209
1.3391984359726294
1.3225806451612905
1.3196480938416422
1.324535679374389
1.3343108504398826
1.3450635386119256
1.3528836754643203
1.356793743890518
1.356793743890518
1.3558162267839686
1.3528836754643203
1.3470185728250244
1.33822091886608
1.3284457478005864
1.316715542521994
1.3049853372434017
1.2942326490713587
1.2834799608993157
1.2727272727272727
1.2619745845552297
1.2512218963831867
1.2434017595307918
1.2375366568914956
1.2326490713587488
1.227761485826002
1.2228739002932552
1.2189638318670577
1.217008797653959
1.217008797653959
1.2189638318670577
1.2218963831867058
1.224828934506354
1.227761485826002
1.2287390029325511
1.23069403714565
1.2326490713587488
1.2326490713587488
1.2326490713587488
1.2326490713587488
1.2316715542521994
1.23069403714565
1.2297165200391007
1.2297165200391007
1.2297165200391007
1.2297165200391007
1.23069403714565
1.2336265884652982
1.2375366568914956
1.2404692082111437
1.2424242424242424
1.2453567937438903
1.2473118279569892
1.249266862170088
1.252199413489736
1.2551319648093842
1.2580645161290325
1.260019550342131
1.260019550342131
1.260019550342131
1.2590420332355816
1.2551319648093842
1.249266862170088
1.24633431085044
1.2531769305962854
1.2766373411534702
1.324535679374389
1.4027370478983383
1.5131964809384164
1.6520039100684265
1.812316715542522
1.981427174975562
2.1270772238514173
2.2502443792766376
2.3734115347018574
2.479960899315738
2.5640273704789838
2.624633431085044
2.6637341153470184
2.686217008797654
2.6930596285435
2.6901270772238512
2.679374389051808
2.6637341153470184
2.644183773216031
2.622678396871945
2.6021505376344085
2.582600195503421
2.5640273704789838
2.547409579667644
2.530791788856305
2.5141739980449658
2.4975562072336266
2.479960899315738
2.4604105571847508
2.4389051808406648
2.41544477028348
2.391006842619746
2.363636363636364
2.332355816226784
2.2981427174975564
2.259042033235582
2.2140762463343107
2.1622678396871944
2.101661779081134
2.032258064516129
1.95405669599218
1.869012707722385
1.780058651026393
1.7008797653958945
1.6314760508308896
1.5610948191593352
1.499511241446725
1.4506353861192571
1.41544477028348
1.393939393939394
1.3822091886608017
1.3773216031280548
1.375366568914956
1.3724340175953078
1.3685239491691104
1.3616813294232648
1.3548387096774193
1.346041055718475
1.332355816226784
1.3157380254154447
1.2961876832844574
1.2746823069403714
1.2531769305962854
1.2316715542521994
1.2101661779081134
1.1896383186705768
1.1691104594330402
1.1495601173020529
1.1348973607038124
1.1221896383186705
1.0821114369501466
1.029325513196481
0.9960899315738024
0.9736070381231672
0.9579667644183774
0.9472140762463344
0.9393939393939394
0.9345063538611924
0.9315738025415444
0.9305962854349952
0.9325513196480938
0.93841642228739
0.946236559139785
0.9521016617790812
0.9589442815249268
0.9648093841642228
0.9706744868035192
0.9775171065493646
0.9863147605083088
0.9941348973607038
1.0019550342130987
1.010752688172043
1.021505376344086
1.0342130987292275
1.0469208211143697
1.0606060606060606
1.0742913000977516
1.088954056695992
1.1055718475073313
1.1231671554252198
1.141739980449658
1.1593352883675463
1.1749755620723363
1.1886608015640274
1.2003910068426198
1.2082111436950147
1.2140762463343109
1.217008797653959
1.2130987292277615
1.2052785923753666
1.1974584555229717
1.1974584555229717
1.2160312805474096
1.2619745845552297
1.343108504398827
1.4643206256109482
1.6236559139784943
1.8132942326490715
1.9902248289345064
2.157380254154448
2.337243401759531
2.50733137829912
2.652003910068426
2.766373411534702
2.849462365591398
2.905180840664712
2.9374389051808407
2.951124144672532
2.9501466275659824
2.93841642228739
2.919843597262952
2.895405669599218
2.8699902248289346
2.844574780058651
2.8211143695014664
2.798631476050831
2.777126099706745
2.755620723362659
2.7341153470185726
2.7126099706744866
2.689149560117302
2.665689149560117
2.641251221896383
2.6129032258064515
2.582600195503421
2.548387096774193
2.5102639296187683
2.4672531769305963
2.419354838709677
2.363636363636364
2.3010752688172045
2.2297165200391005
2.147605083088954
2.053763440860215
1.9501466275659824
1.8387096774193548
1.7390029325513197
1.6480938416422288
1.5542521994134897
1.469208211143695
1.4007820136852396
1.3509286412512218
1.3196480938416422
1.3049853372434017
1.3010752688172045
1.3020527859237536
1.3049853372434017
1.3069403714565004
1.3079178885630498
1.3069403714565004
1.300097751710655
1.2873900293255132
1.2697947214076246
1.2502443792766371
1.227761485826002
1.2023460410557183
1.1759530791788857
1.1485826001955035
1.1202346041055715
1.0918866080156402
1.0635386119257086
1.0410557184750733
1.0234604105571847
1.0039100684261977
0.9853372434017597
0.967741935483871
0.9521016617790812
0.93841642228739
0.9266862170087976
0.916911045943304
0.9100684261974584
0.9042033235581622
0.9002932551319648
0.9002932551319648
0.9032258064516128
0.906158357771261
0.9090909090909092
0.9120234604105572
0.9149560117302052
0.9178885630498532
0.9217986314760508
0.9266862170087976
0.9315738025415444
0.9374389051808406
0.9452590420332356
0.95405669599218
0.9657869012707724
0.978494623655914
0.9912023460410556
1.0058651026392962
1.0224828934506354
