ppg
1.640273704789834
1.6451612903225807
1.640273704789834
1.6383186705767352
1.635386119257087
1.6275659824046922
1.6138807429130009
1.5933528836754642
1.5650048875855327
1.5298142717497556
1.490713587487781
1.4496578690127078
1.4076246334310851
1.367546432062561
1.3284457478005864
1.2971652003910068
1.270772238514174
1.24633431085044
1.227761485826002
1.217008797653959
1.2140762463343109
1.2218963831867058
1.2375366568914956
1.2609970674486803
1.2864125122189638
1.3118279569892473
1.3401759530791788
1.3685239491691104
1.4056695992179864
1.4643206256109482
1.555229716520039
1.6852394916911049
1.8602150537634408
2.0733137829912023
2.3098729227761488
2.5513196480938416
2.779081133919844
2.9745845552297165
3.1251221896383186
3.2238514173998043
3.270772238514174
3.272727272727273
3.241446725317693
3.179863147605083
3.093841642228739
2.989247311827957
2.8729227761485827
2.7497556207233624
2.624633431085044
2.5004887585532747
2.3792766373411536
2.2629521016617797
2.164222873900293
2.0772238514174
1.9872922776148585
1.8973607038123168
1.8093841642228736
1.721407624633431
1.6314760508308896
1.5405669599217986
1.4506353861192571
1.3616813294232648
1.2795698924731185
1.2082111436950147
1.1485826001955035
1.1085043988269794
1.083088954056696
1.0664711632453567
1.06158357771261
1.067448680351906
1.0840664711632453
1.1085043988269794
1.1378299120234605
1.1691104594330402
1.2013685239491692
1.2326490713587488
1.2609970674486803
1.284457478005865
1.3020527859237536
1.313782991202346
1.3196480938416422
1.3196480938416422
1.313782991202346
1.3040078201368523
1.2903225806451613
1.2746823069403714
1.2570869990224829
1.2404692082111437
1.227761485826002
1.2209188660801564
1.219941348973607
1.2218963831867058
1.2267839687194526
1.2346041055718475
1.2453567937438903
1.2561094819159335
1.2649071358748778
1.270772238514174
1.270772238514174
1.2688172043010753
1.2688172043010753
1.2805474095796676
1.305962854349951
1.3528836754643203
1.439882697947214
1.5728250244379276
1.7497556207233629
1.9618768328445748
2.1945259042033234
2.4281524926686218
2.644183773216031
2.8269794721407626
2.964809384164223
3.0547409579667644
3.0977517106549364
3.1006842619745845
3.072336265884653
3.0175953079178885
2.940371456500489
2.844574780058651
2.736070381231672
2.619745845552297
2.496578690127077
2.3704789833822093
2.2453567937438903
2.124144672531769
2.007820136852395
1.911045943304008
1.827956989247312
1.7429130009775171
1.66177908113392
1.5865102639296187
1.517106549364614
1.4545454545454546
1.396871945259042
1.3440860215053765
1.2961876832844574
1.2541544477028348
1.2189638318670577
1.1915933528836755
1.1749755620723363
1.1652003910068427
1.1593352883675463
1.1573802541544478
1.1612903225806452
1.1710654936461389
1.1867057673509287
1.2052785923753666
1.2258064516129032
1.2482893450635386
1.2717497556207231
1.29227761485826
1.3088954056695992
1.3206256109481915
1.3264907135874875
1.3264907135874875
1.3206256109481915
1.3098729227761483
1.295210166177908
1.2766373411534702
1.2541544477028348
1.2297165200391007
1.2052785923753666
1.1798631476050832
1.155425219941349
1.13880742913001
1.1270772238514175
1.1163245356793745
1.10752688172043
1.1026392961876832
1.099706744868035
1.099706744868035
1.1036168132942326
1.1143695014662756
1.13880742913001
1.18475073313783
1.262952101661779
1.356793743890518
1.4760508308895406
1.6441837732160314
1.8484848484848484
2.0733137829912023
2.2981427174975564
2.506353861192571
2.684261974584555
2.823069403714565
2.918866080156403
2.9716520039100685
2.986314760508309
2.9687194525904204
2.9286412512218964
2.8699902248289346
2.791788856304985
2.7008797653958942
2.601173020527859
2.495601173020528
2.386119257086999
2.275659824046921
2.164222873900293
2.0547409579667644
1.9472140762463344
1.842619745845552
1.7517106549364614
1.667644183773216
1.5747800586510263
1.4809384164222874
1.388074291300098
1.300097751710655
1.219941348973607
1.1505376344086022
1.0948191593352885
1.0557184750733135
1.0332355816226784
1.0254154447702837
1.0303030303030305
1.0439882697947214
1.0664711632453567
1.0948191593352885
1.1280547409579669
1.164222873900293
1.2003910068426198
1.2355816226783969
1.267839687194526
1.2932551319648091
1.3118279569892473
1.3225806451612905
1.3264907135874875
1.3255131964809383
1.321603128054741
1.3118279569892473
1.2981427174975562
1.2825024437927663
1.2658846529814272
1.249266862170088
1.2336265884652982
1.2179863147605083
1.2052785923753666
1.1935483870967742
1.1837732160312806
1.1798631476050832
1.181818181818182
1.187683284457478
1.1974584555229717
1.2111436950146628
1.2267839687194526
1.2424242424242424
1.262952101661779
1.2932551319648091
1.3421309872922775
1.4203323558162269
1.5366568914956011
1.6979472140762464
1.8670576735092863
2.0498533724340176
2.275659824046921
2.515151515151515
2.7438905180840663
2.86217008797654
2.89345063538612
2.9286412512218964
2.941348973607038
2.9237536656891496
2.877810361681329
2.806451612903226
2.727272727272727
2.641251221896383
2.5425219941348973
2.4379276637341154
2.332355816226784
2.2297165200391005
2.131964809384164
2.0410557184750733
1.956989247311828
1.8778103616813293
1.8025415444770283
1.7302052785923754
1.6588465298142718
1.5972629521016617
1.5386119257087
1.4731182795698925
1.4037145650048877
1.3333333333333333
1.2639296187683284
1.1974584555229717
1.1358748778103618
1.0840664711632453
1.0439882697947214
1.0156402737047898
0.9990224828934506
0.9960899315738024
1.0019550342130987
1.013685239491691
1.0312805474095796
1.0547409579667644
1.0791788856304985
1.1036168132942326
1.1270772238514175
1.1485826001955035
1.164222873900293
1.173998044965787
1.1779081133919844
1.1779081133919844
1.176930596285435
1.1730205278592376
1.1622678396871946
1.144672531769306
1.1241446725317692
1.1016617790811338
1.078201368523949
1.0557184750733135
1.0371456500488758
1.0254154447702837
1.0195503421309873
1.0205278592375366
1.0283479960899315
1.0410557184750733
1.0586510263929618
1.0772238514173995
1.0948191593352885
1.110459433040078
1.1241446725317692
1.1378299120234605
1.155425219941349
1.1857282502443791
1.238514173998045
1.321603128054741
1.436950146627566
1.560117302052786
1.6950146627565983
1.8631476050830889
2.0439882697947214
2.218963831867057
2.3743890518084068
2.501466275659824
2.593352883675464
2.6480938416422286
2.668621700879765
2.658846529814272
2.6236559139784945
2.5747800586510263
2.5141739980449658
2.4359726295210167
2.345063538611926
2.24633431085044
2.1417399804496577
2.035190615835777
1.9286412512218964
1.825024437927664
1.7243401759530792
1.6256109481915937
1.5288367546432062
1.4330400782013686
1.3519061583577712
1.281524926686217
1.206256109481916
1.1319648093841643
1.064516129032258
1.0068426197458455
0.9608993157380256
0.9257086999022482
0.9032258064516128
0.8934506353861192
0.8934506353861192
0.9002932551319648
0.9120234604105572
0.9266862170087976
0.9423264907135877
0.9579667644183774
0.9716520039100685
0.9843597262952102
0.9960899315738024
1.0048875855327468
1.010752688172043
1.0127077223851415
1.0117302052785924
1.0087976539589445
1.0019550342130987
0.9951124144672532
0.989247311827957
0.9804496578690128
0.9716520039100685
0.9628543499511242
0.9560117302052786
0.9511241446725318
0.9472140762463344
0.9442815249266864
0.9393939393939394
0.9335288367546432
0.9257086999022482
0.919843597262952
0.913978494623656
0.9051808406647116
0.895405669599218
0.884652981427175
0.8758553274682307
0.8699902248289345
0.8699902248289345
0.8807429130009775
0.9100684261974584
0.967741935483871
1.0635386119257086
1.198435972629521
1.343108504398827
1.501466275659824
1.696969696969697
1.9042033235581624
2.101661779081134
2.2737047898338223
2.4086021505376345
2.5024437927663734
2.5542521994134897
2.5669599217986314
2.5464320625610948
2.4995112414467253
2.441837732160313
2.3734115347018574
2.290322580645161
2.20039100684262
2.10752688172043
2.016617790811339
1.9305962854349952
1.8514173998044965
1.7790811339198436
1.715542521994135
1.6608015640273706
1.6148582600195502
1.5777126099706744
1.5493646138807429
1.5288367546432062
1.509286412512219
1.4926686217008798
1.478005865102639
1.4652981427174976
1.455522971652004
1.4516129032258065
1.4545454545454546
1.4643206256109482
1.4809384164222874
1.5024437927663734
1.5239491691104594
1.544477028347996
1.565982404692082
1.58455522971652
1.598240469208211
1.607038123167155
1.6080156402737047
1.6021505376344083
1.5894428152492668
1.5698924731182795
1.544477028347996
1.5151515151515151
1.487781036168133
1.4594330400782014
1.4281524926686218
1.3958944281524928
1.364613880742913
1.335288367546432
1.3088954056695992
1.2864125122189638
1.267839687194526
1.2551319648093842
1.2473118279569892
1.2434017595307918
1.2453567937438903
1.2512218963831867
1.2590420332355816
1.2688172043010753
1.2795698924731185
1.29227761485826
1.305962854349951
1.3235581622678396
1.3509286412512218
1.396871945259042
1.469208211143695
1.5747800586510263
1.7165200391006843
1.8602150537634408
2.0117302052785924
2.1945259042033234
2.3841642228739004
2.560117302052786
2.7067448680351904
2.814271749755621
2.877810361681329
2.900293255131965
2.8856304985337244
2.8406647116324537
2.771260997067449
2.6823069403714563
2.591397849462365
2.4975562072336266
2.391006842619746
2.280547409579668
2.1710654936461387
2.065493646138808
1.9667644183773216
1.8748778103616808
1.7888563049853372
1.70772238514174
1.629521016617791
1.5532746823069403
1.487781036168133
1.4301075268817205
1.367546432062561
1.303030303030303
1.2404692082111437
1.181818181818182
1.1290322580645162
1.086021505376344
1.0527859237536656
1.0312805474095796
1.0195503421309873
1.0166177908113392
1.0518084066471165
1.1085043988269794
1.1456500488758554
1.1749755620723363
1.198435972629521
1.219941348973607
1.238514173998045
1.2541544477028348
1.267839687194526
1.2795698924731185
1.2883675464320623
1.2932551319648091
1.2942326490713587
1.2942326490713587
1.29227761485826
1.2854349951124144
1.2746823069403714
1.2609970674486803
1.2453567937438903
1.227761485826002
1.209188660801564
1.1906158357771262
1.1730205278592376
1.1583577712609971
1.1485826001955035
1.144672531769306
1.1466275659824048
1.152492668621701
1.1612903225806452
1.173998044965787
1.187683284457478
1.2023460410557183
1.2209188660801564
1.2473118279569892
1.289345063538612
1.3558162267839686
1.452590420332356
1.585532746823069
1.7223851417399805
1.869012707722385
2.04594330400782
2.2297165200391005
2.403714565004888
2.552297165200391
2.665689149560117
2.739980449657869
2.776148582600196
2.7781036168132944
2.750733137829912
2.6989247311827955
2.627565982404692
2.552297165200391
2.474095796676442
2.3841642228739004
2.290322580645161
2.1974584555229715
2.10752688172043
2.022482893450636
1.943304007820137
1.869012707722385
1.7976539589442817
1.729227761485826
1.66177908113392
1.6041055718475072
1.5513196480938416
1.4916911045943304
1.4281524926686218
1.364613880742913
1.3040078201368523
1.249266862170088
1.203323558162268
1.1691104594330402
1.1466275659824048
1.1368523949169111
1.13880742913001
1.1485826001955035
1.164222873900293
1.18475073313783
1.2101661779081134
1.2355816226783969
1.260019550342131
1.281524926686217
1.2981427174975562
1.310850439882698
1.3176930596285434
1.3186705767350928
1.313782991202346
1.3049853372434017
1.2971652003910068
1.289345063538612
1.2756598240469208
1.2590420332355816
1.2404692082111437
1.2209188660801564
1.2013685239491692
1.181818181818182
1.164222873900293
1.1485826001955035
1.1348973607038124
1.1241446725317692
1.1163245356793745
1.1133919843597262
1.1143695014662756
1.1163245356793745
1.118279569892473
1.1202346041055715
1.121212121212121
1.1231671554252198
1.1300097751710656
1.1505376344086022
1.1935483870967742
1.2688172043010753
1.380254154447703
1.5024437927663734
1.6383186705767352
1.8093841642228736
1.9931573802541545
2.1710654936461387
2.3274682306940373
2.4516129032258065
2.5386119257087
2.587487781036168
2.603128054740958
2.587487781036168
2.5464320625610948
2.487781036168133
2.4242424242424243
2.3548387096774195
2.2737047898338223
2.1867057673509285
2.096774193548387
2.006842619745845
1.919843597262952
1.836754643206256
1.7575757575757576
1.683284457478006
1.6148582600195502
1.5513196480938416
1.498533724340176
1.4535679374389052
1.4056695992179864
1.359726295210166
1.3176930596285434
1.2825024437927663
1.2551319648093842
1.2375366568914956
1.2287390029325511
1.227761485826002
1.2336265884652982
1.2443792766373412
1.2590420332355816
1.2746823069403714
1.289345063538612
1.3020527859237536
1.310850439882698
1.316715542521994
1.3196480938416422
1.3186705767350928
1.3128054740957966
1.305962854349951
1.2971652003910068
1.2864125122189638
1.273704789833822
1.2619745845552297
1.2502443792766371
1.2346041055718475
1.2150537634408602
1.1925708699902249
1.1691104594330402
1.1466275659824048
1.1251221896383188
1.1055718475073313
1.0879765395894427
1.075268817204301
1.0684261974584557
1.0694037145650048
1.0762463343108504
1.088954056695992
1.1085043988269794
1.133919843597263
1.164222873900293
1.1994134897360704
1.2424242424242424
1.2961876832844574
1.367546432062561
1.4643206256109482
1.5913978494623655
1.750733137829912
1.906158357771261
2.065493646138808
2.2531769305962857
2.443792766373412
2.6177908113391983
2.7614858260019552
2.8670576735092865
2.930596285434995
2.9530791788856305
2.9393939393939394
2.895405669599218
2.8289345063538613
2.7536656891495603
2.6695992179863146
2.570869990224829
2.464320625610948
2.35386119257087
2.244379276637341
2.1388074291300097
2.038123167155425
1.9423264907135875
1.8514173998044965
1.7644183773216031
1.6803519061583578
1.5972629521016617
1.525904203323558
1.4633431085043989
1.396871945259042
1.3304007820136852
1.2688172043010753
1.2150537634408602
1.1700879765395895
1.1348973607038124
1.1085043988269794
1.0899315738025417
1.0801564027370478
1.078201368523949
1.0840664711632453
1.0948191593352885
1.110459433040078
1.1290322580645162
1.1495601173020529
1.1730205278592376
1.195503421309873
1.2267839687194526
1.2336265884652982
1.260019550342131
1.3147605083088951
1.4037145650048877
2.231671554252199
2.121212121212121
2.01564027370479
1.9159335288367547
1.823069403714565
1.7468230694037146
1.6813294232649072
1.6129032258064515
1.544477028347996
1.4809384164222874
1.426197458455523
1.380254154447703
1.3450635386119256
1.2942326490713587
1.238514173998045
1.2082111436950147
1.1896383186705768
1.1788856304985338
1.1730205278592376
1.1691104594330402
1.1671554252199414
1.1671554252199414
1.1720430107526882
1.181818181818182
1.1964809384164223
1.2111436950146628
1.2258064516129032
1.2375366568914956
1.2443792766373412
1.24633431085044
1.2473118279569892
1.2453567937438903
1.238514173998045
1.2267839687194526
1.2111436950146628
1.1925708699902249
1.1730205278592376
1.152492668621701
1.1319648093841643
1.1133919843597262
1.0977517106549364
1.086021505376344
1.0811339198435972
1.0821114369501466
1.0869990224828934
1.096774193548387
1.1133919843597262
1.133919843597263
1.1534701857282503
1.1730205278592376
1.1925708699902249
1.2150537634408602
1.2482893450635386
1.3010752688172045
1.3812316715542523
1.4731182795698925
1.5826001955034212
1.732160312805474
1.9071358748778104
2.090909090909091
2.267839687194526
2.4242424242424243
2.549364613880743
2.636363636363636
2.6852394916911044
2.696969696969697
2.67644183773216
2.636363636363636
2.558162267839687
2.449657869012708
2.3704789833822093
2.3059628543499517
2.225806451612903
2.1388074291300097
2.0498533724340176
1.9608993157380252
1.873900293255132
1.790811339198436
1.7116324535679377
1.635386119257087
1.5718475073313782
1.5161290322580645
1.455522971652004
1.3958944281524928
1.3372434017595307
1.2825024437927663
1.2336265884652982
1.1915933528836755
1.1583577712609971
1.1358748778103618
1.1231671554252198
1.1202346041055715
1.1270772238514175
1.141739980449658
1.163245356793744
1.1896383186705768
1.2179863147605083
1.2453567937438903
1.270772238514174
1.2932551319648091
1.310850439882698
1.3235581622678396
1.3313782991202343
1.3372434017595307
1.3411534701857282
1.3450635386119256
1.3470185728250244
1.3450635386119256
1.3391984359726294
1.3304007820136852
1.3176930596285434
1.3020527859237536
1.2834799608993157
1.2649071358748778
1.2482893450635386
1.2346041055718475
1.224828934506354
1.2218963831867058
1.2228739002932552
1.224828934506354
1.2267839687194526
1.227761485826002
1.2267839687194526
1.2267839687194526
1.2316715542521994
1.2502443792766371
1.2903225806451613
1.359726295210166
1.4652981427174976
1.629521016617791
1.7839687194525904
1.9130009775171064
2.0772238514174
2.2825024437927666
2.4594330400782014
2.56891495601173
2.656891495601173
2.7145650048875853
2.73802541544477
2.729227761485826
2.6930596285435
2.6177908113391983
2.541544477028348
2.47702834799609
2.391006842619746
2.2658846529814274
2.1485826001955037
2.064516129032258
1.9736070381231672
1.8641251221896384
1.7683284457478006
1.7018572825024438
1.6334310850439884
1.5571847507331378
1.4946236559139785
1.4467253176930597
1.3890518084066472
1.3118279569892473
1.2424242424242424
1.1935483870967742
1.144672531769306
1.0957966764418376
1.0586510263929618
1.0381231671554252
1.0283479960899315
1.0283479960899315
1.0361681329423265
1.0498533724340176
1.067448680351906
1.0869990224828934
1.1094819159335287
1.1319648093841643
1.152492668621701
1.1710654936461389
1.1857282502443791
1.1974584555229717
1.2043010752688172
1.2052785923753666
1.2003910068426198
1.1945259042033236
1.187683284457478
1.1710654936461389
1.1534701857282503
1.13880742913001
1.121212121212121
1.0977517106549364
1.078201368523949
1.064516129032258
1.0518084066471165
1.0371456500488758
1.0254154447702837
1.0175953079178883
1.0127077223851415
1.007820136852395
1.002932551319648
0.9990224828934506
0.9980449657869012
1.0048875855327468
1.0146627565982405
1.0342130987292275
1.083088954056696
1.1691104594330402
1.2961876832844574
1.4897360703812317
1.6705767350928642
1.8729227761485825
2.086021505376344
2.270772238514174
2.4408602150537635
2.548387096774193
2.634408602150537
2.6803519061583576
2.6959921798631474
2.6901270772238512
2.654936461388074
2.572825024437928
2.486803519061584
2.4281524926686218
2.3362658846529816
2.2218963831867056
2.124144672531769
2.0391006842619745
1.964809384164223
1.9012707722385145
1.8455522971652003
1.7986314760508308
1.7673509286412512
1.7390029325513197
1.7116324535679377
1.6930596285434996
1.6813294232649072
1.6735092864125125
1.667644183773216
1.6656891495601174
1.6656891495601174
1.667644183773216
1.6695992179863148
1.6695992179863148
1.6695992179863148
1.6695992179863148
1.6686217008797657
1.6666666666666667
1.6627565982404693
1.656891495601173
1.6500488758553276
1.640273704789834
1.6265884652981428
1.608993157380254
1.5894428152492668
1.5679374389051808
1.5454545454545454
1.521994134897361
1.499511241446725
1.4809384164222874
1.4633431085043989
1.4428152492668622
1.4203323558162269
1.3949169110459434
1.3665689149560116
1.33822091886608
1.310850439882698
1.284457478005865
1.2609970674486803
1.2424242424242424
1.227761485826002
1.217008797653959
1.2101661779081134
1.2043010752688172
1.2043010752688172
1.209188660801564
1.217008797653959
1.2394916911045943
1.2883675464320623
1.3743890518084063
1.500488758553275
1.6627565982404693
1.8523949169110456
2.0557184750733137
2.23069403714565
2.3792766373411536
2.52297165200391
2.641251221896383
2.7253176930596283
2.771260997067449
2.782013685239492
2.7614858260019552
2.7155425219941347
2.649071358748778
2.565982404692082
2.4731182795698925
2.375366568914956
2.2873900293255134
2.2052785923753664
2.1192570869990224
2.034213098729228
1.9530791788856303
1.8758553274682308
1.8005865102639296
1.726295210166178
1.653958944281525
1.5826001955034212
1.512218963831867
1.4437927663734116
1.3861192570869991
1.3372434017595307
1.284457478005865
1.2355816226783969
1.1945259042033236
1.163245356793744
1.144672531769306
1.1368523949169111
1.1407624633431086
1.155425219941349
1.1779081133919844
1.206256109481916
1.2365591397849462
1.2649071358748778
1.2903225806451613
1.313782991202346
1.3343108504398826
1.3509286412512218
1.3626588465298142
1.3695014662756595
1.370478983382209
1.3685239491691104
1.3636363636363635
1.3558162267839686
1.346041055718475
1.33822091886608
1.3313782991202343
1.3206256109481915
1.305962854349951
1.2903225806451613
1.273704789833822
1.2590420332355816
1.2473118279569892
1.238514173998045
1.2336265884652982
1.23069403714565
1.227761485826002
1.224828934506354
1.2238514173998043
1.2267839687194526
1.2355816226783969
1.260019550342131
1.310850439882698
1.396871945259042
1.52297165200391
1.689149560117302
1.8866080156402736
2.103616813294233
2.3225806451612905
2.5239491691104594
2.677419354838709
2.789833822091887
2.881720430107527
2.940371456500489
2.962854349951124
2.9501466275659824
2.9071358748778104
2.8396871945259043
2.752688172043011
2.6510263929618767
2.541544477028348
2.4301075268817205
2.3313782991202348
2.242424242424242
2.1495601173020527
2.0576735092864125
1.967741935483871
1.881720430107527
1.7986314760508308
1.7194525904203324
1.6451612903225807
1.5757575757575757
1.509286412512219
1.447702834799609
1.391006842619746
1.346041055718475
1.3098729227761483
1.2756598240469208
1.24633431085044
1.2258064516129032
1.2160312805474096
1.2160312805474096
1.2258064516129032
1.2434017595307918
1.2658846529814272
1.2903225806451613
1.3147605083088951
1.3372434017595307
1.356793743890518
1.3724340175953078
1.3841642228739004
1.3919843597262953
1.396871945259042
1.3988269794721409
1.3978494623655917
1.392961876832845
1.3841642228739004
1.3724340175953078
1.356793743890518
1.33822091886608
1.3206256109481915
1.3049853372434017
1.2883675464320623
1.2717497556207231
1.2570869990224829
1.24633431085044
1.238514173998045
1.2326490713587488
1.2287390029325511
1.224828934506354
1.2218963831867058
1.2189638318670577
1.2189638318670577
1.224828934506354
1.2424242424242424
1.2834799608993157
1.3558162267839686
1.466275659824047
1.6158357771260996
1.7986314760508308
2.0019550342130987
2.2111436950146626
2.409579667644184
2.58455522971652
2.7262952101661777
2.8211143695014664
2.875855327468231
2.905180840664712
2.9042033235581624
2.873900293255132
2.8181818181818183
2.7419354838709675
2.6510263929618767
2.5513196480938416
2.444770283479961
2.337243401759531
2.231671554252199
2.1407624633431084
2.058651026392962
1.9736070381231672
1.8905180840664717
1.8103616813294232
1.7341153470185728
1.6608015640273706
1.590420332355816
1.5239491691104594
1.4594330400782014
1.3998044965786902
1.346041055718475
1.300097751710655
1.2688172043010753
1.2482893450635386
1.2346041055718475
1.2287390029325511
1.2316715542521994
1.2443792766373412
1.2639296187683284
1.2883675464320623
1.3147605083088951
1.3401759530791788
1.3626588465298142
1.383186705767351
1.3988269794721409
1.4105571847507332
1.418377321603128
1.4222873900293256
1.4213098729227762
1.4164222873900294
1.4086021505376345
1.396871945259042
1.383186705767351
1.367546432062561
1.3509286412512218
1.332355816226784
1.313782991202346
1.2991202346041055
1.2873900293255132
1.2746823069403714
1.262952101661779
1.2541544477028348
1.249266862170088
1.2473118279569892
1.2473118279569892
1.2473118279569892
1.2482893450635386
1.2512218963831867
1.260019550342131
1.2766373411534702
1.3088954056695992
1.3685239491691104
1.4633431085043989
1.5962854349951123
1.7663734115347018
1.962854349951124
2.1710654936461387
2.375366568914956
2.5620723362658846
