ppg
1.499511241446725
1.478983382209189
1.457478005865103
1.436950146627566
1.41544477028348
1.393939393939394
1.3743890518084063
1.3558162267839686
1.3421309872922775
1.3313782991202343
1.316715542521994
1.2981427174975562
1.2756598240469208
1.2531769305962854
1.2316715542521994
1.2130987292277615
1.1964809384164223
1.1798631476050832
1.1622678396871946
1.1456500488758554
1.1290322580645162
1.118279569892473
1.110459433040078
1.1016617790811338
1.0928641251221896
1.0840664711632453
1.0762463343108504
1.067448680351906
1.0586510263929618
1.050830889540567
1.0420332355816226
1.0342130987292275
1.0254154447702837
1.021505376344086
1.021505376344086
1.021505376344086
1.0205278592375366
1.0175953079178883
1.0146627565982405
1.0097751710654936
1.002932551319648
0.997067448680352
0.9941348973607038
0.9960899315738024
1.0087976539589445
1.0391006842619743
1.0840664711632453
1.1495601173020529
1.2502443792766371
1.3822091886608017
1.5395894428152492
1.7135874877810362
1.89247311827957
2.0684261974584555
2.233626588465298
2.3822091886608017
2.5102639296187683
2.616813294232649
2.6930596285435
2.7497556207233624
2.80058651026393
2.843597262952102
2.878787878787879
2.905180840664712
2.924731182795699
2.946236559139785
2.9657869012707723
2.973607038123167
2.973607038123167
2.9657869012707723
2.952101661779081
2.930596285434995
2.9042033235581624
2.8729227761485827
2.834799608993157
2.787878787878788
2.732160312805474
2.665689149560117
2.589442815249267
2.506353861192571
2.420332355816227
2.332355816226784
2.24633431085044
2.172043010752688
2.1065493646138806
2.040078201368524
1.978494623655914
1.9266862170087975
1.8836754643206255
1.8484848484848484
1.8201368523949168
1.7976539589442817
1.7790811339198436
1.7634408602150538
1.747800586510264
1.7311827956989247
1.7145650048875856
1.6989247311827955
1.6813294232649072
1.6627565982404693
1.6441837732160314
1.6265884652981428
1.6099706744868034
1.590420332355816
1.5679374389051808
1.544477028347996
1.521994134897361
1.501466275659824
1.487781036168133
1.47702834799609
1.4652981427174976
1.4535679374389052
1.4408602150537635
1.4281524926686218
1.414467253176931
1.3988269794721409
1.3841642228739004
1.370478983382209
1.356793743890518
1.343108504398827
1.3304007820136852
1.321603128054741
1.316715542521994
1.3098729227761483
1.3020527859237536
1.2942326490713587
1.2854349951124144
1.2766373411534702
1.2688172043010753
1.2609970674486803
1.2561094819159335
1.2541544477028348
1.2512218963831867
1.249266862170088
1.249266862170088
1.24633431085044
1.241446725317693
1.2365591397849462
1.2326490713587488
1.23069403714565
1.2355816226783969
1.2561094819159335
1.300097751710655
1.3714565004887584
1.4750733137829912
1.608993157380254
1.7419354838709675
1.8778103616813293
2.0361681329423265
2.1974584555229715
2.3489736070381237
2.486803519061584
2.6050830889540566
2.701857282502444
2.780058651026393
2.8426197458455524
2.8914956011730206
2.9286412512218964
2.949169110459433
2.9589442815249267
2.9696969696969697
2.978494623655914
2.9824046920821115
2.9824046920821115
2.979472140762464
2.972629521016618
2.962854349951124
2.9501466275659824
2.9335288367546437
2.909090909090909
2.87683284457478
2.838709677419355
2.7947214076246336
2.740957966764418
2.67644183773216
2.6021505376344085
2.52297165200391
2.439882697947214
2.3528836754643208
2.2658846529814274
2.1818181818181817
2.104594330400782
2.0361681329423265
1.9824046920821117
1.93841642228739
1.8983382209188664
1.8641251221896384
1.8347996089931573
1.8084066471163245
1.7839687194525904
1.761485826001955
1.739980449657869
1.718475073313783
1.696969696969697
1.675464320625611
1.6529814271749756
1.6334310850439884
1.6148582600195502
1.5933528836754642
1.5698924731182795
1.547409579667644
1.525904203323558
1.5053763440860215
1.4838709677419355
1.4643206256109482
1.4467253176930597
1.4271749755620724
1.4066471163245358
1.3900293255131966
1.3763440860215057
1.3607038123167154
1.3440860215053765
1.327468230694037
1.310850439882698
1.2942326490713587
1.2766373411534702
1.2590420332355816
1.2434017595307918
1.2297165200391007
1.2160312805474096
1.2072336265884651
1.2003910068426198
1.1906158357771262
1.1808406647116323
1.1700879765395895
1.1583577712609971
1.1466275659824048
1.1348973607038124
1.1251221896383188
1.1163245356793745
1.10752688172043
1.0987292277614855
1.0899315738025417
1.086021505376344
1.0840664711632453
1.078201368523949
1.0733137829912025
1.0762463343108504
1.0928641251221896
1.1290322580645162
1.1925708699902249
1.2864125122189638
1.4076246334310851
1.5513196480938416
1.7086999022482894
1.8504398826979471
1.9775171065493649
2.110459433040078
2.2355816226783967
2.346041055718475
2.4379276637341154
2.512218963831867
2.5698924731182795
2.6148582600195502
2.6480938416422286
2.6725317693059627
2.689149560117302
2.6989247311827955
2.7008797653958942
2.696969696969697
2.6911045943304006
2.684261974584555
2.674486803519061
2.658846529814272
2.636363636363636
2.6070381231671558
2.5718475073313782
2.530791788856305
2.4838709677419355
2.4281524926686218
2.3714565004887587
2.312805474095797
2.241446725317693
2.161290322580645
2.0762463343108504
1.9931573802541545
1.9159335288367547
1.8455522971652003
1.7839687194525904
1.732160312805474
1.6901270772238517
1.656891495601173
1.6314760508308896
1.6138807429130009
1.603128054740958
1.5933528836754642
1.58455522971652
1.5757575757575757
1.5669599217986314
1.5581622678396871
1.5493646138807429
1.542521994134897
1.5356793743890518
1.5278592375366569
1.521016617790811
1.517106549364614
1.5141739980449658
1.509286412512219
1.5053763440860215
1.501466275659824
1.4965786901270772
1.4926686217008798
1.4887585532746823
1.4838709677419355
1.479960899315738
1.4750733137829912
1.4711632453567938
1.4672531769305963
1.4652981427174976
1.4623655913978495
1.458455522971652
1.4545454545454546
1.4496578690127078
1.4457478005865103
1.4389051808406648
1.4301075268817205
1.4203323558162269
1.409579667644184
1.396871945259042
1.3841642228739004
1.3763440860215057
1.359726295210166
1.3440860215053765
1.356793743890518
1.3998044965786902
1.474095796676442
1.5786901270772238
1.710654936461388
1.8631476050830889
2.027370478983382
2.190615835777126
2.3421309872922778
2.47702834799609
2.578690127077224
2.653958944281525
2.7253176930596283
2.7869012707722387
2.834799608993157
2.873900293255132
2.903225806451613
2.9227761485826003
2.936461388074292
2.9442815249266863
2.946236559139785
2.9423264907135875
2.932551319648094
2.917888563049853
2.902248289345064
2.8836754643206257
2.8611925708699903
2.831867057673509
2.7947214076246336
2.747800586510264
2.69208211143695
2.6265884652981426
2.550342130987292
2.4652981427174976
2.3743890518084068
2.29227761485826
2.2160312805474094
2.1358748778103616
2.059628543499511
1.9902248289345064
1.9296187683284456
1.8797653958944285
1.8387096774193548
1.8054740957966764
1.775171065493646
1.7487781036168133
1.726295210166178
1.7067448680351909
1.689149560117302
1.6695992179863148
1.6490713587487782
1.6265884652981428
1.603128054740958
1.581622678396872
1.5620723362658846
1.543499511241447
1.5249266862170088
1.5053763440860215
1.4858260019550342
1.466275659824047
1.4496578690127078
1.4349951124144673
1.418377321603128
1.4007820136852396
1.3812316715542523
1.3616813294232648
1.343108504398827
1.3255131964809383
1.310850439882698
1.2961876832844574
1.2825024437927663
1.2688172043010753
1.260019550342131
1.2531769305962854
1.2443792766373412
1.2346041055718475
1.2238514173998043
1.2130987292277615
1.2013685239491692
1.1906158357771262
1.181818181818182
1.173998044965787
1.1681329423264908
1.163245356793744
1.1583577712609971
1.1564027370478984
1.1573802541544478
1.155425219941349
1.152492668621701
1.1505376344086022
1.1495601173020529
1.1495601173020529
1.1495601173020529
1.1466275659824048
1.1436950146627567
1.13880742913001
1.1329423264907137
1.1319648093841643
1.1397849462365592
1.1573802541544478
1.1964809384164223
1.2658846529814272
1.3695014662756595
1.5053763440860215
1.667644183773216
1.8484848484848484
2.037145650048876
2.2218963831867056
2.3929618768328447
2.544477028347996
2.659824046920821
2.7468230694037143
2.8289345063538613
2.897360703812317
2.9501466275659824
2.991202346041056
3.022482893450636
3.04594330400782
3.0625610948191597
3.0733137829912023
3.0791788856304985
3.081133919843597
3.074291300097752
3.060606060606061
3.04594330400782
3.027370478983382
3.003910068426197
2.9745845552297165
2.93841642228739
2.89345063538612
2.838709677419355
2.774193548387097
2.7008797653958942
2.6177908113391983
2.536656891495601
2.455522971652004
2.3655913978494625
2.272727272727273
2.182795698924731
2.0987292277614857
2.0234604105571847
1.956989247311828
1.902248289345064
1.857282502443793
1.8191593352883677
1.7859237536656891
1.7575757575757576
1.7360703812316716
1.7174975562072337
1.696969696969697
1.675464320625611
1.653958944281525
1.6304985337243405
1.6041055718475072
1.576735092864125
1.5503421309872922
1.5239491691104594
1.4975562072336266
1.4721407624633431
1.452590420332356
1.435972629521017
1.41544477028348
1.391006842619746
1.3636363636363635
1.335288367546432
1.3069403714565004
1.281524926686217
1.2561094819159335
1.2297165200391007
1.2043010752688172
1.1808406647116323
1.1583577712609971
1.141739980449658
1.1270772238514175
1.110459433040078
1.0928641251221896
1.0742913000977516
1.0557184750733135
1.040078201368524
1.024437927663734
1.0097751710654936
0.9960899315738024
0.9824046920821116
0.9706744868035192
0.9648093841642228
0.9618768328445748
0.9579667644183774
0.9550342130987292
0.9521016617790812
0.9481915933528836
0.9433040078201368
0.9364613880742912
0.9286412512218964
0.9188660801564028
0.9071358748778104
0.8973607038123167
0.8914956011730205
0.8924731182795699
0.9051808406647116
0.9345063538611924
0.9882697947214076
1.072336265884653
1.1857282502443791
1.327468230694037
1.4887585532746823
1.6588465298142718
1.8299120234604105
1.991202346041056
2.1378299120234603
2.251221896383187
2.337243401759531
2.4164222873900294
2.4838709677419355
2.5376344086021505
2.5777126099706744
2.606060606060606
2.625610948191593
2.6402737047898337
2.652003910068426
2.6608015640273703
2.6666666666666665
2.668621700879765
2.662756598240469
2.650048875855328
2.631476050830889
2.6050830889540566
2.5718475073313782
2.529814271749756
2.4789833822091887
2.419354838709677
2.350928641251222
2.2737047898338223
2.1915933528836757
2.1065493646138806
2.032258064516129
1.963831867057673
1.89247311827957
1.8240469208211143
1.7644183773216031
1.715542521994135
1.675464320625611
1.6451612903225807
1.624633431085044
1.6109481915933528
1.6021505376344083
1.5962854349951123
1.5933528836754642
1.5923753665689149
1.590420332355816
1.585532746823069
1.5786901270772238
1.5708699902248289
1.5650048875855327
1.5610948191593352
1.5708699902248289
1.5865102639296187
1.590420332355816
1.5884652981427174
1.5826001955034212
1.576735092864125
1.56891495601173
1.5571847507331378
1.543499511241447
1.5288367546432062
1.5161290322580645
1.5024437927663734
1.4887585532746823
1.474095796676442
1.4604105571847508
1.447702834799609
1.434017595307918
1.4203323558162269
1.4105571847507332
1.4037145650048877
1.3958944281524928
1.388074291300098
1.380254154447703
1.3714565004887584
1.3636363636363635
1.3558162267839686
1.3479960899315735
1.3391984359726294
1.3313782991202343
1.324535679374389
1.3206256109481915
1.3196480938416422
1.3196480938416422
1.3196480938416422
1.3186705767350928
1.3157380254154447
1.3118279569892473
1.3049853372434017
1.2981427174975562
1.2913000977517106
1.2903225806451613
1.300097751710655
1.3294232649071358
1.3724340175953078
1.4349951124144673
1.5298142717497556
1.6529814271749756
1.7996089931573802
1.9579667644183771
2.1192570869990224
2.2737047898338223
2.4134897360703813
2.533724340175953
2.633431085043988
2.7145650048875853
2.771260997067449
2.811339198435973
2.8484848484848486
2.8797653958944283
2.903225806451613
2.919843597262952
2.9315738025415445
2.93841642228739
2.940371456500489
2.93841642228739
2.932551319648094
2.9227761485826003
2.90811339198436
2.8885630498533725
2.865102639296188
2.8367546432062563
2.8025415444770285
2.7614858260019552
2.7126099706744866
2.6559139784946235
2.591397849462365
2.5190615835777126
2.439882697947214
2.357771260997068
2.2766373411534704
2.207233626588465
2.1436950146627565
2.080156402737048
2.022482893450636
1.9716520039100685
1.9305962854349952
1.8963831867057677
1.869012707722385
1.844574780058651
1.822091886608016
1.8005865102639296
1.780058651026393
1.7605083088954057
1.7438905180840665
1.7282502443792769
1.710654936461388
1.6911045943304008
1.6715542521994136
1.651026392961877
1.6285434995112416
1.6050830889540566
1.5835777126099706
1.5620723362658846
1.542521994134897
1.5249266862170088
1.5102639296187683
1.4965786901270772
1.478983382209189
1.4604105571847508
1.4408602150537635
1.4213098729227762
1.404692082111437
1.3900293255131966
1.3763440860215057
1.3636363636363635
1.348973607038123
1.3343108504398826
1.3235581622678396
1.316715542521994
1.305962854349951
1.29227761485826
1.2805474095796676
1.2717497556207231
1.2639296187683284
1.2580645161290325
1.2531769305962854
1.249266862170088
1.24633431085044
1.2453567937438903
1.24633431085044
1.2482893450635386
1.2512218963831867
1.252199413489736
1.2502443792766371
1.24633431085044
1.2394916911045943
1.2316715542521994
1.2287390029325511
1.2355816226783969
1.2570869990224829
1.3020527859237536
1.3763440860215057
1.4604105571847508
1.5591397849462365
1.6881720430107527
1.833822091886608
1.9853372434017595
2.132942326490713
2.2688172043010755
2.388074291300098
2.4887585532746823
2.570869990224829
2.634408602150537
2.684261974584555
2.721407624633431
2.742913000977517
2.7546432062561097
2.764418377321604
2.7702834799608995
2.7722385141739982
2.7702834799608995
2.766373411534702
2.758553274682307
2.745845552297165
2.727272727272727
2.701857282502444
2.6695992179863146
2.634408602150537
2.595307917888563
2.5464320625610948
2.486803519061584
2.420332355816227
2.346041055718475
2.2658846529814274
2.1818181818181817
2.0948191593352883
2.0087976539589443
1.927663734115347
1.8533724340175952
1.7878787878787878
1.7390029325513197
1.7028347996089932
1.6705767350928642
1.6441837732160314
1.6226783968719452
1.6041055718475072
1.5865102639296187
1.56891495601173
1.5493646138807429
1.5278592375366569
1.5073313782991202
1.4868035190615836
1.4701857282502444
1.456500488758553
1.4389051808406648
1.4203323558162269
1.4037145650048877
1.3900293255131966
1.3743890518084063
1.3607038123167154
1.3479960899315735
1.3333333333333333
1.3176930596285434
1.3020527859237536
1.2864125122189638
1.2746823069403714
1.2649071358748778
1.2512218963831867
1.2365591397849462
1.219941348973607
1.203323558162268
1.1857282502443791
1.1681329423264908
1.1505376344086022
1.1348973607038124
1.1202346041055715
1.104594330400782
1.0948191593352885
1.088954056695992
1.0801564027370478
1.0703812316715542
1.06158357771261
1.0527859237536656
1.0449657869012707
1.0371456500488758
1.029325513196481
1.021505376344086
1.0156402737047898
1.010752688172043
1.0068426197458455
1.0068426197458455
1.0087976539589445
1.007820136852395
1.0058651026392962
1.0068426197458455
1.0156402737047898
1.0381231671554252
1.0811339198435972
1.1495601173020529
1.249266862170088
1.3792766373411536
1.5317693059628543
1.6764418377321604
1.8162267839687196
1.970674486803519
2.124144672531769
2.2658846529814274
2.391006842619746
2.4975562072336266
2.5855327468230693
2.6578690127077222
2.7145650048875853
2.7565982404692084
2.787878787878788
2.8103616813294234
2.822091886608016
2.838709677419355
2.86217008797654
2.8729227761485827
2.874877810361681
2.870967741935484
2.8611925708699903
2.84652981427175
2.825024437927664
2.7966764418377323
2.7595307917888565
2.7145650048875853
2.665689149560117
2.610948191593353
2.544477028347996
2.469208211143695
2.389051808406647
2.3059628543499517
2.2238514173998043
2.146627565982405
2.075268817204301
2.0117302052785924
1.9560117302052784
1.9100684261974583
1.871945259042033
1.8435972629521016
1.8211143695014664
1.7996089931573802
1.7790811339198436
1.758553274682307
1.7380254154447703
1.7174975562072337
1.6959921798631477
1.675464320625611
1.6559139784946235
1.6373411534701858
1.619745845552297
1.606060606060606
1.5943304007820136
1.5796676441837731
1.563049853372434
1.544477028347996
1.525904203323558
1.5083088954056696
1.4897360703812317
1.4701857282502444
1.452590420332356
1.435972629521017
1.4213098729227762
1.4105571847507332
1.4037145650048877
1.3998044965786902
1.392961876832845
1.3861192570869991
1.3782991202346042
1.370478983382209
1.3616813294232648
1.35386119257087
1.3450635386119256
1.3372434017595307
1.3284457478005864
1.3206256109481915
1.3157380254154447
1.3118279569892473
1.3069403714565004
1.3010752688172045
1.2961876832844574
1.2913000977517106
1.2854349951124144
1.278592375366569
1.273704789833822
1.2688172043010753
1.2619745845552297
1.2541544477028348
1.2502443792766371
1.2502443792766371
1.2531769305962854
1.2658846529814272
1.295210166177908
1.3479960899315735
1.4301075268817205
1.5405669599217986
1.6764418377321604
1.8299120234604105
1.992179863147605
2.15347018572825
2.3059628543499517
2.426197458455523
2.5239491691104594
2.618768328445748
2.702834799608993
2.7722385141739982
2.827956989247312
2.870967741935484
2.903225806451613
2.9266862170087977
2.9423264907135875
2.952101661779081
2.9579667644183774
2.956989247311828
2.952101661779081
2.9472140762463344
2.940371456500489
2.929618768328446
2.913978494623656
2.8914956011730206
2.86217008797654
2.827956989247312
2.7859237536656893
2.7341153470185726
2.6725317693059627
2.6021505376344085
2.532746823069404
2.462365591397849
2.3841642228739004
2.3010752688172045
2.218963831867057
2.1417399804496577
2.071358748778104
2.0087976539589443
1.9560117302052784
1.913978494623656
1.8807429130009776
1.8533724340175952
1.833822091886608
1.8162267839687196
1.7976539589442817
1.7781036168132942
1.7575757575757576
1.737047898338221
1.715542521994135
1.6930596285434996
1.6715542521994136
1.651026392961877
1.629521016617791
1.6099706744868034
1.5894428152492668
1.5718475073313782
1.5581622678396871
1.544477028347996
1.530791788856305
1.5180840664711632
1.504398826979472
1.4897360703812317
1.474095796676442
1.456500488758553
1.436950146627566
1.4203323558162269
1.4056695992179864
1.393939393939394
1.3841642228739004
1.3734115347018572
1.3616813294232648
1.3479960899315735
1.3362658846529814
1.3264907135874875
1.316715542521994
1.3079178885630498
1.2991202346041055
1.2913000977517106
1.284457478005865
1.278592375366569
1.2766373411534702
1.2766373411534702
1.2756598240469208
1.2756598240469208
1.2756598240469208
1.273704789833822
1.270772238514174
1.267839687194526
1.2639296187683284
1.2609970674486803
1.262952101661779
1.2746823069403714
1.2981427174975562
1.3391984359726294
1.4086021505376345
1.5083088954056696
1.635386119257087
1.7820136852394917
1.93841642228739
2.093841642228739
2.2404692082111435
2.3714565004887587
2.4858260019550342
2.581622678396872
2.6608015640273703
2.716520039100684
2.7565982404692084
2.791788856304985
2.819159335288368
2.8406647116324537
2.8563049853372435
2.8670576735092865
2.8699902248289346
2.866080156402737
2.8563049853372435
2.8426197458455524
2.825024437927664
2.8044965786901277
2.779081133919844
2.7497556207233624
2.7155425219941347
2.674486803519061
2.6265884652981426
2.56891495601173
2.5004887585532747
2.4242424242424243
2.3411534701857284
2.254154447702835
2.1652003910068425
2.078201368523949
2.004887585532747
1.9423264907135875
1.8797653958944285
1.822091886608016
1.7712609970674489
1.729227761485826
1.6959921798631477
1.6695992179863148
1.6480938416422288
1.629521016617791
1.6099706744868034
1.587487781036168
1.5679374389051808
1.5513196480938416
1.5317693059628543
1.5083088954056696
1.4819159335288368
1.455522971652004
1.4301075268817205
1.4086021505376345
1.3890518084066472
1.3714565004887584
1.3519061583577712
1.3313782991202343
1.3128054740957966
1.2991202346041055
1.2864125122189638
1.2717497556207231
1.2551319648093842
1.2375366568914956
1.219941348973607
1.2003910068426198
1.1798631476050832
1.163245356793744
1.1485826001955035
1.1348973607038124
1.1241446725317692
1.118279569892473
1.115347018572825
1.10752688172043
1.0957966764418376
1.0821114369501466
1.0694037145650048
1.0576735092864125
1.0478983382209188
1.0303030303030305
1.0087976539589445
0.9951124144672532
0.9853372434017597
0.978494623655914
0.9775171065493646
0.9794721407624634
0.9775171065493646
0.9745845552297164
0.9716520039100685
0.967741935483871
0.9648093841642228
0.967741935483871
0.981427174975562
1.0127077223851415
1.067448680351906
1.152492668621701
1.2482893450635386
1.3607038123167154
1.5073313782991202
1.6744868035190617
1.847507331378299
2.01564027370479
2.1710654936461387
2.310850439882698
2.4301075268817205
2.529814271749756
2.6099706744868034
2.674486803519061
2.7262952101661777
2.760508308895406
2.7839687194525906
2.807429130009776
2.8269794721407626
2.8406647116324537
2.850439882697948
2.855327468230694
2.855327468230694
2.849462365591398
2.8396871945259043
2.822091886608016
2.7966764418377323
2.7653958944281527
2.7282502443792764
2.6803519061583576
2.621700879765396
2.555229716520039
2.4809384164222874
2.401759530791789
2.321603128054741
2.242424242424242
2.167155425219941
2.099706744868035
2.0410557184750733
1.9951124144672527
1.9589442815249267
1.9266862170087975
1.900293255131965
1.8778103616813293
1.858260019550342
1.839687194525904
1.822091886608016
1.8054740957966764
1.7898338220918866
1.7732160312805474
1.75366568914956
1.7331378299120237
1.715542521994135
1.6989247311827955
1.6803519061583578
1.6608015640273706
1.6422287390029326
1.6236559139784943
1.6041055718475072
1.5835777126099706
1.5620723362658846
1.541544477028348
1.521994134897361
1.5024437927663734
1.487781036168133
1.4750733137829912
1.4604105571847508
1.4467253176930597
1.4320625610948192
1.4173998044965788
1.4037145650048877
1.391006842619746
1.380254154447703
1.370478983382209
1.3616813294232648
1.3519061583577712
1.3421309872922775
1.3362658846529814
1.3313782991202343
1.324535679374389
1.3176930596285434
1.3098729227761483
1.3020527859237536
1.2971652003910068
1.295210166177908
1.2942326490713587
1.2932551319648091
1.2913000977517106
1.2883675464320623
1.2873900293255132
1.2854349951124144
1.2805474095796676
1.2746823069403714
1.2717497556207231
1.2776148582600195
1.300097751710655
1.3470185728250244
1.423264907135875
1.5288367546432062
1.6637341153470186
1.8201368523949168
1.986314760508309
2.131964809384164
2.260997067448681
2.393939393939394
2.520039100684262
2.631476050830889
2.7253176930596283
2.7996089931573804
2.8582600195503423
2.905180840664712
2.940371456500489
2.9657869012707723
2.9824046920821115
2.9872922776148583
2.986314760508309
2.986314760508309
2.98435972629521
2.979472140762464
2.970674486803519
2.9579667644183774
2.940371456500489
2.917888563049853
2.8905180840664717
2.857282502443793
2.81622678396872
2.766373411534702
2.7145650048875853
2.6578690127077222
2.5884652981427174
2.509286412512219
2.4252199413489737
2.337243401759531
2.2502443792766376
2.1681329423264906
2.0928641251221896
2.026392961876833
1.970674486803519
1.924731182795699
1.8914956011730208
1.865102639296188
1.8387096774193548
1.8142717497556209
1.7917888563049853
1.76930596285435
1.7468230694037146
