ppg
1.560117302052786
1.6236559139784943
1.6901270772238517
1.7565982404692082
1.8191593352883677
1.8758553274682308
1.921798631476051
1.9560117302052784
1.978494623655914
1.9902248289345064
1.992179863147605
1.9853372434017595
1.970674486803519
1.949169110459433
1.919843597262952
1.8856304985337244
1.8484848484848484
1.8084066471163245
1.7663734115347018
1.7243401759530792
1.683284457478006
1.6480938416422288
1.616813294232649
1.5826001955034212
1.5493646138807429
1.5180840664711632
1.487781036168133
1.4604105571847508
1.4408602150537635
1.4330400782013686
1.444770283479961
1.4838709677419355
1.5591397849462365
1.6735092864125125
1.7976539589442817
1.9374389051808407
2.115347018572825
2.30791788856305
2.495601173020528
2.6637341153470184
2.7976539589442817
2.89345063538612
2.948191593352884
2.962854349951124
2.9423264907135875
2.89247311827957
2.8289345063538613
2.752688172043011
2.658846529814272
2.5542521994134897
2.443792766373412
2.3304007820136854
2.21505376344086
2.0987292277614857
1.981427174975562
1.8641251221896384
1.7487781036168133
1.6373411534701858
1.5317693059628543
1.4457478005865103
1.3743890518084063
1.3040078201368523
1.2443792766373412
1.198435972629521
1.1691104594330402
1.1564027370478984
1.160312805474096
1.1788856304985338
1.2111436950146628
1.2541544477028348
1.3049853372434017
1.35386119257087
1.401759530791789
1.4506353861192571
1.4975562072336266
1.5386119257087
1.5708699902248289
1.5933528836754642
1.6050830889540566
1.607038123167155
1.6011730205278591
1.5865102639296187
1.564027370478983
1.5347018572825024
1.5083088954056696
1.4819159335288368
1.4486803519061584
1.412512218963832
1.3763440860215057
1.3401759530791788
1.3049853372434017
1.2717497556207231
1.2424242424242424
1.2150537634408602
1.1915933528836755
1.1710654936461389
1.1583577712609971
1.1495601173020529
1.142717497556207
1.144672531769306
1.1466275659824048
1.164222873900293
1.2267839687194526
1.332355816226784
1.4731182795698925
1.643206256109482
1.83088954056696
2.022482893450636
2.182795698924731
2.314760508308896
2.4389051808406648
2.536656891495601
2.601173020527859
2.6295210166177907
2.624633431085044
2.589442815249267
2.5288367546432062
2.449657869012708
2.356793743890518
2.2551319648093844
2.146627565982405
2.047898338220919
1.9521016617790807
1.8455522971652003
1.7331378299120237
1.619745845552297
1.5063538611925709
1.3978494623655917
1.295210166177908
1.203323558162268
1.1241446725317692
1.0596285434995112
1.0097751710654936
0.9804496578690128
0.9687194525904204
0.9696969696969696
0.9853372434017597
1.0175953079178883
1.0625610948191593
1.1173020527859236
1.1798631476050832
1.2453567937438903
1.3098729227761483
1.370478983382209
1.4242424242424243
1.4682306940371457
1.500488758553275
1.521994134897361
1.5356793743890518
1.5405669599217986
1.5376344086021505
1.5268817204301075
1.509286412512219
1.4858260019550342
1.458455522971652
1.4281524926686218
1.3958944281524928
1.3636363636363635
1.3362658846529814
1.313782991202346
1.2903225806451613
1.2658846529814272
1.2434017595307918
1.2228739002932552
1.2043010752688172
1.1867057673509287
1.1710654936461389
1.1573802541544478
1.1505376344086022
1.1564027370478984
1.1798631476050832
1.217008797653959
1.2746823069403714
1.3665689149560116
1.4946236559139785
1.6529814271749756
1.833822091886608
2.022482893450636
2.204301075268817
2.3685239491691106
2.504398826979472
2.6050830889540566
2.665689149560117
2.6881720430107525
2.678396871945259
2.6422287390029324
2.582600195503421
2.5034213098729228
2.4086021505376345
2.303030303030303
2.190615835777126
2.0733137829912023
1.9530791788856303
1.83088954056696
1.7086999022482894
1.5894428152492668
1.4887585532746823
1.3998044965786902
1.3069403714565004
1.2189638318670577
1.1407624633431086
1.0762463343108504
1.0283479960899315
0.9990224828934506
0.9882697947214076
0.9960899315738024
1.021505376344086
1.0606060606060606
1.104594330400782
1.1544477028347997
1.2140762463343109
1.278592375366569
1.343108504398827
1.4027370478983383
1.456500488758553
1.500488758553275
1.5327468230694037
1.5542521994134897
1.5669599217986314
1.5698924731182795
1.5650048875855327
1.5562072336265884
1.543499511241447
1.5249266862170088
1.500488758553275
1.4711632453567938
1.439882697947214
1.4086021505376345
1.3782991202346042
1.348973607038123
1.3206256109481915
1.2942326490713587
1.270772238514174
1.2531769305962854
1.2394916911045943
1.2228739002932552
1.206256109481916
1.1925708699902249
1.18475073313783
1.1886608015640274
1.2111436950146628
1.2609970674486803
1.3450635386119256
1.4643206256109482
1.616813294232649
1.7947214076246334
1.959921798631476
2.1163245356793743
2.2854349951124147
2.441837732160313
2.570869990224829
2.6637341153470184
2.717497556207233
2.732160312805474
2.710654936461388
2.658846529814272
2.5835777126099706
2.489736070381232
2.396871945259042
2.302052785923754
2.1945259042033234
2.080156402737048
1.9618768328445748
1.842619745845552
1.7233626588465298
1.606060606060606
1.4916911045943304
1.3822091886608017
1.2825024437927663
1.1935483870967742
1.1192570869990224
1.067448680351906
1.0342130987292275
1.010752688172043
1.0009775171065494
1.0087976539589445
1.032258064516129
1.0703812316715542
1.1202346041055715
1.1798631476050832
1.2453567937438903
1.3118279569892473
1.3743890518084063
1.426197458455523
1.469208211143695
1.5083088954056696
1.5386119257087
1.5591397849462365
1.5698924731182795
1.5718475073313782
1.5650048875855327
1.5493646138807429
1.5288367546432062
1.5034213098729228
1.4750733137829912
1.4457478005865103
1.4203323558162269
1.3958944281524928
1.3685239491691104
1.3391984359726294
1.310850439882698
1.284457478005865
1.2590420332355816
1.2346041055718475
1.2121212121212122
1.1925708699902249
1.1749755620723363
1.1622678396871946
1.1583577712609971
1.1671554252199414
1.195503421309873
1.2512218963831867
1.3411534701857282
1.4682306940371457
1.6304985337243405
1.8191593352883677
2.0205278592375366
2.218963831867057
2.39980449657869
2.5513196480938416
2.6559139784946235
2.719452590420332
2.757575757575758
2.763440860215054
2.73802541544477
2.686217008797654
2.611925708699902
2.52297165200391
2.4222873900293256
2.313782991202346
2.20039100684262
2.085043988269794
1.9687194525904204
1.866080156402737
1.7712609970674489
1.6686217008797657
1.563049853372434
1.458455522971652
1.3587487781036167
1.2688172043010753
1.1915933528836755
1.1290322580645162
1.083088954056696
1.0557184750733135
1.0469208211143697
1.053763440860215
1.0742913000977516
1.1085043988269794
1.155425219941349
1.2111436950146628
1.2727272727272727
1.33822091886608
1.4027370478983383
1.4633431085043989
1.517106549364614
1.5620723362658846
1.6236559139784943
1.689149560117302
1.7243401759530792
1.739980449657869
1.7429130009775171
1.7350928641251222
1.718475073313783
1.6950146627565983
1.667644183773216
1.6373411534701858
1.6041055718475072
1.5708699902248289
1.5386119257087
1.5083088954056696
1.4838709677419355
1.4633431085043989
1.4418377321603129
1.4213098729227762
1.4007820136852396
1.3812316715542523
1.3655913978494625
1.3558162267839686
1.3607038123167154
1.388074291300098
1.447702834799609
1.5464320625610948
1.6881720430107527
1.8387096774193548
2.002932551319648
2.2082111436950145
2.429130009775171
2.643206256109482
2.832844574780059
2.986314760508309
3.0957966764418376
3.160312805474096
3.1818181818181817
3.163245356793744
3.1114369501466275
3.0439882697947214
2.962854349951124
2.8641251221896384
2.7546432062561097
2.6392961876832843
2.5210166177908118
2.401759530791789
2.2825024437927666
2.1652003910068425
2.050830889540567
1.9403714565004888
1.833822091886608
1.732160312805474
1.6490713587487782
1.5806451612903225
1.5161290322580645
1.4623655913978495
1.4252199413489737
1.4056695992179864
1.4056695992179864
1.4242424242424243
1.4623655913978495
1.5161290322580645
1.5806451612903225
1.651026392961877
1.7145650048875856
1.7732160312805474
1.835777126099707
1.895405669599218
1.946236559139785
1.986314760508309
2.0127077223851417
2.027370478983382
2.032258064516129
2.0254154447702835
2.0087976539589443
1.9843597262952104
1.9530791788856303
1.9227761485826005
1.8914956011730208
1.8533724340175952
1.812316715542522
1.7683284457478006
1.7243401759530792
1.6813294232649072
1.6412512218963833
1.603128054740958
1.5669599217986314
1.5327468230694037
1.499511241446725
1.4721407624633431
1.4506353861192571
1.4320625610948192
1.426197458455523
1.4408602150537635
1.4868035190615836
1.5718475073313782
1.6989247311827955
1.866080156402737
2.064516129032258
2.280547409579668
2.496578690127077
2.6940371456500487
2.843597262952102
2.949169110459433
3.0303030303030303
3.0762463343108504
3.0840664711632453
3.0557184750733137
2.9980449657869013
2.916911045943304
2.8181818181818183
2.7067448680351904
2.5865102639296187
2.4613880742913
2.347996089931574
2.241446725317693
2.1251221896383186
2.002932551319648
1.8797653958944285
1.758553274682307
1.640273704789834
1.525904203323558
1.4193548387096775
1.3235581622678396
1.2424242424242424
1.1779081133919844
1.1329423264907137
1.1085043988269794
1.1006842619745845
1.1055718475073313
1.1270772238514175
1.163245356793744
1.2101661779081134
1.2658846529814272
1.3264907135874875
1.3890518084066472
1.4486803519061584
1.5024437927663734
1.5493646138807429
1.5835777126099706
1.607038123167155
1.6217008797653958
1.6265884652981428
1.6226783968719452
1.608993157380254
1.587487781036168
1.5591397849462365
1.5249266862170088
1.4868035190615836
1.447702834799609
1.4076246334310851
1.367546432062561
1.335288367546432
1.3069403714565004
1.2766373411534702
1.2473118279569892
1.219941348973607
1.195503421309873
1.173998044965787
1.155425219941349
1.1378299120234605
1.1241446725317692
1.1192570869990224
1.1319648093841643
1.160312805474096
1.2111436950146628
1.300097751710655
1.4301075268817205
1.5992179863147604
1.7976539589442817
2.0117302052785924
2.2267839687194524
2.426197458455523
2.5962854349951123
2.7262952101661777
2.812316715542522
2.854349951124145
2.859237536656892
2.832844574780059
2.7781036168132944
2.6989247311827955
2.6021505376344085
2.49266862170088
2.3734115347018574
2.249266862170088
2.1221896383186705
1.994134897360704
1.8670576735092863
1.7409579667644184
1.632453567937439
1.533724340175953
1.4271749755620724
1.3235581622678396
1.227761485826002
1.144672531769306
1.078201368523949
1.0303030303030305
1.002932551319648
0.9941348973607038
1.0039100684261977
1.032258064516129
1.0694037145650048
1.115347018572825
1.1749755620723363
1.2434017595307918
1.3157380254154447
1.3870967741935485
1.452590420332356
1.5112414467253177
1.5591397849462365
1.5962854349951123
1.6207233626588464
1.632453567937439
1.6344086021505375
1.6304985337243405
1.6217008797653958
1.6050830889540566
1.5806451612903225
1.552297165200391
1.5190615835777126
1.4838709677419355
1.4486803519061584
1.4134897360703813
1.380254154447703
1.348973607038123
1.3206256109481915
1.300097751710655
1.284457478005865
1.267839687194526
1.2512218963831867
1.2355816226783969
1.2218963831867058
1.2111436950146628
1.2082111436950147
1.219941348973607
1.2570869990224829
1.3264907135874875
1.4320625610948192
1.5757575757575757
1.7233626588465298
1.8807429130009776
2.071358748778104
2.271749755620724
2.4604105571847508
2.622678396871945
2.748778103616813
2.831867057673509
2.870967741935484
2.8699902248289346
2.832844574780059
2.766373411534702
2.687194525904203
2.598240469208211
2.489736070381232
2.3685239491691106
2.2404692082111435
2.0879765395894427
1.927663734115347
1.7878787878787878
1.6608015640273706
1.541544477028348
1.4301075268817205
1.3264907135874875
1.2336265884652982
1.1622678396871946
1.1085043988269794
1.06158357771261
1.0273704789833822
1.0087976539589445
1.007820136852395
1.0234604105571847
1.0547409579667644
1.099706744868035
1.155425219941349
1.2189638318670577
1.2864125122189638
1.3470185728250244
1.401759530791789
1.457478005865103
1.5073313782991202
1.5483870967741935
1.576735092864125
1.5943304007820136
1.6001955034213098
1.5962854349951123
1.585532746823069
1.56891495601173
1.547409579667644
1.521994134897361
1.499511241446725
1.478983382209189
1.4545454545454546
1.4291300097751711
1.4037145650048877
1.3782991202346042
1.35386119257087
1.3294232649071358
1.3069403714565004
1.2873900293255132
1.2697947214076246
1.2531769305962854
1.2404692082111437
1.2326490713587488
1.227761485826002
1.2336265884652982
1.2561094819159335
1.303030303030303
1.3822091886608017
1.4965786901270772
1.6441837732160314
1.8172043010752688
2.005865102639296
2.1955034213098727
2.372434017595308
2.506353861192571
2.6021505376344085
2.677419354838709
2.721407624633431
2.732160312805474
2.710654936461388
2.659824046920821
2.5865102639296187
2.496578690127077
2.393939393939394
2.2825024437927666
2.167155425219941
2.0625610948191597
1.963831867057673
1.8563049853372435
1.7438905180840665
1.632453567937439
1.5239491691104594
1.418377321603128
1.3206256109481915
1.2336265884652982
1.160312805474096
1.1036168132942326
1.0635386119257086
1.040078201368524
1.0342130987292275
1.043010752688172
1.0664711632453567
1.1036168132942326
1.1534701857282503
1.2121212121212122
1.2756598240469208
1.3401759530791788
1.404692082111437
1.4652981427174976
1.517106549364614
1.5591397849462365
1.5894428152492668
1.6109481915933528
1.6256109481915937
1.632453567937439
1.6314760508308896
1.6217008797653958
1.606060606060606
1.5865102639296187
1.5620723362658846
1.5347018572825024
1.5053763440860215
1.474095796676442
1.4437927663734116
1.4203323558162269
1.4007820136852396
1.3773216031280548
1.3548387096774193
1.3333333333333333
1.3118279569892473
1.2913000977517106
1.2727272727272727
1.2561094819159335
1.24633431085044
1.249266862170088
1.2727272727272727
1.3118279569892473
1.375366568914956
1.478983382209189
1.6187683284457477
1.7888563049853372
1.978494623655914
2.1730205278592374
2.358748778103617
2.5219941348973607
2.6510263929618767
2.7419354838709675
2.793743890518084
2.806451612903226
2.790811339198436
2.7517106549364616
2.689149560117302
2.608993157380254
2.5141739980449658
2.409579667644184
2.2981427174975564
2.182795698924731
2.065493646138808
1.9472140762463344
1.8318670576735088
1.721407624633431
1.6265884652981428
1.542521994134897
1.4535679374389052
1.367546432062561
1.2883675464320623
1.2218963831867058
1.1691104594330402
1.1329423264907137
1.1143695014662756
1.1133919843597262
1.130987292277615
1.164222873900293
1.2111436950146628
1.260019550342131
1.310850439882698
1.370478983382209
1.434017595307918
1.4965786901270772
1.555229716520039
1.607038123167155
1.6500488758553276
1.683284457478006
1.7067448680351909
1.7204301075268815
1.7253176930596286
1.7233626588465298
1.715542521994135
1.7008797653958945
1.6813294232649072
1.6588465298142718
1.632453567937439
1.6041055718475072
1.5757575757575757
1.547409579667644
1.520039100684262
1.4946236559139785
1.4701857282502444
1.4496578690127078
1.4320625610948192
1.412512218963832
1.392961876832845
1.3743890518084063
1.3616813294232648
1.3626588465298142
1.3851417399804498
1.4379276637341154
1.5268817204301075
1.6549364613880744
1.8191593352883677
2.010752688172043
2.188660801564027
2.35386119257087
2.530791788856305
2.6940371456500487
2.8289345063538613
2.927663734115347
2.986314760508309
3.005865102639296
2.9902248289345064
2.946236559139785
2.878787878787879
2.793743890518084
2.7067448680351904
2.6177908113391983
2.5180840664711632
2.412512218963832
2.304985337243402
2.196480938416422
2.0879765395894427
1.981427174975562
1.8797653958944285
1.782991202346041
1.6911045943304008
1.6080156402737047
1.5347018572825024
1.479960899315738
1.4408602150537635
1.409579667644184
1.3919843597262953
1.391006842619746
1.4056695992179864
1.435972629521017
1.479960899315738
1.5356793743890518
1.598240469208211
1.6656891495601174
1.732160312805474
1.7878787878787878
1.8347996089931573
1.8807429130009776
1.919843597262952
1.9501466275659824
1.9696969696969695
1.978494623655914
1.978494623655914
1.967741935483871
1.948191593352884
1.921798631476051
1.8905180840664717
1.8543499511241448
1.8211143695014664
1.7888563049853372
1.7517106549364614
1.7135874877810362
1.675464320625611
1.6373411534701858
1.6011730205278591
1.5669599217986314
1.5347018572825024
1.504398826979472
1.4760508308895406
1.4516129032258065
1.4349951124144673
1.4281524926686218
1.434017595307918
1.4633431085043989
1.5239491691104594
1.6217008797653958
1.7546432062561097
1.916911045943304
2.0987292277614857
2.2873900293255134
2.4682306940371457
2.627565982404692
2.7546432062561097
2.8367546432062563
2.8797653958944283
2.8963831867057674
2.8836754643206257
2.843597262952102
2.779081133919844
2.6959921798631474
2.60019550342131
2.4946236559139785
2.383186705767351
2.269794721407625
2.1544477028347995
2.0527859237536656
1.9589442815249267
1.857282502443793
1.7546432062561097
1.6520039100684265
1.5532746823069403
1.4604105571847508
1.3763440860215057
1.3040078201368523
1.2443792766373412
1.1994134897360704
1.1700879765395895
1.1583577712609971
1.160312805474096
1.1749755620723363
1.2023460410557183
1.2404692082111437
1.2864125122189638
1.3372434017595307
1.3900293255131966
1.4418377321603129
1.4897360703812317
1.5317693059628543
1.5650048875855327
1.5894428152492668
1.6050830889540566
1.611925708699902
1.6109481915933528
1.6021505376344083
1.5865102639296187
1.5650048875855327
1.5386119257087
1.5102639296187683
1.478005865102639
1.444770283479961
1.4105571847507332
1.3773216031280548
1.3450635386119256
1.3196480938416422
1.2991202346041055
1.2766373411534702
1.2551319648093842
1.2346041055718475
1.2150537634408602
1.1964809384164223
1.1808406647116323
1.1710654936461389
1.1700879765395895
1.1857282502443791
1.2258064516129032
1.2825024437927663
1.3607038123167154
1.47702834799609
1.6285434995112416
1.804496578690127
1.992179863147605
2.176930596285435
2.3440860215053765
2.4838709677419355
2.5884652981427174
2.6529814271749754
2.679374389051808
2.6695992179863146
2.6373411534701856
2.5865102639296187
2.5131964809384164
2.4242424242424243
2.3255131964809386
2.220918866080156
2.112414467253177
2.0019550342130987
1.8905180840664717
1.780058651026393
1.6695992179863148
1.5620723362658846
1.4711632453567938
1.391006842619746
1.3079178885630498
1.23069403714565
1.163245356793744
1.1094819159335287
1.072336265884653
1.0518084066471165
1.0478983382209188
1.0596285434995112
1.086021505376344
1.1251221896383188
1.1749755620723363
1.2258064516129032
1.2776148582600195
1.335288367546432
1.393939393939394
1.4496578690127078
1.499511241446725
1.5405669599217986
1.5708699902248289
1.5913978494623655
1.603128054740958
1.606060606060606
1.6001955034213098
1.590420332355816
1.576735092864125
1.555229716520039
1.5288367546432062
1.499511241446725
1.469208211143695
1.4389051808406648
1.4105571847507332
1.3841642228739004
1.3587487781036167
1.335288367546432
1.313782991202346
1.2981427174975562
1.2854349951124144
1.2717497556207231
1.2570869990224829
1.2434017595307918
1.2336265884652982
1.2336265884652982
1.249266862170088
1.2864125122189638
1.3528836754643203
1.452590420332356
1.58455522971652
1.7429130009775171
1.8934506353861196
2.0391006842619745
2.20039100684262
2.3548387096774195
2.487781036168133
2.589442815249267
2.653958944281525
2.681329423264907
2.673509286412512
2.635386119257087
2.5718475073313782
2.489736070381232
2.406647116324536
2.320625610948192
2.218963831867057
2.10850439882698
1.9931573802541545
1.8758553274682308
1.7575757575757576
1.6422287390029326
1.5298142717497556
1.4222873900293256
1.3225806451612905
1.2336265884652982
1.1583577712609971
1.104594330400782
1.0694037145650048
1.04594330400782
1.0361681329423265
1.0410557184750733
1.0625610948191593
1.0987292277614855
1.1466275659824048
1.203323558162268
1.2649071358748778
1.3284457478005864
1.391006842619746
1.4437927663734116
1.487781036168133
1.5278592375366569
1.5620723362658846
1.5894428152492668
1.6080156402737047
1.6177908113391983
1.6177908113391983
1.6109481915933528
1.5972629521016617
1.5796676441837731
1.5581622678396871
1.533724340175953
1.5112414467253177
1.490713587487781
1.466275659824047
1.439882697947214
1.4134897360703813
1.388074291300098
1.364613880742913
1.3440860215053765
1.324535679374389
1.305962854349951
1.2883675464320623
1.273704789833822
1.2668621700879763
1.2668621700879763
1.2766373411534702
1.3040078201368523
1.3577712609970674
1.4437927663734116
1.563049853372434
1.7135874877810362
1.8875855327468232
2.072336265884653
2.254154447702835
2.418377321603128
2.5532746823069403
2.644183773216031
2.697947214076246
2.727272727272727
2.7262952101661777
2.696969696969697
2.641251221896383
2.565982404692082
2.4760508308895406
2.3743890518084068
2.264907135874878
2.1524926686217007
2.038123167155425
1.9374389051808407
1.844574780058651
1.7429130009775171
1.6383186705767352
1.5356793743890518
1.436950146627566
1.3470185728250244
1.267839687194526
1.2023460410557183
1.152492668621701
1.1192570869990224
1.1026392961876832
1.1036168132942326
1.1173020527859236
1.142717497556207
1.1798631476050832
1.227761485826002
1.2834799608993157
1.3450635386119256
1.4105571847507332
1.4760508308895406
1.5376344086021505
1.5933528836754642
1.6383186705767352
1.672531769305963
1.6959921798631477
1.710654936461388
1.718475073313783
1.718475073313783
1.710654936461388
1.6979472140762464
1.6803519061583578
1.6598240469208212
1.6363636363636365
1.6099706744868034
1.5826001955034212
1.5542521994134897
1.525904203323558
1.5034213098729228
1.4838709677419355
1.4623655913978495
1.439882697947214
1.418377321603128
1.3998044965786902
1.383186705767351
1.3714565004887584
1.3724340175953078
1.393939393939394
1.444770283479961
1.5317693059628543
1.632453567937439
1.7546432062561097
1.920821114369501
2.115347018572825
2.320625610948192
2.5190615835777126
2.695014662756598
2.8377321603128056
2.941348973607038
3.003910068426197
3.026392961876833
3.0127077223851417
2.9687194525904204
2.90811339198436
2.834799608993157
2.742913000977517
2.6392961876832843
2.5288367546432062
2.41544477028348
2.3010752688172045
2.1867057673509285
2.075268817204301
1.9657869012707725
1.8602150537634408
1.7605083088954057
1.678396871945259
1.6080156402737047
1.5386119257087
1.478005865102639
1.4291300097751711
1.3958944281524928
1.380254154447703
1.3822091886608017
1.3998044965786902
1.434017595307918
1.482893450635386
1.541544477028348
1.6050830889540566
1.6627565982404693
1.715542521994135
1.7712609970674489
1.825024437927664
1.870967741935484
1.90811339198436
1.9345063538611929
1.9501466275659824
1.956989247311828
1.9550342130987293
1.943304007820137
1.924731182795699
1.903225806451613
1.878787878787879
1.8494623655913975
1.8162267839687196
1.780058651026393
1.7419354838709675
1.7018572825024438
1.6637341153470186
1.6275659824046922
1.5933528836754642
1.560117302052786
1.5268817204301075
1.495601173020528
1.469208211143695
1.4467253176930597
1.4271749755620724
1.4173998044965788
1.4252199413489737
1.4594330400782014
1.5278592375366569
1.635386119257087
1.780058651026393
1.9550342130987293
2.1485826001955037
2.345063538611926
2.5083088954056696
2.6392961876832843
2.758553274682307
2.849462365591398
2.9042033235581624
2.920821114369501
2.903225806451613
2.855327468230694
2.782991202346041
2.69208211143695
2.587487781036168
2.474095796676442
2.36950146627566
2.269794721407625
2.1593352883675463
2.0449657869012707
1.9296187683284456
1.8162267839687196
1.7057673509286413
