ppg
1.187683284457478
1.160312805474096
1.1319648093841643
1.1036168132942326
1.0772238514173995
1.0586510263929618
1.0547409579667644
1.0742913000977516
1.126099706744868
1.2160312805474096
1.3235581622678396
1.4535679374389052
1.629521016617791
1.835777126099707
2.0547409579667644
2.270772238514174
2.4701857282502444
2.6392961876832843
2.773216031280548
2.868035190615836
2.9237536656891496
2.943304007820137
2.9345063538611926
2.902248289345064
2.8484848484848486
2.777126099706745
2.689149560117302
2.5865102639296187
2.4731182795698925
2.350928641251222
2.220918866080156
2.0869990224828934
1.9501466275659824
1.81524926686217
1.6842619745845553
1.573802541544477
1.478005865102639
1.3822091886608017
1.2932551319648091
1.217008797653959
1.155425219941349
1.110459433040078
1.083088954056696
1.0713587487781036
1.0733137829912025
1.0879765395894427
1.1114369501466277
1.1378299120234605
1.1671554252199414
1.2013685239491692
1.2365591397849462
1.2697947214076246
1.300097751710655
1.3255131964809383
1.346041055718475
1.359726295210166
1.367546432062561
1.3685239491691104
1.3636363636363635
1.3558162267839686
1.346041055718475
1.3304007820136852
1.3088954056695992
1.284457478005865
1.2580645161290325
1.2297165200391007
1.2013685239491692
1.1720430107526882
1.141739980449658
1.1114369501466277
1.0840664711632453
1.0654936461388074
1.0596285434995112
1.0713587487781036
1.1094819159335287
1.1837732160312806
1.2981427174975562
1.4545454545454546
1.6451612903225807
1.8592375366568916
2.0821114369501466
2.2991202346041058
2.495601173020528
2.66177908113392
2.779081133919844
2.8563049853372435
2.9120234604105573
2.9393939393939394
2.9374389051808407
2.90811339198436
2.8563049853372435
2.78494623655914
2.696969696969697
2.5962854349951123
2.484848484848485
2.363636363636364
2.2355816226783967
2.1192570869990224
2.007820136852395
1.8836754643206255
1.7565982404692082
1.632453567937439
1.5141739980449658
1.4066471163245358
1.3118279569892473
1.2316715542521994
1.1681329423264908
1.1221896383186705
1.0918866080156402
1.0791788856304985
1.0791788856304985
1.088954056695992
1.10752688172043
1.1329423264907137
1.164222873900293
1.1974584555229717
1.23069403714565
1.2619745845552297
1.2903225806451613
1.313782991202346
1.332355816226784
1.3450635386119256
1.3528836754643203
1.356793743890518
1.35386119257087
1.346041055718475
1.332355816226784
1.3147605083088951
1.2932551319648091
1.2688172043010753
1.2424242424242424
1.2140762463343109
1.1857282502443791
1.1564027370478984
1.1319648093841643
1.1114369501466277
1.0879765395894427
1.0664711632453567
1.0557184750733135
1.0635386119257086
1.1006842619745845
1.173998044965787
1.289345063538612
1.4467253176930597
1.6383186705767352
1.8533724340175952
2.0772238514174
2.2688172043010755
2.43108504398827
2.591397849462365
2.730205278592375
2.8367546432062563
2.906158357771261
2.940371456500489
2.941348973607038
2.913000977517106
2.8611925708699903
2.789833822091887
2.7038123167155423
2.6158357771261
2.52297165200391
2.41544477028348
2.2961876832844577
2.1700879765395893
2.0391006842619745
1.9071358748778104
1.7761485826001957
1.6500488758553276
1.530791788856305
1.4222873900293256
1.3264907135874875
1.2453567937438903
1.1867057673509287
1.1456500488758554
1.1133919843597262
1.0928641251221896
1.086021505376344
1.0909090909090908
1.1055718475073313
1.1280547409579669
1.155425219941349
1.1867057673509287
1.2189638318670577
1.2502443792766371
1.2776148582600195
1.3010752688172045
1.321603128054741
1.3372434017595307
1.3470185728250244
1.3509286412512218
1.3479960899315735
1.3391984359726294
1.3255131964809383
1.3069403714565004
1.284457478005865
1.260019550342131
1.2336265884652982
1.2121212121212122
1.1925708699902249
1.1681329423264908
1.1407624633431086
1.1124144672531768
1.0840664711632453
1.0596285434995112
1.04594330400782
1.0518084066471165
1.086021505376344
1.1564027370478984
1.2688172043010753
1.3958944281524928
1.542521994134897
1.732160312805474
1.9472140762463344
2.1681329423264906
2.378299120234604
2.5640273704789838
2.7155425219941347
2.8299120234604107
2.9042033235581624
2.9423264907135875
2.9472140762463344
2.921798631476051
2.878787878787879
2.820136852394917
2.7419354838709675
2.649071358748778
2.5454545454545454
2.432062561094819
2.310850439882698
2.1837732160312804
2.0527859237536656
1.920821114369501
1.7898338220918866
1.6627565982404693
1.552297165200391
1.452590420332356
1.3558162267839686
1.267839687194526
1.1925708699902249
1.1329423264907137
1.0899315738025417
1.0635386119257086
1.0518084066471165
1.053763440860215
1.0664711632453567
1.0879765395894427
1.1163245356793745
1.144672531769306
1.1730205278592376
1.203323558162268
1.2326490713587488
1.2590420332355816
1.2805474095796676
1.2971652003910068
1.3069403714565004
1.3098729227761483
1.3069403714565004
1.2971652003910068
1.281524926686217
1.2658846529814272
1.2482893450635386
1.224828934506354
1.1964809384164223
1.1671554252199414
1.1358748778103618
1.1036168132942326
1.0703812316715542
1.0361681329423265
1.002932551319648
0.9716520039100685
0.9491691104594332
0.9433040078201368
0.9560117302052786
0.9941348973607038
1.0713587487781036
1.1925708699902249
1.356793743890518
1.5571847507331378
1.7820136852394917
2.0146627565982405
2.239491691104594
2.442815249266862
2.613880742913001
2.747800586510264
2.832844574780059
2.877810361681329
2.8993157380254155
2.89247311827957
2.859237536656892
2.8025415444770285
2.727272727272727
2.635386119257087
2.529814271749756
2.4134897360703813
2.2883675464320627
2.157380254154448
2.038123167155425
1.924731182795699
1.7976539589442817
1.6666666666666667
1.5376344086021505
1.41544477028348
1.303030303030303
1.203323558162268
1.1192570869990224
1.0518084066471165
1.0019550342130987
0.9687194525904204
0.9521016617790812
0.9501466275659824
0.9589442815249268
0.9775171065493646
1.002932551319648
1.0342130987292275
1.0694037145650048
1.104594330400782
1.13880742913001
1.1691104594330402
1.1945259042033236
1.2150537634408602
1.2297165200391007
1.2394916911045943
1.2434017595307918
1.241446725317693
1.2336265884652982
1.219941348973607
1.2023460410557183
1.181818181818182
1.1573802541544478
1.1319648093841643
1.1055718475073313
1.078201368523949
1.0498533724340176
1.021505376344086
0.9990224828934506
0.981427174975562
0.9638318670576737
0.9550342130987292
0.9648093841642228
1.002932551319648
1.078201368523949
1.195503421309873
1.356793743890518
1.5542521994134897
1.7781036168132942
2.0117302052785924
2.212121212121212
2.3841642228739004
2.555229716520039
2.702834799608993
2.817204301075269
2.8944281524926687
2.9335288367546437
2.93841642228739
2.9120234604105573
2.860215053763441
2.788856304985337
2.699902248289345
2.595307917888563
2.49266862170088
2.388074291300098
2.267839687194526
2.1358748778103616
1.9980449657869013
1.858260019550342
1.7204301075268815
1.587487781036168
1.4633431085043989
1.3499511241446724
1.2512218963831867
1.1681329423264908
1.1094819159335287
1.0694037145650048
1.0391006842619743
1.021505376344086
1.018572825024438
1.0283479960899315
1.0478983382209188
1.0762463343108504
1.1094819159335287
1.1466275659824048
1.1837732160312806
1.2189638318670577
1.2502443792766371
1.2756598240469208
1.295210166177908
1.310850439882698
1.3206256109481915
1.324535679374389
1.3235581622678396
1.3176930596285434
1.3079178885630498
1.2942326490713587
1.2776148582600195
1.260019550342131
1.2404692082111437
1.224828934506354
1.2101661779081134
1.1915933528836755
1.1710654936461389
1.1495601173020529
1.1300097751710656
1.118279569892473
1.1221896383186705
1.1495601173020529
1.2101661779081134
1.310850439882698
1.4535679374389052
1.6334310850439884
1.8103616813294232
1.988269794721408
2.1945259042033234
2.403714565004888
2.598240469208211
2.764418377321604
2.895405669599218
2.9872922776148583
3.0410557184750733
3.058651026392962
3.04594330400782
3.006842619745845
2.952101661779081
2.884652981427175
2.7996089931573804
2.7008797653958942
2.591397849462365
2.4731182795698925
2.347018572825025
2.2160312805474094
2.0821114369501466
1.948191593352884
1.8172043010752688
1.6911045943304008
1.573802541544477
1.478005865102639
1.3988269794721409
1.3235581622678396
1.2570869990224829
1.2043010752688172
1.166177908113392
1.141739980449658
1.1300097751710656
1.1300097751710656
1.1397849462365592
1.1573802541544478
1.1798631476050832
1.203323558162268
1.2267839687194526
1.2512218963831867
1.2746823069403714
1.2942326490713587
1.3088954056695992
1.3186705767350928
1.3225806451612905
1.3206256109481915
1.313782991202346
1.3020527859237536
1.2864125122189638
1.2668621700879763
1.249266862170088
1.2326490713587488
1.2111436950146628
1.1857282502443791
1.1583577712609971
1.130987292277615
1.1016617790811338
1.0733137829912025
1.0469208211143697
1.029325513196481
1.0283479960899315
1.053763440860215
1.099706744868035
1.1749755620723363
1.2981427174975562
1.4643206256109482
1.667644183773216
1.8944281524926687
2.129032258064516
2.355816226783969
2.560117302052786
2.732160312805474
2.865102639296188
2.9579667644183774
3.010752688172043
3.026392961876833
3.013685239491691
2.979472140762464
2.924731182795699
2.852394916911046
2.7653958944281527
2.6529814271749754
2.5268817204301075
2.4056695992179864
2.283479960899316
2.1593352883675463
2.034213098729228
1.924731182795699
1.823069403714565
1.7135874877810362
1.6041055718475072
1.500488758553275
1.4076246334310851
1.3264907135874875
1.2590420332355816
1.206256109481916
1.1691104594330402
1.1456500488758554
1.1358748778103618
1.1378299120234605
1.147605083088954
1.163245356793744
1.1837732160312806
1.2082111436950147
1.2336265884652982
1.2590420332355816
1.2825024437927663
1.303030303030303
1.3186705767350928
1.3294232649071358
1.3343108504398826
1.3343108504398826
1.332355816226784
1.327468230694037
1.316715542521994
1.3020527859237536
1.2834799608993157
1.2619745845552297
1.238514173998045
1.2140762463343109
1.1886608015640274
1.1612903225806452
1.133919843597263
1.10752688172043
1.0869990224828934
1.0742913000977516
1.067448680351906
1.0772238514173995
1.1133919843597262
1.1827956989247312
1.2903225806451613
1.435972629521017
1.6148582600195502
1.8172043010752688
2.0283479960899315
2.233626588465298
2.420332355816227
2.5620723362658846
2.6666666666666665
2.7546432062561097
2.81622678396872
2.8475073313782997
2.849462365591398
2.8260019550342133
2.780058651026393
2.716520039100684
2.6373411534701856
2.5454545454545454
2.442815249266862
2.345063538611926
2.2482893450635384
2.136852394916911
2.0175953079178885
1.8944281524926687
1.772238514173998
1.6529814271749756
1.5395894428152492
1.4349951124144673
1.3421309872922775
1.262952101661779
1.1974584555229717
1.147605083088954
1.1163245356793745
1.099706744868035
1.0918866080156402
1.093841642228739
1.1055718475073313
1.1241446725317692
1.1485826001955035
1.1759530791788857
1.2043010752688172
1.2326490713587488
1.2580645161290325
1.2795698924731185
1.2971652003910068
1.3098729227761483
1.3186705767350928
1.3225806451612905
1.3206256109481915
1.313782991202346
1.3020527859237536
1.2864125122189638
1.267839687194526
1.2473118279569892
1.224828934506354
1.2003910068426198
1.1759530791788857
1.1564027370478984
1.13880742913001
1.1173020527859236
1.0948191593352885
1.0762463343108504
1.067448680351906
1.075268817204301
1.1085043988269794
1.173998044965787
1.2776148582600195
1.4193548387096775
1.5933528836754642
1.7624633431085044
1.927663734115347
2.115347018572825
2.3010752688172045
2.469208211143695
2.608993157380254
2.7145650048875853
2.7839687194525906
2.8181818181818183
2.8211143695014664
2.7966764418377323
2.7497556207233624
2.684261974584555
2.6129032258064515
2.5347018572825024
2.4408602150537635
2.334310850439883
2.219941348973607
2.0987292277614857
1.9745845552297163
1.8484848484848484
1.7253176930596286
1.606060606060606
1.4946236559139785
1.392961876832845
1.313782991202346
1.2512218963831867
1.1935483870967742
1.1466275659824048
1.1133919843597262
1.093841642228739
1.0869990224828934
1.0918866080156402
1.1065493646138806
1.1290322580645162
1.155425219941349
1.18475073313783
1.2150537634408602
1.2424242424242424
1.2668621700879763
1.289345063538612
1.3079178885630498
1.3225806451612905
1.3313782991202343
1.3343108504398826
1.332355816226784
1.324535679374389
1.3118279569892473
1.2961876832844574
1.2766373411534702
1.2590420332355816
1.2424242424242424
1.2218963831867058
1.198435972629521
1.173998044965787
1.1485826001955035
1.1221896383186705
1.096774193548387
1.075268817204301
1.0635386119257086
1.067448680351906
1.0977517106549364
1.1612903225806452
1.2424242424242424
1.3479960899315735
1.498533724340176
1.6823069403714566
1.8856304985337244
2.093841642228739
2.29227761485826
2.4682306940371457
2.613880742913001
2.724340175953079
2.798631476050831
2.8377321603128056
2.8455522971652005
2.827956989247312
2.789833822091887
2.7341153470185726
2.6608015640273703
2.573802541544477
2.4750733137829912
2.367546432062561
2.2521994134897363
2.131964809384164
2.0087976539589443
1.8836754643206255
1.7605083088954057
1.6559139784946235
1.563049853372434
1.4672531769305963
1.3773216031280548
1.2981427174975562
1.2316715542521994
1.1798631476050832
1.1436950146627567
1.1231671554252198
1.115347018572825
1.1192570869990224
1.1329423264907137
1.152492668621701
1.1759530791788857
1.203323558162268
1.2326490713587488
1.2609970674486803
1.2883675464320623
1.3118279569892473
1.3313782991202343
1.346041055718475
1.3548387096774193
1.3577712609970674
1.3548387096774193
1.3470185728250244
1.33822091886608
1.327468230694037
1.310850439882698
1.2903225806451613
1.267839687194526
1.2443792766373412
1.219941348973607
1.1945259042033236
1.1681329423264908
1.141739980449658
1.115347018572825
1.0928641251221896
1.0801564027370478
1.0811339198435972
1.0987292277614855
1.1436950146627567
1.2238514173998043
1.343108504398827
1.498533724340176
1.6842619745845553
1.889540566959922
2.099706744868035
2.3010752688172045
2.479960899315738
2.613880742913001
2.7370478983382207
2.857282502443793
2.9286412512218964
2.9589442815249267
2.9550342130987293
2.921798631476051
2.865102639296188
2.788856304985337
2.696969696969697
2.591397849462365
2.4750733137829912
2.3499511241446727
2.2346041055718477
2.12316715542522
1.9980449657869013
1.8670576735092863
1.7360703812316716
1.6099706744868034
1.4916911045943304
1.3841642228739004
1.2913000977517106
1.2140762463343109
1.1544477028347997
1.1114369501466277
1.0869990224828934
1.078201368523949
1.0791788856304985
1.0909090909090908
1.110459433040078
1.1368523949169111
1.1671554252199414
1.1994134897360704
1.2316715542521994
1.2619745845552297
1.289345063538612
1.3118279569892473
1.3284457478005864
1.3401759530791788
1.3470185728250244
1.3470185728250244
1.3411534701857282
1.3294232649071358
1.3128054740957966
1.29227761485826
1.2688172043010753
1.2424242424242424
1.2150537634408602
1.1867057673509287
1.1573802541544478
1.1329423264907137
1.1114369501466277
1.086021505376344
1.0606060606060606
1.040078201368524
1.032258064516129
1.0469208211143697
1.0928641251221896
1.1788856304985338
1.3088954056695992
1.479960899315738
1.6852394916911049
1.9120234604105573
2.114369501466276
2.2961876832844577
2.4858260019550342
2.658846529814272
2.80058651026393
2.905180840664712
2.970674486803519
3.0
2.997067448680352
2.964809384164223
2.90811339198436
2.832844574780059
2.7517106549364616
2.6637341153470184
2.5591397849462365
2.442815249266862
2.318670576735093
2.188660801564027
2.053763440860215
1.9178885630498532
1.7839687194525904
1.653958944281525
1.5327468230694037
1.4222873900293256
1.324535679374389
1.2512218963831867
1.1964809384164223
1.1495601173020529
1.1143695014662756
1.0928641251221896
1.086021505376344
1.0909090909090908
1.1055718475073313
1.1290322580645162
1.1573802541544478
1.1886608015640274
1.2209188660801564
1.249266862170088
1.273704789833822
1.2961876832844574
1.3147605083088951
1.3284457478005864
1.335288367546432
1.3362658846529814
1.3313782991202343
1.321603128054741
1.3069403714565004
1.2873900293255132
1.2649071358748778
1.2394916911045943
1.2179863147605083
1.198435972629521
1.173998044965787
1.1466275659824048
1.1173020527859236
1.0869990224828934
1.0586510263929618
1.0361681329423265
1.0254154447702837
1.035190615835777
1.075268817204301
1.1544477028347997
1.2531769305962854
1.3782991202346042
1.552297165200391
1.7605083088954057
1.988269794721408
2.218963831867057
2.434017595307918
2.622678396871945
2.776148582600196
2.8905180840664717
2.963831867057673
2.99902248289345
3.0
2.975562072336266
2.930596285434995
2.865102639296188
2.782991202346041
2.687194525904203
2.579667644183773
2.463343108504399
2.3391984359726297
2.209188660801564
2.075268817204301
1.9403714565004888
1.8064516129032255
1.6920821114369502
1.5913978494623655
1.487781036168133
1.3890518084066472
1.3010752688172045
1.227761485826002
1.1700879765395895
1.1280547409579669
1.1026392961876832
1.0918866080156402
1.093841642228739
1.10752688172043
1.1290322580645162
1.1534701857282503
1.1808406647116323
1.2111436950146628
1.2404692082111437
1.2688172043010753
1.29227761485826
1.310850439882698
1.324535679374389
1.332355816226784
1.3343108504398826
1.3304007820136852
1.3196480938416422
1.3088954056695992
1.2961876832844574
1.2766373411534702
1.252199413489736
1.2258064516129032
1.1974584555229717
1.1691104594330402
1.1397849462365592
1.1094819159335287
1.0791788856304985
1.050830889540567
1.0263929618768328
1.013685239491691
1.0156402737047898
1.0391006842619743
1.093841642228739
1.1896383186705768
1.3284457478005864
1.5073313782991202
1.718475073313783
1.949169110459433
2.1818181818181817
2.401759530791789
2.5962854349951123
2.755620723362659
2.8641251221896384
2.930596285434995
2.973607038123167
2.988269794721408
2.973607038123167
2.932551319648094
2.870967741935484
2.791788856304985
2.696969696969697
2.590420332355816
2.474095796676442
2.3499511241446727
2.219941348973607
2.101661779081134
1.9902248289345064
1.866080156402737
1.7390029325513197
1.6148582600195502
1.4965786901270772
1.3890518084066472
1.295210166177908
1.217008797653959
1.155425219941349
1.110459433040078
1.083088954056696
1.072336265884653
1.0733137829912025
1.0840664711632453
1.1026392961876832
1.1280547409579669
1.1573802541544478
1.1886608015640274
1.219941348973607
1.249266862170088
1.2746823069403714
1.295210166177908
1.310850439882698
1.321603128054741
1.327468230694037
1.327468230694037
1.321603128054741
1.3098729227761483
1.2932551319648091
1.2727272727272727
1.249266862170088
1.2228739002932552
1.195503421309873
1.1671554252199414
1.13880742913001
1.1085043988269794
1.0850439882697946
1.064516129032258
1.0410557184750733
1.021505376344086
1.0146627565982405
1.0303030303030305
1.0772238514173995
1.164222873900293
1.2932551319648091
1.4633431085043989
1.6666666666666667
1.8914956011730208
2.090909090909091
2.270772238514174
2.4565004887585533
2.624633431085044
2.7624633431085046
2.863147605083089
2.9257086999022484
2.952101661779081
2.945259042033236
2.9100684261974585
2.852394916911046
2.776148582600196
2.6852394916911044
2.593352883675464
2.498533724340176
2.388074291300098
2.2668621700879767
2.1378299120234603
2.004887585532747
1.871945259042033
1.7409579667644184
1.6148582600195502
1.4975562072336266
1.391006842619746
1.2971652003910068
1.2267839687194526
1.173998044965787
1.1290322580645162
1.0957966764418376
1.0762463343108504
1.0703812316715542
1.0772238514173995
1.0948191593352885
1.1192570869990224
1.1495601173020529
1.181818181818182
1.2140762463343109
1.2443792766373412
1.2697947214076246
1.2903225806451613
1.3069403714565004
1.3186705767350928
1.324535679374389
1.3235581622678396
1.316715542521994
1.3049853372434017
1.2883675464320623
1.2668621700879763
1.2424242424242424
1.2140762463343109
1.1906158357771262
1.1681329423264908
1.1407624633431086
1.110459433040078
1.078201368523949
1.0449657869012707
1.0127077223851415
0.9853372434017597
0.967741935483871
0.9706744868035192
1.0019550342130987
1.0694037145650048
1.1798631476050832
1.305962854349951
1.452590420332356
1.6441837732160314
1.8602150537634408
2.083088954056696
2.294232649071359
2.4819159335288368
2.636363636363636
2.752688172043011
2.8299120234604107
2.8690127077223853
2.874877810361681
2.855327468230694
2.8152492668621703
2.7536656891495603
2.675464320625611
2.582600195503421
2.4780058651026398
2.3626588465298144
2.239491691104594
2.1094819159335287
1.9745845552297163
1.836754643206256
1.699902248289345
1.5669599217986314
1.455522971652004
1.3607038123167154
1.2639296187683284
1.1749755620723363
1.0987292277614855
1.0381231671554252
0.9941348973607038
0.9657869012707724
0.9530791788856304
0.95405669599218
0.967741935483871
0.9902248289345064
1.0166177908113392
1.04594330400782
1.0791788856304985
1.1133919843597262
1.1466275659824048
1.1759530791788857
1.2003910068426198
1.2179863147605083
1.2287390029325511
1.2336265884652982
1.2326490713587488
1.2258064516129032
1.2140762463343109
1.2023460410557183
1.1896383186705768
1.1710654936461389
1.1485826001955035
1.1241446725317692
1.0977517106549364
1.0713587487781036
1.0439882697947214
1.0166177908113392
0.9902248289345064
0.9667644183773216
0.9530791788856304
0.9530791788856304
0.9726295210166178
1.0205278592375366
1.1055718475073313
1.2336265884652982
1.4027370478983383
1.606060606060606
1.8299120234604105
2.059628543499511
2.280547409579668
2.479960899315738
2.64613880742913
2.774193548387097
2.854349951124145
2.8963831867057674
2.913978494623656
2.905180840664712
2.870967741935484
2.814271749755621
2.73802541544477
2.6451612903225805
2.5386119257087
2.4222873900293256
2.2981427174975564
2.167155425219941
2.048875855327468
1.9364613880742916
1.812316715542522
1.6842619745845553
1.560117302052786
1.4428152492668622
1.3372434017595307
1.24633431085044
1.1720430107526882
1.1143695014662756
1.075268817204301
1.0527859237536656
1.04594330400782
1.050830889540567
1.0654936461388074
1.088954056695992
1.1192570869990224
1.1534701857282503
1.1886608015640274
1.2238514173998043
1.2561094819159335
1.2854349951124144
1.3098729227761483
1.3294232649071358
1.3421309872922775
1.3499511241446724
1.35386119257087
1.3509286412512218
1.3421309872922775
1.3294232649071358
1.313782991202346
1.295210166177908
1.2756598240469208
1.2551319648093842
1.2346041055718475
1.2130987292277615
1.1906158357771262
1.1720430107526882
1.1564027370478984
1.1397849462365592
1.1290322580645162
1.1329423264907137
1.160312805474096
1.2209188660801564
1.3206256109481915
1.4613880742913
1.6392961876832846
1.8455522971652003
2.067448680351906
2.289345063538612
2.472140762463343
2.6207233626588464
2.7624633431085046
2.878787878787879
2.961876832844575
3.0097751710654936
3.024437927663734
3.007820136852395
2.9657869012707723
2.903225806451613
2.823069403714565
2.729227761485826
2.635386119257087
2.5386119257087
2.426197458455523
2.303030303030303
2.1730205278592374
2.040078201368524
1.906158357771261
1.7761485826001957
1.6520039100684265
1.5366568914956011
1.4320625610948192
1.3421309872922775
1.2668621700879763
1.2121212121212122
1.1749755620723363
1.1466275659824048
1.1290322580645162
1.1231671554252198
1.1270772238514175
1.1397849462365592
1.160312805474096
1.1857282502443791
1.2121212121212122
1.2375366568914956
1.2619745845552297
1.2825024437927663
1.2991202346041055
1.3118279569892473
1.3206256109481915
1.3235581622678396
1.3206256109481915
