ppg
3.3196480938416424
3.32355816226784
3.324535679374389
3.321603128054741
3.313782991202346
3.3010752688172045
3.2844574780058653
3.26197458455523
3.232649071358749
3.1974584555229715
3.158357771260997
3.1163245356793743
3.069403714565005
3.0195503421309877
2.967741935483871
2.916911045943304
2.868035190615836
2.822091886608016
2.780058651026393
2.740957966764418
2.7038123167155423
2.6695992179863146
2.6402737047898337
2.6148582600195502
2.589442815249267
2.563049853372434
2.5386119257087
2.5141739980449658
2.4887585532746823
2.462365591397849
2.436950146627566
2.4115347018572826
2.386119257086999
2.3597262952101663
2.332355816226784
2.30791788856305
2.2844574780058653
2.259042033235582
2.232649071358749
2.206256109481916
2.1818181818181817
2.157380254154448
2.134897360703812
2.1163245356793743
2.096774193548387
2.0772238514174
2.059628543499511
2.04594330400782
2.035190615835777
2.024437927663734
2.0127077223851417
2.0009775171065494
1.989247311827957
1.9775171065493649
1.9657869012707725
1.95405669599218
1.9403714565004888
1.9266862170087975
1.913978494623656
1.900293255131965
1.889540566959922
1.8807429130009776
1.870967741935484
1.8592375366568916
1.8465298142717497
1.8318670576735088
1.8162267839687196
1.801564027370479
1.7898338220918866
1.7810361681329423
1.7761485826001957
1.7790811339198436
1.7878787878787878
1.8074291300097751
1.8435972629521016
1.8983382209188664
1.9716520039100685
2.06158357771261
2.167155425219941
2.2844574780058653
2.4086021505376345
2.535679374389052
2.659824046920821
2.7781036168132944
2.886608015640274
2.9696969696969697
3.0361681329423265
3.103616813294233
3.166177908113392
3.220918866080156
3.2658846529814274
3.302052785923754
3.332355816226784
3.355816226783969
3.372434017595308
3.3841642228739004
3.3919843597262958
3.3929618768328447
3.389051808406647
3.3870967741935485
3.3841642228739004
3.378299120234604
3.367546432062561
3.347996089931574
3.318670576735093
3.280547409579668
3.2355816226783967
3.1847507331378297
3.1280547409579667
3.065493646138808
3.005865102639296
2.946236559139785
2.8807429130009776
2.8132942326490715
2.7468230694037143
2.6832844574780057
2.625610948191593
2.572825024437928
2.5239491691104594
2.4789833822091887
2.4389051808406648
2.4027370478983383
2.372434017595308
2.3440860215053765
2.314760508308896
2.286412512218964
2.257086999022483
2.225806451612903
2.193548387096774
2.161290322580645
2.129032258064516
2.0957966764418376
2.060606060606061
2.0254154447702835
1.989247311827957
1.9589442815249267
1.9315738025415443
1.902248289345064
1.871945259042033
1.8406647116324533
1.8103616813294232
1.7810361681329423
1.7526881720430108
1.726295210166178
1.7028347996089932
1.6823069403714566
1.664711632453568
1.6520039100684265
1.6412512218963833
1.6285434995112416
1.6138807429130009
1.598240469208211
1.5826001955034212
1.5669599217986314
1.552297165200391
1.5395894428152492
1.5288367546432062
1.5180840664711632
1.509286412512219
1.499511241446725
1.4926686217008798
1.487781036168133
1.478983382209189
1.4682306940371457
1.457478005865103
1.4467253176930597
1.439882697947214
1.439882697947214
1.4516129032258065
1.478983382209189
1.52297165200391
1.585532746823069
1.6549364613880744
1.7331378299120237
1.8328445747800584
1.9472140762463344
2.071358748778104
2.198435972629521
2.324535679374389
2.443792766373412
2.5542521994134897
2.652003910068426
2.736070381231672
2.8084066471163247
2.868035190615836
2.9100684261974585
2.9393939393939394
2.9696969696969697
2.995112414467253
3.01564027370479
3.032258064516129
3.0449657869012707
3.0527859237536656
3.056695992179863
3.056695992179863
2.9501466275659824
2.788856304985337
2.697947214076246
2.6402737047898337
2.5972629521016617
2.5562072336265884
2.5131964809384164
2.4652981427174976
2.412512218963832
2.35386119257087
2.291300097751711
2.2277614858260018
2.164222873900293
2.102639296187683
2.042033235581622
1.991202346041056
1.946236559139785
1.9012707722385145
1.8602150537634408
1.8211143695014664
1.7859237536656891
1.7556207233626588
1.7282502443792769
1.7018572825024438
1.6764418377321604
1.651026392961877
1.624633431085044
1.6011730205278591
1.5796676441837731
1.5532746823069403
1.5249266862170088
1.4946236559139785
1.4633431085043989
1.43108504398827
1.3998044965786902
1.370478983382209
1.3411534701857282
1.3128054740957966
1.284457478005865
1.2619745845552297
1.2453567937438903
1.2258064516129032
1.2043010752688172
1.1827956989247312
1.1612903225806452
1.1397849462365592
1.1202346041055715
1.1026392961876832
1.0869990224828934
1.0733137829912025
1.0596285434995112
1.0469208211143697
1.0391006842619743
1.0332355816226784
1.0234604105571847
1.0127077223851415
1.002932551319648
0.9951124144672532
0.9872922776148584
0.9794721407624634
0.9716520039100685
0.9638318670576737
0.9560117302052786
0.9481915933528836
0.9442815249266864
0.9433040078201368
0.9413489736070382
0.9433040078201368
0.9550342130987292
0.9775171065493646
1.0156402737047898
1.0703812316715542
1.142717497556207
1.2336265884652982
1.3391984359726294
1.456500488758553
1.581622678396872
1.6930596285434996
1.7976539589442817
1.911045943304008
2.0234604105571847
2.1280547409579667
2.220918866080156
2.302052785923754
2.3704789833822093
2.4281524926686218
2.4750733137829912
2.512218963831867
2.5425219941348973
2.5610948191593352
2.572825024437928
2.5835777126099706
2.592375366568915
2.5972629521016617
2.5992179863147604
2.5962854349951123
2.587487781036168
2.572825024437928
2.5513196480938416
2.52297165200391
2.486803519061584
2.443792766373412
2.398826979472141
2.3528836754643208
2.2991202346041058
2.241446725317693
2.1818181818181817
2.121212121212121
2.0625610948191597
2.007820136852395
1.9579667644183771
1.9130009775171064
1.8729227761485825
1.8377321603128052
1.8093841642228736
1.7839687194525904
1.758553274682307
1.7331378299120237
1.70772238514174
1.6793743890518085
1.651026392961877
1.6226783968719452
1.5943304007820136
1.565982404692082
1.5366568914956011
1.5083088954056696
1.479960899315738
1.4545454545454546
1.4320625610948192
1.4056695992179864
1.3773216031280548
1.348973607038123
1.3206256109481915
1.29227761485826
1.2649071358748778
1.2394916911045943
1.217008797653959
1.1974584555229717
1.1798631476050832
1.1671554252199414
1.1564027370478984
1.142717497556207
1.1270772238514175
1.1114369501466277
1.096774193548387
1.0821114369501466
1.0664711632453567
1.0527859237536656
1.040078201368524
1.0273704789833822
1.0156402737047898
1.0058651026392962
1.0009775171065494
0.9980449657869012
0.9912023460410556
0.9833822091886608
0.975562072336266
0.967741935483871
0.959921798631476
0.9521016617790812
0.9452590420332356
0.9403714565004888
0.9413489736070382
0.9511241446725318
0.9687194525904204
0.997067448680352
1.040078201368524
1.1016617790811338
1.1837732160312806
1.2825024437927663
1.392961876832845
1.5141739980449658
1.6422287390029326
1.7702834799608993
1.89247311827957
2.006842619745845
2.1094819159335287
2.187683284457478
2.2502443792766376
2.310850439882698
2.364613880742913
2.410557184750733
2.447702834799609
2.47702834799609
2.4975562072336266
2.5102639296187683
2.515151515151515
2.5141739980449658
2.509286412512219
2.498533724340176
2.4838709677419355
2.466275659824047
2.444770283479961
2.4173998044965788
2.3841642228739004
2.343108504398827
2.2961876832844577
2.244379276637341
2.185728250244379
2.12316715542522
2.058651026392962
1.9960899315738023
1.9423264907135875
1.8944281524926687
1.844574780058651
1.796676441837732
1.7526881720430108
1.7116324535679377
1.6735092864125125
1.6392961876832846
1.606060606060606
1.5728250244379276
1.5395894428152492
1.5053763440860215
1.47702834799609
1.4516129032258065
1.4213098729227762
1.3870967741935485
1.3519061583577712
1.313782991202346
1.273704789833822
1.2336265884652982
1.1935483870967742
1.1544477028347997
1.1163245356793745
1.0791788856304985
1.043010752688172
1.0146627565982405
0.9902248289345064
0.9608993157380256
0.9305962854349952
0.9002932551319648
0.8729227761485826
0.8494623655913979
0.8269794721407625
0.8035190615835777
0.7800586510263929
0.7595307917888563
0.7409579667644184
0.7302052785923754
0.7233626588465298
0.7126099706744868
0.7018572825024438
0.6901270772238515
0.6764418377321603
0.6608015640273704
0.6451612903225806
0.6304985337243402
0.6168132942326491
0.6041055718475073
0.5913978494623656
0.5796676441837733
0.5738025415444771
0.570869990224829
0.5640273704789834
0.5581622678396871
0.6656891495601173
0.83088954056696
0.916911045943304
0.9687194525904204
1.0127077223851415
1.0606060606060606
1.1202346041055715
1.1945259042033236
1.2717497556207231
1.3558162267839686
1.4594330400782014
1.5747800586510263
1.6950146627565983
1.81524926686217
1.9305962854349952
2.037145650048876
2.131964809384164
2.2130987292277613
2.281524926686217
2.3382209188660803
2.3792766373411536
2.407624633431085
2.432062561094819
2.450635386119257
2.464320625610948
2.4711632453567938
2.4711632453567938
2.466275659824047
2.4574780058651027
2.443792766373412
2.4271749755620724
2.4056695992179864
2.380254154447703
2.3548387096774195
2.326490713587488
2.291300097751711
2.2521994134897363
2.2082111436950145
2.1622678396871944
2.1163245356793743
2.0733137829912023
2.034213098729228
1.997067448680352
1.962854349951124
1.935483870967742
1.916911045943304
1.903225806451613
1.889540566959922
1.8758553274682308
1.86119257086999
1.8455522971652003
1.8269794721407624
1.8064516129032255
1.7869012707722385
1.7673509286412512
1.7468230694037146
1.7243401759530792
1.699902248289345
1.6813294232649072
1.6666666666666667
1.6490713587487782
1.6304985337243405
1.611925708699902
1.5933528836754642
1.5728250244379276
1.552297165200391
1.5317693059628543
1.512218963831867
1.4926686217008798
1.474095796676442
1.4623655913978495
1.4545454545454546
1.444770283479961
1.435972629521017
1.4301075268817205
1.4252199413489737
1.4213098729227762
1.418377321603128
1.4164222873900294
1.41544477028348
1.414467253176931
1.414467253176931
1.414467253176931
1.4164222873900294
1.4173998044965788
1.4134897360703813
1.409579667644184
1.4056695992179864
1.401759530791789
1.3988269794721409
1.396871945259042
1.3958944281524928
1.3958944281524928
1.3988269794721409
1.4056695992179864
1.4164222873900294
1.434017595307918
1.4623655913978495
1.5034213098729228
1.5610948191593352
1.6373411534701858
1.7311827956989247
1.8406647116324533
1.962854349951124
2.093841642228739
2.2277614858260018
2.361681329423265
2.490713587487781
2.5972629521016617
2.687194525904203
2.7781036168132944
2.86217008797654
2.936461388074292
3.0009775171065494
3.0547409579667644
3.099706744868035
3.1358748778103616
3.166177908113392
3.188660801564027
3.204301075268817
3.209188660801564
3.2082111436950145
3.2082111436950145
3.206256109481916
3.201368523949169
3.190615835777126
3.1739980449657867
3.1515151515151514
3.124144672531769
3.093841642228739
3.056695992179863
3.0146627565982405
2.967741935483871
2.9227761485826003
2.877810361681329
2.83088954056696
2.7859237536656893
2.742913000977517
2.702834799608993
2.6666666666666665
2.634408602150537
2.6070381231671558
2.581622678396872
2.557184750733138
2.533724340175953
2.512218963831867
2.4916911045943304
2.4701857282502444
2.44672531769306
2.421309872922776
2.393939393939394
2.366568914956012
2.3382209188660803
2.3088954056695994
2.2825024437927666
2.2580645161290325
2.236559139784946
2.2140762463343107
2.193548387096774
2.1730205278592374
2.150537634408602
2.1270772238514173
2.104594330400782
2.0821114369501466
2.06158357771261
2.043010752688172
2.026392961876833
2.010752688172043
1.997067448680352
1.9843597262952104
1.9745845552297163
1.9657869012707725
1.9550342130987293
1.9442815249266865
1.9335288367546437
1.9227761485826005
1.913978494623656
1.906158357771261
1.9012707722385145
1.8983382209188664
1.8944281524926687
1.889540566959922
1.8836754643206255
1.878787878787879
1.873900293255132
1.8670576735092863
1.8563049853372435
1.8455522971652003
1.835777126099707
1.826001955034213
1.8201368523949168
1.8211143695014664
1.8318670576735088
1.8563049853372435
1.8973607038123168
1.9472140762463344
2.0087976539589443
2.0928641251221896
2.196480938416422
2.312805474095797
2.4359726295210167
2.560117302052786
2.681329423264907
2.7966764418377323
2.9042033235581624
3.0009775171065494
3.086021505376344
3.1593352883675463
3.2111436950146626
3.2482893450635384
3.2854349951124147
3.317693059628544
3.347018572825025
3.372434017595308
3.393939393939394
3.4115347018572826
3.4242424242424243
3.434017595307918
3.4389051808406648
3.4379276637341154
3.429130009775171
3.4134897360703813
3.3949169110459434
3.3714565004887587
3.343108504398827
3.3059628543499517
3.2629521016617797
3.2130987292277613
3.157380254154448
3.096774193548387
3.0303030303030303
2.961876832844575
2.89247311827957
2.8289345063538613
2.7702834799608995
2.710654936461388
2.653958944281525
2.601173020527859
2.5532746823069403
2.5112414467253177
2.4731182795698925
2.436950146627566
2.4027370478983383
2.3714565004887587
2.340175953079179
2.3118279569892475
2.286412512218964
2.259042033235582
2.228739002932551
2.196480938416422
2.163245356793744
2.129032258064516
2.0948191593352883
2.060606060606061
2.026392961876833
1.991202346041056
1.9159335288367547
1.8269794721407624
1.7741935483870968
1.7350928641251222
1.7038123167155426
1.6764418377321604
1.653958944281525
1.6344086021505375
1.616813294232649
1.6001955034213098
1.5835777126099706
1.5679374389051808
1.552297165200391
1.5386119257087
1.5288367546432062
1.520039100684262
1.509286412512219
1.4975562072336266
1.4868035190615836
1.4760508308895406
1.4652981427174976
1.455522971652004
1.4467253176930597
1.4379276637341154
1.4281524926686218
1.4193548387096775
1.412512218963832
1.4076246334310851
1.401759530791789
1.3978494623655917
1.3949169110459434
1.396871945259042
1.4076246334310851
1.4281524926686218
1.4623655913978495
1.5112414467253177
1.573802541544477
1.6500488758553276
1.737047898338221
1.8191593352883677
1.8993157380254155
1.9902248289345064
2.0840664711632453
2.175953079178885
2.26197458455523
2.340175953079179
2.407624633431085
2.466275659824047
2.5161290322580645
2.558162267839687
2.593352883675464
2.616813294232649
2.632453567937439
2.6480938416422286
2.66177908113392
2.673509286412512
2.6823069403714563
2.687194525904203
2.689149560117302
2.687194525904203
2.679374389051808
2.6666666666666665
2.649071358748778
2.627565982404692
2.6021505376344085
2.572825024437928
2.5376344086021505
2.4975562072336266
2.452590420332356
2.403714565004888
2.3528836754643208
2.302052785923754
2.251221896383187
2.2023460410557183
2.155425219941349
2.1114369501466275
2.075268817204301
2.0449657869012707
2.01564027370479
1.988269794721408
1.964809384164223
1.9423264907135875
1.920821114369501
1.900293255131965
1.878787878787879
1.857282502443793
1.835777126099707
1.8132942326490715
1.7917888563049853
1.7732160312805474
1.7556207233626588
1.7350928641251222
1.7126099706744868
1.6901270772238517
1.6666666666666667
1.6441837732160314
1.6217008797653958
1.5992179863147604
1.576735092864125
1.555229716520039
1.5356793743890518
1.520039100684262
1.5063538611925709
1.4916911045943304
1.4760508308895406
1.4613880742913
1.4496578690127078
1.4389051808406648
1.4291300097751711
1.4193548387096775
1.4105571847507332
1.401759530791789
1.392961876832845
1.3841642228739004
1.3782991202346042
1.3734115347018572
1.3665689149560116
1.3587487781036167
1.3519061583577712
1.3450635386119256
1.33822091886608
1.332355816226784
1.3264907135874875
1.3196480938416422
1.3147605083088951
1.3128054740957966
1.3157380254154447
1.324535679374389
1.3391984359726294
1.3636363636363635
1.4027370478983383
1.455522971652004
1.5239491691104594
1.606060606060606
1.6989247311827955
1.796676441837732
1.8973607038123168
1.997067448680352
2.093841642228739
2.1730205278592374
2.2385141739980448
2.304007820136853
2.3655913978494625
2.419354838709677
2.464320625610948
2.501466275659824
2.5317693059628543
2.5562072336265884
2.5747800586510263
2.590420332355816
2.601173020527859
2.6050830889540566
2.6050830889540566
2.6050830889540566
2.603128054740958
2.5972629521016617
2.5865102639296187
2.56891495601173
2.5464320625610948
2.5190615835777126
2.486803519061584
2.449657869012708
2.409579667644184
2.3655913978494625
2.32355816226784
2.2825024437927666
2.2385141739980448
2.1945259042033234
2.1524926686217007
2.112414467253177
2.0762463343108504
2.0439882697947214
2.01564027370479
1.9902248289345064
1.9667644183773216
1.946236559139785
1.9286412512218964
1.9120234604105573
1.89247311827957
1.870967741935484
1.8484848484848484
1.826001955034213
1.804496578690127
1.7820136852394917
1.7605083088954057
1.7390029325513197
1.715542521994135
1.6911045943304008
1.667644183773216
1.6480938416422288
1.6314760508308896
1.6129032258064515
1.5933528836754642
1.5728250244379276
1.5532746823069403
1.5356793743890518
1.5180840664711632
1.500488758553275
1.4838709677419355
1.469208211143695
1.456500488758553
1.4486803519061584
1.4437927663734116
1.435972629521017
1.4271749755620724
1.418377321603128
1.409579667644184
1.3998044965786902
1.391006842619746
1.3812316715542523
1.3714565004887584
1.3626588465298142
1.35386119257087
1.348973607038123
1.3470185728250244
1.343108504398827
1.3372434017595307
1.3313782991202343
1.3255131964809383
1.3196480938416422
1.313782991202346
1.3098729227761483
1.3128054740957966
1.324535679374389
1.3470185728250244
1.3822091886608017
1.4242424242424243
1.4760508308895406
1.5454545454545454
1.6285434995112416
1.7204301075268815
1.8172043010752688
1.9149560117302051
2.0097751710654936
2.0987292277614857
2.1818181818181817
2.2551319648093844
2.317693059628544
2.364613880742913
2.398826979472141
2.4301075268817205
2.4565004887585533
2.4780058651026398
2.493646138807429
2.5034213098729228
2.509286412512219
2.5112414467253177
2.5102639296187683
2.504398826979472
2.493646138807429
2.4780058651026398
2.458455522971652
2.4359726295210167
2.4086021505376345
2.376344086021505
2.340175953079179
2.324535679374389
2.313782991202346
2.271749755620724
2.2130987292277613
2.1485826001955037
2.085043988269794
2.0234604105571847
1.970674486803519
1.9237536656891496
1.8758553274682308
1.83088954056696
1.7917888563049853
1.7565982404692082
1.7204301075268815
1.683284457478006
1.64613880742913
1.6099706744868034
1.5728250244379276
1.533724340175953
1.4936461388074291
1.4594330400782014
1.4291300097751711
1.3919843597262953
1.3509286412512218
1.3079178885630498
1.2649071358748778
1.2228739002932552
1.1808406647116323
1.1397849462365592
1.099706744868035
1.06158357771261
1.0254154447702837
0.9980449657869012
0.9736070381231672
0.9442815249266864
0.9149560117302052
0.8875855327468231
0.8602150537634409
0.833822091886608
0.8103616813294232
0.7888563049853372
0.7702834799608993
0.7536656891495601
0.7360703812316716
0.7194525904203324
0.7106549364613881
0.7047898338220919
0.6930596285434996
0.678396871945259
0.6627565982404692
0.6490713587487781
0.6373411534701857
0.624633431085044
0.6129032258064516
0.603128054740958
0.5913978494623656
0.5786901270772239
0.5728250244379277
0.5738025415444771
0.5718475073313783
0.5718475073313783
0.5786901270772239
0.5972629521016618
0.6314760508308895
0.6842619745845552
0.7565982404692082
0.8504398826979472
0.9618768328445748
1.0879765395894427
1.224828934506354
1.3499511241446724
1.4672531769305963
1.5923753665689149
1.7165200391006843
1.8328445747800584
1.935483870967742
2.0234604105571847
2.0957966764418376
2.1524926686217007
2.1974584555229715
2.231671554252199
2.257086999022483
2.270772238514174
2.27761485826002
2.280547409579668
2.280547409579668
2.275659824046921
2.264907135874878
2.249266862170088
2.2277614858260018
2.201368523949169
2.16911045943304
2.1280547409579667
2.081133919843597
2.0303030303030303
1.9833822091886608
1.9403714565004888
1.895405669599218
1.8494623655913975
1.8054740957966764
1.7653958944281525
1.729227761485826
1.6959921798631477
1.6666666666666667
1.643206256109482
1.6217008797653958
1.6021505376344083
1.5865102639296187
1.5728250244379276
1.555229716520039
1.5327468230694037
1.5083088954056696
1.4838709677419355
1.458455522971652
1.4320625610948192
1.4037145650048877
1.3763440860215057
1.3499511241446724
1.3225806451612905
1.295210166177908
1.273704789833822
1.2561094819159335
1.2365591397849462
1.2150537634408602
1.1935483870967742
1.173998044965787
1.155425219941349
1.1368523949169111
1.1202346041055715
1.104594330400782
1.0918866080156402
1.083088954056696
1.0801564027370478
1.0801564027370478
1.0772238514173995
1.072336265884653
1.0654936461388074
1.0586510263929618
1.0527859237536656
1.0478983382209188
1.043010752688172
1.040078201368524
1.0381231671554252
1.0361681329423265
1.0342130987292275
1.0361681329423265
1.0410557184750733
1.043010752688172
1.0439882697947214
1.0449657869012707
1.0449657869012707
1.0449657869012707
1.0478983382209188
1.0547409579667644
1.0684261974584557
1.0957966764418376
1.1407624633431086
1.195503421309873
1.2639296187683284
1.3587487781036167
1.4750733137829912
1.608993157380254
1.7565982404692082
1.9120234604105573
2.070381231671554
2.228739002932551
2.380254154447703
2.5210166177908118
2.6480938416422286
2.7595307917888565
2.841642228739003
2.903225806451613
2.961876832844575
3.0146627565982405
3.058651026392962
3.0957966764418376
3.1270772238514173
3.150537634408602
3.167155425219941
3.1788856304985336
3.1847507331378297
3.1837732160312804
3.1739980449657867
3.158357771260997
3.139784946236559
3.117302052785924
3.0879765395894427
3.0518084066471163
3.0097751710654936
2.961876832844575
2.9100684261974585
2.854349951124145
2.7966764418377323
2.739980449657869
2.687194525904203
2.638318670576735
2.589442815249267
2.5434995112414467
2.501466275659824
2.464320625610948
2.432062561094819
2.401759530791789
2.372434017595308
2.3440860215053765
2.313782991202346
2.283479960899316
2.2521994134897363
2.2238514173998043
2.198435972629521
2.172043010752688
2.145650048875855
2.118279569892473
2.090909090909091
2.064516129032258
2.0391006842619745
2.0117302052785924
1.9824046920821117
1.9530791788856303
1.924731182795699
1.9012707722385145
1.8807429130009776
1.857282502443793
1.833822091886608
1.8113391984359728
1.7898338220918866
1.7712609970674489
1.7556207233626588
1.7409579667644184
1.726295210166178
1.7126099706744868
1.699902248289345
1.6881720430107527
1.678396871945259
1.6715542521994136
1.664711632453568
1.656891495601173
1.64613880742913
1.6344086021505375
1.624633431085044
1.6148582600195502
1.6050830889540566
1.5962854349951123
1.5865102639296187
1.5728250244379276
1.5620723362658846
1.5513196480938416
1.5395894428152492
1.5288367546432062
1.5190615835777126
1.5131964809384164
1.517106549364614
1.5356793743890518
1.5728250244379276
1.6314760508308896
1.7126099706744868
1.81524926686217
1.95405669599218
2.088954056695992
2.19941348973607
2.3118279569892475
2.4242424242424243
2.530791788856305
2.631476050830889
2.7223851417399803
2.801564027370479
2.870967741935484
2.9315738025415445
2.9824046920821115
3.026392961876833
3.0557184750733137
3.074291300097752
3.09188660801564
3.10752688172043
3.120234604105572
3.129032258064516
3.134897360703812
3.1378299120234603
3.1378299120234603
3.133919843597263
3.1251221896383186
3.112414467253177
3.0957966764418376
3.0733137829912023
3.04594330400782
3.0127077223851417
2.973607038123167
2.9286412512218964
