ppg
1.1622678396871946
1.099706744868035
1.053763440860215
1.0263929618768328
1.0175953079178883
1.0263929618768328
1.0518084066471165
1.0909090909090908
1.1407624633431086
1.1974584555229717
1.252199413489736
1.3049853372434017
1.3607038123167154
1.414467253176931
1.4633431085043989
1.5053763440860215
1.5395894428152492
1.5650048875855327
1.581622678396872
1.5894428152492668
1.5884652981427174
1.5796676441837731
1.5650048875855327
1.5493646138807429
1.530791788856305
1.5063538611925709
1.47702834799609
1.444770283479961
1.4115347018572826
1.3773216031280548
1.343108504398827
1.3098729227761483
1.2756598240469208
1.2424242424242424
1.2101661779081134
1.1867057673509287
1.1710654936461389
1.164222873900293
1.1759530791788857
1.2140762463343109
1.2864125122189638
1.393939393939394
1.5356793743890518
1.704789833822092
1.8914956011730208
2.083088954056696
2.2688172043010755
2.436950146627566
2.5650048875855327
2.658846529814272
2.73802541544477
2.790811339198436
2.8152492668621703
2.8103616813294234
2.779081133919844
2.724340175953079
2.6510263929618767
2.563049853372434
2.463343108504399
2.3548387096774195
2.254154447702835
2.155425219941349
2.043010752688172
1.9227761485826005
1.7996089931573802
1.6764418377321604
1.555229716520039
1.4408602150537635
1.3362658846529814
1.2443792766373412
1.1681329423264908
1.110459433040078
1.072336265884653
1.053763440860215
1.0518084066471165
1.064516129032258
1.0918866080156402
1.1319648093841643
1.181818181818182
1.238514173998045
1.2981427174975562
1.3587487781036167
1.4164222873900294
1.469208211143695
1.5151515151515151
1.5513196480938416
1.5777126099706744
1.598240469208211
1.611925708699902
1.616813294232649
1.6138807429130009
1.6050830889540566
1.5894428152492668
1.5679374389051808
1.541544477028348
1.5112414467253177
1.478005865102639
1.4486803519061584
1.4213098729227762
1.3890518084066472
1.3548387096774193
1.3206256109481915
1.2854349951124144
1.2502443792766371
1.2160312805474096
1.187683284457478
1.1710654936461389
1.1730205278592376
1.203323558162268
1.267839687194526
1.3499511241446724
1.4545454545454546
1.6011730205278591
1.7761485826001957
1.967741935483871
2.1622678396871944
2.347018572825025
2.5131964809384164
2.652003910068426
2.758553274682307
2.83088954056696
2.8690127077223853
2.875855327468231
2.857282502443793
2.8181818181818183
2.7595307917888565
2.6832844574780057
2.5943304007820136
2.495601173020528
2.389051808406647
2.2766373411534704
2.158357771260997
2.037145650048876
1.913978494623656
1.790811339198436
1.6852394916911049
1.590420332355816
1.4916911045943304
1.3958944281524928
1.310850439882698
1.2394916911045943
1.1837732160312806
1.1466275659824048
1.1270772238514175
1.1251221896383188
1.1397849462365592
1.1691104594330402
1.2052785923753666
1.2473118279569892
1.2971652003910068
1.3519061583577712
1.4086021505376345
1.4633431085043989
1.512218963831867
1.555229716520039
1.590420332355816
1.6177908113391983
1.6363636363636365
1.64613880742913
1.6471163245356797
1.643206256109482
1.6344086021505375
1.6187683284457477
1.5972629521016617
1.5708699902248289
1.5405669599217986
1.5083088954056696
1.4750733137829912
1.4408602150537635
1.4056695992179864
1.370478983382209
1.3343108504398826
1.3040078201368523
1.2776148582600195
1.2502443792766371
1.23069403714565
1.2267839687194526
1.24633431085044
1.2991202346041055
1.3900293255131966
1.5180840664711632
1.6803519061583578
1.8670576735092863
2.067448680351906
2.267839687194526
2.4330400782013686
2.5698924731182795
2.7008797653958942
2.8103616813294234
2.8905180840664717
2.93841642228739
2.9530791788856305
2.93841642228739
2.897360703812317
2.834799608993157
2.7546432062561097
2.659824046920821
2.5669599217986314
2.4731182795698925
2.366568914956012
2.251221896383187
2.131964809384164
2.0097751710654936
1.8866080156402736
1.7653958944281525
1.6490713587487782
1.5386119257087
1.4389051808406648
1.3519061583577712
1.2805474095796676
1.2316715542521994
1.2013685239491692
1.1827956989247312
1.1788856304985338
1.1896383186705768
1.2140762463343109
1.2512218963831867
1.2981427174975562
1.3509286412512218
1.4066471163245358
1.4623655913978495
1.5151515151515151
1.5581622678396871
1.5933528836754642
1.624633431085044
1.6490713587487782
1.664711632453568
1.672531769305963
1.6705767350928642
1.6608015640273706
1.643206256109482
1.619745845552297
1.5913978494623655
1.5571847507331378
1.520039100684262
1.4868035190615836
1.4545454545454546
1.4164222873900294
1.3763440860215057
1.335288367546432
1.2942326490713587
1.2541544477028348
1.2160312805474096
1.181818181818182
1.1573802541544478
1.1495601173020529
1.166177908113392
1.203323558162268
1.2658846529814272
1.3695014662756595
1.5112414467253177
1.6842619745845553
1.8778103616813293
2.078201368523949
2.2737047898338223
2.4516129032258065
2.6041055718475072
2.7253176930596283
2.811339198435973
2.86217008797654
2.8797653958944283
2.8699902248289346
2.8377321603128056
2.782991202346041
2.7096774193548385
2.6207233626588464
2.520039100684262
2.410557184750733
2.294232649071359
2.1730205278592374
2.048875855327468
1.9237536656891496
1.8142717497556209
1.7135874877810362
1.6041055718475072
1.4946236559139785
1.391006842619746
1.2981427174975562
1.2179863147605083
1.1534701857282503
1.1055718475073313
1.0762463343108504
1.0635386119257086
1.067448680351906
1.0869990224828934
1.115347018572825
1.1515151515151516
1.1974584555229717
1.2502443792766371
1.3049853372434017
1.359726295210166
1.4105571847507332
1.455522971652004
1.4936461388074291
1.52297165200391
1.543499511241447
1.5562072336265884
1.5620723362658846
1.5610948191593352
1.5532746823069403
1.5386119257087
1.5180840664711632
1.4936461388074291
1.4643206256109482
1.4320625610948192
1.3978494623655917
1.3636363636363635
1.3294232649071358
1.2961876832844574
1.2639296187683284
1.2375366568914956
1.2140762463343109
1.187683284457478
1.1612903225806452
1.13880742913001
1.126099706744868
1.130987292277615
1.163245356793744
1.2267839687194526
1.3264907135874875
1.4594330400782014
1.6217008797653958
1.7761485826001957
1.927663734115347
2.0987292277614857
2.2688172043010755
2.4242424242424243
2.555229716520039
2.6559139784946235
2.724340175953079
2.758553274682307
2.7614858260019552
2.736070381231672
2.6852394916911044
2.6236559139784945
2.552297165200391
2.462365591397849
2.3597262952101663
2.24633431085044
2.126099706744868
2.0009775171065494
1.871945259042033
1.7419354838709675
1.6138807429130009
1.4887585532746823
1.3714565004887584
1.2658846529814272
1.1837732160312806
1.121212121212121
1.0654936461388074
1.0234604105571847
0.9990224828934506
0.9921798631476052
1.0039100684261977
1.0312805474095796
1.072336265884653
1.1241446725317692
1.1837732160312806
1.24633431085044
1.303030303030303
1.3548387096774193
1.4066471163245358
1.455522971652004
1.4965786901270772
1.5298142717497556
1.555229716520039
1.5708699902248289
1.5786901270772238
1.5777126099706744
1.5698924731182795
1.555229716520039
1.5347018572825024
1.5131964809384164
1.490713587487781
1.4613880742913
1.4291300097751711
1.3949169110459434
1.359726295210166
1.324535679374389
1.2903225806451613
1.2570869990224829
1.2238514173998043
1.1925708699902249
1.164222873900293
1.144672531769306
1.1348973607038124
1.1368523949169111
1.160312805474096
1.2130987292277615
1.300097751710655
1.4222873900293256
1.5747800586510263
1.7497556207233629
1.9364613880742916
2.12316715542522
2.2981427174975564
2.452590420332356
2.5669599217986314
2.6480938416422286
2.7116324535679373
2.7497556207233624
2.7595307917888565
2.740957966764418
2.696969696969697
2.631476050830889
2.547409579667644
2.449657869012708
2.340175953079179
2.2218963831867056
2.1114369501466275
2.004887585532747
1.884652981427175
1.7575757575757576
1.6285434995112416
1.5024437927663734
1.3822091886608017
1.2717497556207231
1.1749755620723363
1.0948191593352885
1.032258064516129
0.989247311827957
0.9667644183773216
0.9628543499511242
0.9745845552297164
1.0
1.0391006842619743
1.088954056695992
1.1466275659824048
1.209188660801564
1.273704789833822
1.3362658846529814
1.393939393939394
1.444770283479961
1.487781036168133
1.520039100684262
1.544477028347996
1.563049853372434
1.5747800586510263
1.5777126099706744
1.573802541544477
1.563049853372434
1.5464320625610948
1.52297165200391
1.495601173020528
1.4652981427174976
1.4320625610948192
1.3978494623655917
1.3685239491691104
1.3421309872922775
1.310850439882698
1.2766373411534702
1.241446725317693
1.206256109481916
1.1730205278592376
1.1466275659824048
1.133919843597263
1.1436950146627567
1.1827956989247312
1.2570869990224829
1.3479960899315735
1.4604105571847508
1.611925708699902
1.7898338220918866
1.9794721407624636
2.16911045943304
2.345063538611926
2.5190615835777126
2.674486803519061
2.780058651026393
2.841642228739003
2.8641251221896384
2.8533724340175954
2.820136852394917
2.768328445747801
2.695014662756598
2.6050830889540566
2.501466275659824
2.389051808406647
2.2688172043010755
2.1436950146627565
2.01564027370479
1.8866080156402736
1.758553274682307
1.632453567937439
1.5278592375366569
1.4379276637341154
1.346041055718475
1.2609970674486803
1.1896383186705768
1.133919843597263
1.0977517106549364
1.0811339198435972
1.083088954056696
1.1026392961876832
1.1358748778103618
1.181818181818182
1.2365591397849462
1.2903225806451613
1.3440860215053765
1.4027370478983383
1.4623655913978495
1.5190615835777126
1.5698924731182795
1.6129032258064515
1.64613880742913
1.6695992179863148
1.6813294232649072
1.683284457478006
1.675464320625611
1.6627565982404693
1.6451612903225807
1.619745845552297
1.587487781036168
1.552297165200391
1.5141739980449658
1.4750733137829912
1.436950146627566
1.3998044965786902
1.3636363636363635
1.3284457478005864
1.2942326490713587
1.260019550342131
1.2336265884652982
1.2140762463343109
1.1994134897360704
1.2003910068426198
1.2258064516129032
1.2834799608993157
1.3792766373411536
1.512218963831867
1.6774193548387095
1.866080156402737
2.0664711632453567
2.264907135874878
2.4281524926686218
2.5620723362658846
2.6911045943304006
2.798631476050831
2.87683284457478
2.9227761485826003
2.9374389051808407
2.9227761485826003
2.8826979472140764
2.820136852394917
2.739980449657869
2.64613880742913
2.5532746823069403
2.4594330400782014
2.350928641251222
2.233626588465298
2.1114369501466275
1.986314760508309
1.86119257086999
1.7380254154447703
1.6187683284457477
1.5063538611925709
1.4056695992179864
1.3186705767350928
1.2482893450635386
1.2013685239491692
1.1730205278592376
1.1583577712609971
1.1593352883675463
1.176930596285435
1.209188660801564
1.2541544477028348
1.3088954056695992
1.3685239491691104
1.4301075268817205
1.490713587487781
1.547409579667644
1.5943304007820136
1.6334310850439884
1.6686217008797657
1.696969696969697
1.7174975562072337
1.7302052785923754
1.7350928641251222
1.7311827956989247
1.7204301075268815
1.7038123167155426
1.6823069403714566
1.6559139784946235
1.624633431085044
1.5962854349951123
1.56891495601173
1.5347018572825024
1.4975562072336266
1.457478005865103
1.41544477028348
1.3734115347018572
1.332355816226784
1.2961876832844574
1.2697947214076246
1.262952101661779
1.2825024437927663
1.3235581622678396
1.3919843597262953
1.5024437927663734
1.6529814271749756
1.833822091886608
2.035190615835777
2.242424242424242
2.443792766373412
2.6285434995112413
2.7869012707722387
2.9120234604105573
3.002932551319648
3.0576735092864125
3.0772238514174
3.069403714565005
3.0391006842619745
2.9872922776148583
2.917888563049853
2.832844574780059
2.7370478983382207
2.632453567937439
2.5210166177908118
2.4056695992179864
2.2854349951124147
2.163245356793744
2.053763440860215
1.9530791788856303
1.842619745845552
1.732160312805474
1.6265884652981428
1.5298142717497556
1.4467253176930597
1.3792766373411536
1.3294232649071358
1.2971652003910068
1.2834799608993157
1.2873900293255132
1.3079178885630498
1.3362658846529814
1.3714565004887584
1.4164222873900294
1.4672531769305963
1.520039100684262
1.5718475073313782
1.6207233626588464
1.6637341153470186
1.6989247311827955
1.726295210166178
1.7458455522971652
1.7565982404692082
1.7605083088954057
1.758553274682307
1.750733137829912
1.7360703812316716
1.7165200391006843
1.6920821114369502
1.664711632453568
1.6344086021505375
1.6021505376344083
1.5698924731182795
1.5366568914956011
1.5034213098729228
1.469208211143695
1.439882697947214
1.414467253176931
1.3870967741935485
1.3636363636363635
1.3528836754643203
1.3636363636363635
1.4037145650048877
1.478983382209189
1.5923753665689149
1.7429130009775171
1.921798631476051
2.1192570869990224
2.294232649071359
2.452590420332356
2.618768328445748
2.7722385141739982
2.900293255131965
2.9960899315738025
3.0576735092864125
3.0840664711632453
3.0772238514174
3.042033235581622
2.981427174975562
2.900293255131965
2.803519061583578
2.70772238514174
2.608993157380254
2.495601173020528
2.3734115347018574
2.24633431085044
2.117302052785924
1.9872922776148585
1.8592375366568916
1.7360703812316716
1.619745845552297
1.5141739980449658
1.4213098729227762
1.3519061583577712
1.3020527859237536
1.2619745845552297
1.2365591397849462
1.2287390029325511
1.238514173998045
1.2639296187683284
1.3020527859237536
1.3519061583577712
1.4086021505376345
1.4682306940371457
1.5278592375366569
1.58455522971652
1.6314760508308896
1.6695992179863148
1.704789833822092
1.7331378299120237
1.75366568914956
1.7663734115347018
1.7712609970674489
1.7683284457478006
1.7575757575757576
1.739980449657869
1.7174975562072337
1.6901270772238517
1.6637341153470186
1.6187683284457477
1.560117302052786
1.5131964809384164
1.4721407624633431
1.4349951124144673
1.3998044965786902
1.3665689149560116
1.3343108504398826
1.3040078201368523
1.278592375366569
1.262952101661779
1.262952101661779
1.278592375366569
1.3157380254154447
1.3851417399804498
1.4897360703812317
1.6256109481915937
1.7859237536656891
1.962854349951124
2.144672531769306
2.3196480938416424
2.4780058651026398
2.611925708699902
2.7155425219941347
2.780058651026393
2.8132942326490715
2.825024437927664
2.8132942326490715
2.7781036168132944
2.7223851417399803
2.649071358748778
2.5610948191593352
2.462365591397849
2.3548387096774195
2.2404692082111435
2.121212121212121
1.9980449657869013
1.8885630498533723
1.7859237536656891
1.6744868035190617
1.5620723362658846
1.4545454545454546
1.3577712609970674
1.2746823069403714
1.2072336265884651
1.1573802541544478
1.126099706744868
1.1143695014662756
1.1192570869990224
1.1358748778103618
1.1622678396871946
1.2003910068426198
1.24633431085044
1.2981427174975562
1.3528836754643203
1.4056695992179864
1.4545454545454546
1.4975562072336266
1.5347018572825024
1.564027370478983
1.585532746823069
1.6001955034213098
1.607038123167155
1.6080156402737047
1.6021505376344083
1.5884652981427174
1.5698924731182795
1.5464320625610948
1.520039100684262
1.490713587487781
1.458455522971652
1.4242424242424243
1.391006842619746
1.3577712609970674
1.3304007820136852
1.3069403714565004
1.2805474095796676
1.2531769305962854
1.2267839687194526
1.203323558162268
1.1886608015640274
1.187683284457478
1.206256109481916
1.2512218963831867
1.327468230694037
1.4349951124144673
1.5493646138807429
1.6735092864125125
1.827956989247312
1.9960899315738023
2.164222873900293
2.320625610948192
2.4574780058651027
2.5669599217986314
2.64613880742913
2.6940371456500487
2.710654936461388
2.699902248289345
2.664711632453568
2.6158357771261
2.5542521994134897
2.4760508308895406
2.3841642228739004
2.281524926686217
2.1710654936461387
2.053763440860215
1.932551319648094
1.8093841642228736
1.686217008797654
1.5669599217986314
1.4535679374389052
1.3616813294232648
1.2873900293255132
1.2160312805474096
1.1564027370478984
1.1133919843597262
1.0879765395894427
1.0801564027370478
1.0899315738025417
1.115347018572825
1.152492668621701
1.1994134897360704
1.2531769305962854
1.310850439882698
1.3616813294232648
1.4086021505376345
1.455522971652004
1.499511241446725
1.5366568914956011
1.5650048875855327
1.585532746823069
1.5972629521016617
1.6011730205278591
1.5972629521016617
1.5865102639296187
1.5698924731182795
1.5532746823069403
1.5347018572825024
1.5102639296187683
1.4819159335288368
1.4506353861192571
1.418377321603128
1.3851417399804498
1.3519061583577712
1.3196480938416422
1.2883675464320623
1.2580645161290325
1.2287390029325511
1.203323558162268
1.1886608015640274
1.18475073313783
1.1935483870967742
1.224828934506354
1.284457478005865
1.3763440860215057
1.499511241446725
1.6490713587487782
1.8172043010752688
1.994134897360704
2.167155425219941
2.326490713587488
2.450635386119257
2.5434995112414467
2.622678396871945
2.678396871945259
2.704789833822092
2.701857282502444
2.6725317693059627
2.619745845552297
2.548387096774193
2.4613880742913
2.363636363636364
2.257086999022483
2.142717497556207
2.038123167155425
1.9374389051808407
1.825024437927664
1.7057673509286413
1.585532746823069
1.469208211143695
1.3587487781036167
1.260019550342131
1.1749755620723363
1.1055718475073313
1.0557184750733135
1.0263929618768328
1.0156402737047898
1.0224828934506354
1.043010752688172
1.0772238514173995
1.1231671554252198
1.1788856304985338
1.241446725317693
1.305962854349951
1.370478983382209
1.4320625610948192
1.487781036168133
1.5356793743890518
1.5747800586510263
1.6021505376344083
1.6207233626588464
1.6334310850439884
1.6383186705767352
1.6363636363636365
1.6275659824046922
1.611925708699902
1.5913978494623655
1.565982404692082
1.5376344086021505
1.5073313782991202
1.4760508308895406
1.4496578690127078
1.426197458455523
1.3978494623655917
1.367546432062561
1.3362658846529814
1.305962854349951
1.2766373411534702
1.2531769305962854
1.241446725317693
1.249266862170088
1.2825024437927663
1.3470185728250244
1.444770283479961
1.5532746823069403
1.675464320625611
1.8318670576735088
2.006842619745845
2.185728250244379
2.356793743890518
2.509286412512219
2.636363636363636
2.7331378299120237
2.7976539589442817
2.8299120234604107
2.832844574780059
2.8132942326490715
2.7751710654936463
2.717497556207233
2.6422287390029324
2.5542521994134897
2.455522971652004
2.3489736070381237
2.236559139784946
2.1192570869990224
1.9980449657869013
1.8748778103616808
1.7517106549364614
1.632453567937439
1.5327468230694037
1.447702834799609
1.3616813294232648
1.2834799608993157
1.2189638318670577
1.1710654936461389
1.141739980449658
1.133919843597263
1.144672531769306
1.1700879765395895
1.2082111436950147
1.2561094819159335
1.3040078201368523
1.3528836754643203
1.4076246334310851
1.4633431085043989
1.5161290322580645
1.5620723362658846
1.6011730205278591
1.6314760508308896
1.6520039100684265
1.6627565982404693
1.664711632453568
1.6578690127077225
1.6441837732160314
1.6285434995112416
1.6099706744868034
1.585532746823069
1.555229716520039
1.521994134897361
1.4868035190615836
1.4506353861192571
1.414467253176931
1.3782991202346042
1.3421309872922775
1.305962854349951
1.2717497556207231
1.2453567937438903
1.2267839687194526
1.2130987292277615
1.2150537634408602
1.241446725317693
1.300097751710655
1.3958944281524928
1.5278592375366569
1.6920821114369502
1.8807429130009776
2.081133919843597
2.280547409579668
2.4457478005865103
2.582600195503421
2.7145650048875853
2.8260019550342133
2.90811339198436
2.9579667644183774
2.9745845552297165
2.961876832844575
2.9237536656891496
2.865102639296188
2.787878787878788
2.697947214076246
2.5972629521016617
2.501466275659824
2.4056695992179864
2.2952101661779083
2.176930596285435
2.0547409579667644
1.9305962854349952
1.8074291300097751
1.689149560117302
1.5777126099706744
1.47702834799609
1.3900293255131966
1.3206256109481915
1.273704789833822
1.2443792766373412
1.227761485826002
1.2267839687194526
1.241446725317693
1.2717497556207231
1.3147605083088951
1.3665689149560116
1.4242424242424243
1.4838709677419355
1.542521994134897
1.5962854349951123
1.6441837732160314
1.6813294232649072
1.7086999022482894
1.7311827956989247
1.7458455522971652
1.7517106549364614
1.7497556207233629
1.739980449657869
1.7233626588465298
1.7008797653958945
1.672531769305963
1.6412512218963833
1.607038123167155
1.576735092864125
1.5483870967741935
1.517106549364614
1.4838709677419355
1.4496578690127078
1.41544477028348
1.380254154447703
1.3479960899315735
1.3225806451612905
1.310850439882698
1.321603128054741
1.3626588465298142
1.439882697947214
1.5327468230694037
1.6471163245356797
1.804496578690127
1.9902248289345064
2.190615835777126
2.391006842619746
2.578690127077224
2.744868035190616
2.8797653958944283
2.979472140762464
3.043010752688172
3.071358748778104
3.0684261974584555
3.0410557184750733
2.991202346041056
2.920821114369501
2.833822091886608
2.735092864125122
2.627565982404692
2.5141739980449658
2.3958944281524928
2.275659824046921
2.1524926686217007
2.0283479960899315
1.906158357771261
1.801564027370479
1.7086999022482894
1.611925708699902
1.521016617790811
1.439882697947214
1.3743890518084063
1.3255131964809383
1.2961876832844574
1.284457478005865
1.2903225806451613
1.3118279569892473
1.346041055718475
1.3851417399804498
1.4271749755620724
1.4760508308895406
1.5278592375366569
1.5777126099706744
1.6226783968719452
1.66177908113392
1.6920821114369502
1.7135874877810362
1.726295210166178
1.7302052785923754
1.726295210166178
1.7135874877810362
1.6979472140762464
1.678396871945259
1.6520039100684265
1.619745845552297
1.5835777126099706
1.543499511241447
1.5024437927663734
1.4604105571847508
1.418377321603128
1.3763440860215057
1.3343108504398826
1.29227761485826
1.2590420332355816
1.2316715542521994
1.2052785923753666
1.1886608015640274
1.1906158357771262
1.219941348973607
1.284457478005865
1.3870967741935485
1.525904203323558
1.6959921798631477
1.8885630498533723
2.090909090909091
2.289345063538612
2.4516129032258065
2.582600195503421
2.705767350928641
2.8054740957966766
2.873900293255132
2.909090909090909
2.9120234604105573
2.8856304985337244
2.833822091886608
2.760508308895406
2.6715542521994133
2.5698924731182795
2.472140762463343
2.375366568914956
2.264907135874878
2.147605083088954
2.0254154447702835
1.9012707722385145
1.7771260997067448
1.6559139784946235
1.5395894428152492
1.4320625610948192
1.335288367546432
1.252199413489736
1.18475073313783
1.1397849462365592
1.1133919843597262
1.0987292277614855
1.0987292277614855
1.1133919843597262
1.1407624633431086
1.1798631476050832
1.2267839687194526
1.2776148582600195
1.3304007820136852
1.3812316715542523
1.4281524926686218
1.466275659824047
1.4975562072336266
1.5239491691104594
1.543499511241447
1.5542521994134897
1.5571847507331378
1.5513196480938416
1.5386119257087
1.5190615835777126
1.4936461388074291
1.4633431085043989
1.4291300097751711
1.3919843597262953
1.3607038123167154
1.3313782991202343
1.2961876832844574
1.2580645161290325
1.2179863147605083
1.1779081133919844
1.1368523949169111
1.096774193548387
1.0606060606060606
1.032258064516129
1.0166177908113392
1.021505376344086
1.04594330400782
1.0948191593352885
1.1788856304985338
1.300097751710655
1.4535679374389052
1.6314760508308896
1.8240469208211143
2.0195503421309877
2.206256109481916
2.3734115347018574
2.5131964809384164
2.619745845552297
2.687194525904203
2.721407624633431
2.7096774193548385
2.6608015640273703
2.6050830889540566
2.5376344086021505
2.4565004887585533
2.3626588465298144
2.2580645161290325
2.1436950146627565
2.021505376344086
1.8934506353861196
1.761485826001955
1.6441837732160314
1.5356793743890518
1.41544477028348
1.2942326490713587
1.1798631476050832
