ppg
2.131964809384164
2.0948191593352883
2.0576735092864125
2.0195503421309877
1.9824046920821117
1.945259042033236
1.9090909090909087
1.873900293255132
1.8435972629521016
1.8162267839687196
1.7859237536656891
1.7526881720430108
1.718475073313783
1.6842619745845553
1.6500488758553276
1.6158357771260996
1.5806451612903225
1.5464320625610948
1.512218963831867
1.478983382209189
1.447702834799609
1.423264907135875
1.4037145650048877
1.3822091886608017
1.359726295210166
1.3372434017595307
1.3157380254154447
1.295210166177908
1.2756598240469208
1.2561094819159335
1.2365591397849462
1.217008797653959
1.1994134897360704
1.187683284457478
1.1779081133919844
1.1652003910068427
1.1515151515151516
1.13880742913001
1.1270772238514175
1.115347018572825
1.1036168132942326
1.0918866080156402
1.0811339198435972
1.0713587487781036
1.064516129032258
1.06158357771261
1.0654936461388074
1.0791788856304985
1.1006842619745845
1.133919843597263
1.181818181818182
1.2443792766373412
1.3225806451612905
1.41544477028348
1.5190615835777126
1.629521016617791
1.7438905180840665
1.8592375366568916
1.9589442815249267
2.048875855327468
2.144672531769306
2.2375366568914954
2.324535679374389
2.406647116324536
2.4819159335288368
2.549364613880743
2.610948191593353
2.6666666666666665
2.7155425219941347
2.758553274682307
2.7966764418377323
2.8240469208211145
2.843597262952102
2.8641251221896384
2.8836754643206257
2.9012707722385143
2.913978494623656
2.9227761485826003
2.9266862170087977
2.9237536656891496
2.913978494623656
2.897360703812317
2.873900293255132
2.8455522971652005
2.811339198435973
2.7702834799608995
2.724340175953079
2.674486803519061
2.621700879765396
2.5669599217986314
2.512218963831867
2.458455522971652
2.4056695992179864
2.3548387096774195
2.304985337243402
2.2580645161290325
2.217986314760508
2.1818181818181817
2.144672531769306
2.10752688172043
2.070381231671554
2.035190615835777
1.9990224828934504
1.962854349951124
1.9266862170087975
1.8914956011730208
1.857282502443793
1.822091886608016
1.790811339198436
1.7624633431085044
1.7302052785923754
1.696969696969697
1.6637341153470186
1.6304985337243405
1.598240469208211
1.5669599217986314
1.5366568914956011
1.5073313782991202
1.479960899315738
1.4535679374389052
1.4330400782013686
1.4173998044965788
1.3998044965786902
1.3812316715542523
1.3626588465298142
1.3440860215053765
1.3255131964809383
1.3069403714565004
1.289345063538612
1.2717497556207231
1.2541544477028348
1.238514173998045
1.2238514173998043
1.2140762463343109
1.2072336265884651
1.1974584555229717
1.1857282502443791
1.173998044965787
1.1612903225806452
1.1485826001955035
1.1368523949169111
1.1270772238514175
1.1192570869990224
1.1163245356793745
1.1221896383186705
1.1378299120234605
1.1652003910068427
1.2082111436950147
1.2668621700879763
1.3421309872922775
1.4320625610948192
1.533724340175953
1.643206256109482
1.758553274682307
1.8758553274682308
1.9902248289345064
2.101661779081134
2.2082111436950145
2.2961876832844577
2.3685239491691106
2.443792766373412
2.5161290322580645
2.58455522971652
2.6480938416422286
2.705767350928641
2.758553274682307
2.807429130009776
2.852394916911046
2.89247311827957
2.927663734115347
2.952101661779081
2.9696969696969697
2.989247311827957
3.007820136852395
3.022482893450636
3.032258064516129
3.037145650048876
3.0361681329423265
3.0283479960899315
3.013685239491691
2.992179863147605
2.962854349951124
2.9266862170087977
2.886608015640274
2.843597262952102
2.795698924731183
2.740957966764418
2.6832844574780057
2.6236559139784945
2.5640273704789838
2.505376344086021
2.449657869012708
2.3958944281524928
2.3440860215053765
2.294232649071359
2.251221896383187
2.212121212121212
2.172043010752688
2.132942326490713
2.0948191593352883
2.056695992179863
2.0195503421309877
1.9824046920821117
1.945259042033236
1.90811339198436
1.870967741935484
1.8328445747800584
1.7956989247311828
1.7634408602150538
1.7341153470185728
1.7028347996089932
1.6695992179863148
1.6344086021505375
1.598240469208211
1.563049853372434
1.5278592375366569
1.4946236559139785
1.4643206256109482
1.435972629521017
1.4076246334310851
1.3861192570869991
1.367546432062561
1.3470185728250244
1.3255131964809383
1.3040078201368523
1.2825024437927663
1.2609970674486803
1.241446725317693
1.2238514173998043
1.2082111436950147
1.1925708699902249
1.176930596285435
1.1622678396871946
1.1515151515151516
1.1436950146627567
1.1319648093841643
1.118279569892473
1.1036168132942326
1.0879765395894427
1.0742913000977516
1.064516129032258
1.0596285434995112
1.064516129032258
1.0821114369501466
1.1133919843597262
1.155425219941349
1.209188660801564
1.270772238514174
1.3421309872922775
1.436950146627566
1.5454545454545454
1.66177908113392
1.780058651026393
1.8963831867057677
2.006842619745845
2.110459433040078
2.206256109481916
2.294232649071359
2.363636363636364
2.421309872922776
2.482893450635386
2.5425219941348973
2.598240469208211
2.650048875855328
2.696969696969697
2.739980449657869
2.780058651026393
2.817204301075269
2.8514173998044967
2.8797653958944283
2.897360703812317
2.906158357771261
2.9159335288367547
2.9227761485826003
2.924731182795699
2.921798631476051
2.913000977517106
2.897360703812317
2.874877810361681
2.8455522971652005
2.8084066471163247
2.7653958944281527
2.717497556207233
2.668621700879765
2.6177908113391983
2.5620723362658846
2.5024437927663734
2.441837732160313
2.3822091886608017
2.324535679374389
2.269794721407625
2.217986314760508
2.16911045943304
2.1221896383186705
2.078201368523949
2.040078201368524
2.004887585532747
1.9687194525904204
1.9315738025415443
1.8944281524926687
1.858260019550342
1.822091886608016
1.7859237536656891
1.7487781036168133
1.7126099706744868
1.6764418377321604
1.6392961876832846
1.6021505376344083
1.5708699902248289
1.543499511241447
1.5151515151515151
1.4858260019550342
1.455522971652004
1.426197458455523
1.3958944281524928
1.3655913978494625
1.3372434017595307
1.3088954056695992
1.2834799608993157
1.260019550342131
1.2434017595307918
1.2297165200391007
1.2121212121212122
1.1935483870967742
1.1749755620723363
1.1564027370478984
1.1378299120234605
1.1202346041055715
1.1036168132942326
1.088954056695992
1.0742913000977516
1.0596285434995112
1.050830889540567
1.0439882697947214
1.0342130987292275
1.0234604105571847
1.0127077223851415
1.002932551319648
0.9960899315738024
0.9951124144672532
1.0039100684261977
1.0234604105571847
1.0586510263929618
1.1094819159335287
1.1779081133919844
1.2512218963831867
1.3304007820136852
1.4281524926686218
1.5366568914956011
1.651026392961877
1.7673509286412512
1.8807429130009776
1.9902248289345064
2.093841642228739
2.189638318670577
2.278592375366569
2.360703812316716
2.4252199413489737
2.4780058651026398
2.5347018572825024
2.590420332355816
2.643206256109482
2.6930596285435
2.73802541544477
2.779081133919844
2.8152492668621703
2.84652981427175
2.8719452590420333
2.8905180840664717
2.903225806451613
2.9071358748778104
2.905180840664712
2.9012707722385143
2.8914956011730206
2.875855327468231
2.854349951124145
2.8260019550342133
2.791788856304985
2.7517106549364616
2.704789833822092
2.6529814271749754
2.5972629521016617
2.5434995112414467
2.4916911045943304
2.434017595307918
2.375366568914956
2.318670576735093
2.2639296187683287
2.210166177908113
2.1593352883675463
2.112414467253177
2.070381231671554
2.0303030303030303
1.991202346041056
1.9521016617790807
1.9188660801564028
1.8885630498533723
1.855327468230694
1.8201368523949168
1.782991202346041
1.7458455522971652
1.7096774193548387
1.6744868035190617
1.6392961876832846
1.6041055718475072
1.5698924731182795
1.5356793743890518
1.5073313782991202
1.482893450635386
1.4545454545454546
1.4242424242424243
1.392961876832845
1.3626588465298142
1.3343108504398826
1.3079178885630498
1.2834799608993157
1.260019550342131
1.238514173998045
1.217008797653959
1.195503421309873
1.1808406647116323
1.1700879765395895
1.1544477028347997
1.1378299120234605
1.1202346041055715
1.1026392961876832
1.086021505376344
1.0694037145650048
1.053763440860215
1.0361681329423265
1.018572825024438
1.0009775171065494
0.9902248289345064
0.9833822091886608
0.9736070381231672
0.9638318670576737
0.956989247311828
0.9560117302052786
0.9638318670576737
0.981427174975562
1.0117302052785924
1.0557184750733135
1.115347018572825
1.1896383186705768
1.2776148582600195
1.3636363636363635
1.452590420332356
1.5562072336265884
1.6666666666666667
1.7790811339198436
1.8885630498533723
1.994134897360704
2.0928641251221896
2.1837732160312804
2.2658846529814274
2.340175953079179
2.407624633431085
2.4594330400782014
2.501466275659824
2.5464320625610948
2.591397849462365
2.633431085043988
2.673509286412512
2.7096774193548385
2.7419354838709675
2.7702834799608995
2.792766373411535
2.809384164222874
2.820136852394917
2.8260019550342133
2.8240469208211145
2.81622678396872
2.8054740957966766
2.788856304985337
2.764418377321604
2.7331378299120237
2.69208211143695
2.644183773216031
2.589442815249267
2.5317693059628543
2.4731182795698925
2.4144672531769307
2.361681329423265
2.313782991202346
2.2639296187683287
2.2160312805474094
2.16911045943304
2.124144672531769
2.080156402737048
2.0391006842619745
2.0
1.9618768328445748
1.924731182795699
1.8875855327468232
1.8504398826979471
1.8191593352883677
1.7898338220918866
1.7565982404692082
1.7204301075268815
1.6842619745845553
1.6490713587487782
1.6148582600195502
1.581622678396872
1.564027370478983
1.5532746823069403
1.530791788856305
1.5024437927663734
1.478005865102639
1.456500488758553
1.43108504398827
1.404692082111437
1.3782991202346042
1.3528836754643203
1.3294232649071358
1.3069403714565004
1.284457478005865
1.2619745845552297
1.241446725317693
1.2238514173998043
1.2082111436950147
1.198435972629521
1.1915933528836755
1.1808406647116323
1.1681329423264908
1.1544477028347997
1.1407624633431086
1.1270772238514175
1.1133919843597262
1.099706744868035
1.0850439882697946
1.0713587487781036
1.0596285434995112
1.053763440860215
1.053763440860215
1.0557184750733135
1.064516129032258
1.0840664711632453
1.1173020527859236
1.1652003910068427
1.2287390029325511
1.3069403714565004
1.3988269794721409
1.5024437927663734
1.611925708699902
1.7253176930596286
1.826001955034213
1.9178885630498532
2.016617790811339
2.115347018572825
2.209188660801564
2.2952101661779083
2.3743890518084068
2.4457478005865103
2.5102639296187683
2.56891495601173
2.622678396871945
2.6715542521994133
2.7067448680351904
2.735092864125122
2.7653958944281527
2.793743890518084
2.819159335288368
2.8406647116324537
2.857282502443793
2.8699902248289346
2.877810361681329
2.8797653958944283
2.874877810361681
2.863147605083089
2.843597262952102
2.8181818181818183
2.78494623655914
2.744868035190616
2.6989247311827955
2.6480938416422286
2.593352883675464
2.5376344086021505
2.4809384164222874
2.4252199413489737
2.372434017595308
2.321603128054741
2.2737047898338223
2.232649071358749
2.196480938416422
2.1593352883675463
2.1221896383186705
2.086021505376344
2.0498533724340176
2.0146627565982405
1.978494623655914
1.9423264907135875
1.9071358748778104
1.871945259042033
1.8377321603128052
1.8093841642228736
1.782991202346041
1.75366568914956
1.721407624633431
1.6881720430107527
1.6549364613880744
1.6226783968719452
1.5913978494623655
1.5610948191593352
1.530791788856305
1.501466275659824
1.4731182795698925
1.4457478005865103
1.4242424242424243
1.4066471163245358
1.3870967741935485
1.3665689149560116
1.3450635386119256
1.324535679374389
1.3049853372434017
1.2864125122189638
1.267839687194526
1.2502443792766371
1.2336265884652982
1.2189638318670577
1.209188660801564
1.2023460410557183
1.1925708699902249
1.1808406647116323
1.1681329423264908
1.155425219941349
1.1436950146627567
1.1319648093841643
1.118279569892473
1.104594330400782
1.093841642228739
1.086021505376344
1.086021505376344
1.0948191593352885
1.1143695014662756
1.1456500488758554
1.1915933528836755
1.2541544477028348
1.3343108504398826
1.4291300097751711
1.533724340175953
1.6471163245356797
1.7653958944281525
1.884652981427175
2.002932551319648
2.101661779081134
2.188660801564027
2.281524926686217
2.3714565004887587
2.455522971652004
2.5347018572825024
2.6080156402737047
2.675464320625611
2.7370478983382207
2.7947214076246336
2.84652981427175
2.89345063538612
2.935483870967742
2.963831867057673
2.983382209188661
3.004887585532747
3.024437927663734
3.0410557184750733
3.053763440860215
3.06158357771261
3.0635386119257086
3.060606060606061
3.0518084066471163
3.0361681329423265
3.013685239491691
2.9853372434017595
2.951124144672532
2.909090909090909
2.860215053763441
2.806451612903226
2.7497556207233624
2.6901270772238512
2.6285434995112413
2.5669599217986314
2.5083088954056696
2.452590420332356
2.398826979472141
2.347018572825025
2.302052785923754
2.26197458455523
2.219941348973607
2.176930596285435
2.133919843597263
2.090909090909091
2.0498533724340176
2.0097751710654936
1.970674486803519
1.932551319648094
1.8944281524926687
1.855327468230694
1.822091886608016
1.7927663734115349
1.7595307917888563
1.7253176930596286
1.6911045943304008
1.6578690127077225
1.624633431085044
1.590420332355816
1.5562072336265884
1.521994134897361
1.4887585532746823
1.455522971652004
1.4252199413489737
1.4037145650048877
1.3861192570869991
1.364613880742913
1.3421309872922775
1.3196480938416422
1.2971652003910068
1.2756598240469208
1.2541544477028348
1.2346041055718475
1.2179863147605083
1.203323558162268
1.1896383186705768
1.1808406647116323
1.1749755620723363
1.1652003910068427
1.1544477028347997
1.1436950146627567
1.1319648093841643
1.1202346041055715
1.1085043988269794
1.0987292277614855
1.0909090909090908
1.088954056695992
1.096774193548387
1.1163245356793745
1.1456500488758554
1.1867057673509287
1.24633431085044
1.3235581622678396
1.4164222873900294
1.521994134897361
1.6363636363636365
1.7546432062561097
1.873900293255132
1.991202346041056
2.103616813294233
2.209188660801564
2.2952101661779083
2.366568914956012
2.441837732160313
2.515151515151515
2.5855327468230693
2.650048875855328
2.7096774193548385
2.7653958944281527
2.81622678396872
2.8641251221896384
2.90811339198436
2.9472140762463344
2.981427174975562
3.003910068426197
3.0175953079178885
3.01564027370479
3.002932551319648
2.9980449657869013
2.9931573802541545
2.9853372434017595
2.973607038123167
2.9550342130987293
2.9315738025415445
2.9012707722385143
2.865102639296188
2.8260019550342133
2.782991202346041
2.7331378299120237
2.678396871945259
2.618768328445748
2.5562072336265884
2.49266862170088
2.429130009775171
2.3685239491691106
2.310850439882698
2.2561094819159337
2.204301075268817
2.160312805474096
2.121212121212121
2.080156402737048
2.0391006842619745
1.9990224828934504
1.959921798631476
1.921798631476051
1.884652981427175
1.8484848484848484
1.8132942326490715
1.7790811339198436
1.7438905180840665
1.70772238514174
1.678396871945259
1.651026392961877
1.6207233626588464
1.5894428152492668
1.5562072336265884
1.52297165200391
1.4897360703812317
1.457478005865103
1.426197458455523
1.3958944281524928
1.3665689149560116
1.3391984359726294
1.3176930596285434
1.2981427174975562
1.2746823069403714
1.252199413489736
1.2297165200391007
1.2082111436950147
1.1896383186705768
1.1730205278592376
1.1573802541544478
1.1436950146627567
1.1300097751710656
1.1163245356793745
1.1036168132942326
1.096774193548387
1.0918866080156402
1.0850439882697946
1.0772238514173995
1.067448680351906
1.0576735092864125
1.0469208211143697
1.0391006842619743
1.035190615835777
1.0381231671554252
1.0518084066471165
1.0801564027370478
1.118279569892473
1.1671554252199414
1.2336265884652982
1.3157380254154447
1.4105571847507332
1.5141739980449658
1.624633431085044
1.7380254154447703
1.8504398826979471
1.9579667644183771
2.06158357771261
2.158357771260997
2.247311827956989
2.318670576735093
2.378299120234604
2.439882697947214
2.4995112414467253
2.5562072336265884
2.608993157380254
2.658846529814272
2.7038123167155423
2.7438905180840663
2.780058651026393
2.811339198435973
2.838709677419355
2.855327468230694
2.865102639296188
2.874877810361681
2.8826979472140764
2.8856304985337244
2.8836754643206257
2.874877810361681
2.860215053763441
2.838709677419355
2.8103616813294234
2.774193548387097
2.732160312805474
2.6832844574780057
2.633431085043988
2.58455522971652
2.529814271749756
2.472140762463343
2.41544477028348
2.358748778103617
2.303030303030303
2.2482893450635384
2.196480938416422
2.1485826001955037
2.104594330400782
2.0635386119257086
2.0283479960899315
1.997067448680352
1.962854349951124
1.9286412512218964
1.89247311827957
1.8563049853372435
1.8211143695014664
1.7859237536656891
1.7497556207233629
1.7135874877810362
1.678396871945259
1.643206256109482
1.608993157380254
1.5806451612903225
1.5542521994134897
1.525904203323558
1.495601173020528
1.4633431085043989
1.43108504398827
1.3988269794721409
1.367546432062561
1.3372434017595307
1.3079178885630498
1.2805474095796676
1.2561094819159335
1.238514173998045
1.224828934506354
1.2072336265884651
1.187683284457478
1.1691104594330402
1.1505376344086022
1.1319648093841643
1.1124144672531768
1.093841642228739
1.0762463343108504
1.0596285434995112
1.043010752688172
1.0273704789833822
1.018572825024438
1.0127077223851415
1.0039100684261977
0.9931573802541545
0.9824046920821116
0.9736070381231672
0.9687194525904204
0.9706744868035192
0.9843597262952102
1.010752688172043
1.0527859237536656
1.1114369501466277
1.176930596285435
1.2512218963831867
1.3450635386119256
1.4516129032258065
1.5669599217986314
1.686217008797654
1.8035190615835777
1.9178885630498532
2.026392961876833
2.1270772238514173
2.218963831867057
2.303030303030303
2.380254154447703
2.4408602150537635
2.490713587487781
2.5434995112414467
2.595307917888563
2.643206256109482
2.687194525904203
2.727272727272727
2.7614858260019552
2.790811339198436
2.814271749755621
2.832844574780059
2.84652981427175
2.850439882697948
2.8475073313782997
2.8426197458455524
2.833822091886608
2.819159335288368
2.798631476050831
2.7702834799608995
2.736070381231672
2.695014662756598
2.6480938416422286
2.5972629521016617
2.5425219941348973
2.4858260019550342
2.4330400782013686
2.383186705767351
2.3304007820136854
2.2766373411534704
2.2238514173998043
2.172043010752688
2.1221896383186705
2.0733137829912023
2.024437927663734
1.9745845552297163
1.9257086999022484
1.878787878787879
1.8387096774193548
1.8025415444770283
1.7634408602150538
1.7233626588465298
1.6813294232649072
1.640273704789834
1.6001955034213098
1.5610948191593352
1.5249266862170088
1.4897360703812317
1.455522971652004
1.4242424242424243
1.3958944281524928
1.3734115347018572
1.3548387096774193
1.3333333333333333
1.3118279569892473
1.2913000977517106
1.2717497556207231
1.2512218963831867
1.23069403714565
1.2101661779081134
1.1896383186705768
1.1700879765395895
1.1505376344086022
1.1368523949169111
1.126099706744868
1.1133919843597262
1.099706744868035
1.086021505376344
1.0733137829912025
1.0596285434995112
1.04594330400782
1.04594330400782
1.04594330400782
1.04594330400782
1.04594330400782
1.04594330400782
1.04594330400782
1.0303030303030305
1.0283479960899315
1.0263929618768328
1.0263929618768328
1.0332355816226784
1.0488758553274682
1.0742913000977516
1.1133919843597262
1.166177908113392
1.2326490713587488
1.3128054740957966
1.391006842619746
1.4721407624633431
1.565982404692082
1.667644183773216
1.7702834799608993
1.870967741935484
1.967741935483871
2.056695992179863
2.1388074291300097
2.2130987292277613
2.280547409579668
2.3391984359726297
2.3841642228739004
2.420332355816227
2.4574780058651027
2.493646138807429
2.5268817204301075
2.558162267839687
2.5865102639296187
2.610948191593353
2.631476050830889
2.6480938416422286
2.6608015640273703
2.668621700879765
2.6715542521994133
2.6666666666666665
2.6559139784946235
2.6392961876832843
2.6177908113391983
2.590420332355816
2.5562072336265884
2.5161290322580645
2.4711632453567938
2.4242424242424243
2.375366568914956
2.326490713587488
2.278592375366569
2.2385141739980448
2.2023460410557183
2.164222873900293
2.126099706744868
2.089931573802541
2.0547409579667644
2.0195503421309877
1.986314760508309
1.9530791788856303
1.919843597262952
1.8866080156402736
1.8533724340175952
1.8211143695014664
1.793743890518084
1.7683284457478006
1.739980449657869
1.7096774193548387
1.6764418377321604
1.640273704789834
1.6041055718475072
1.5679374389051808
1.5327468230694037
1.498533724340176
1.466275659824047
1.4349951124144673
1.4105571847507332
1.3900293255131966
1.3665689149560116
1.343108504398827
1.3186705767350928
1.295210166177908
1.2727272727272727
1.2512218963831867
1.2297165200391007
1.2101661779081134
1.1915933528836755
1.1730205278592376
1.155425219941349
1.142717497556207
1.133919843597263
1.121212121212121
1.1065493646138806
1.0918866080156402
1.0762463343108504
1.06158357771261
1.0498533724340176
1.040078201368524
1.0303030303030305
1.021505376344086
1.0127077223851415
1.0097751710654936
1.0117302052785924
1.0156402737047898
1.0263929618768328
1.04594330400782
1.0772238514173995
1.1231671554252198
1.1867057673509287
1.2658846529814272
1.3607038123167154
1.466275659824047
1.5796676441837731
1.696969696969697
1.801564027370479
1.8983382209188664
2.002932551319648
2.110459433040078
2.2140762463343107
2.312805474095797
2.403714565004888
2.484848484848485
2.558162267839687
2.624633431085044
2.6852394916911044
2.7390029325513194
2.779081133919844
2.811339198435973
2.84652981427175
2.8807429130009776
2.9120234604105573
2.940371456500489
2.964809384164223
2.98435972629521
2.997067448680352
3.004887585532747
3.006842619745845
3.0019550342130987
2.991202346041056
2.973607038123167
2.9501466275659824
2.921798631476051
2.886608015640274
2.844574780058651
2.795698924731183
2.7419354838709675
2.684261974584555
2.6236559139784945
2.563049853372434
2.5024437927663734
2.444770283479961
2.393939393939394
2.347996089931574
2.3010752688172045
2.2551319648093844
2.212121212121212
2.1710654936461387
2.1309872922776147
2.0928641251221896
2.0547409579667644
2.016617790811339
1.9804496578690127
1.9442815249266865
1.9100684261974583
1.881720430107527
1.8563049853372435
1.8269794721407624
1.796676441837732
1.7663734115347018
1.7360703812316716
1.7057673509286413
1.675464320625611
1.6441837732160314
1.6129032258064515
1.581622678396872
1.5513196480938416
1.5268817204301075
1.5053763440860215
1.4809384164222874
1.456500488758553
1.4330400782013686
1.4105571847507332
1.3900293255131966
1.370478983382209
1.3519061583577712
1.3333333333333333
1.316715542521994
1.3020527859237536
1.2873900293255132
1.278592375366569
1.2717497556207231
1.2609970674486803
1.2482893450635386
1.2346041055718475
1.2209188660801564
1.2072336265884651
1.1935483870967742
1.1808406647116323
1.1681329423264908
1.1593352883675463
1.1573802541544478
1.1652003910068427
1.1827956989247312
1.2121212121212122
1.2580645161290325
1.3206256109481915
1.3998044965786902
1.4926686217008798
1.595307917888563
1.7028347996089932
1.8132942326490715
1.924731182795699
2.0332355816226784
2.1358748778103616
2.220918866080156
2.294232649071359
2.3704789833822093
2.4457478005865103
2.517106549364614
2.5835777126099706
2.6451612903225805
2.702834799608993
2.7565982404692084
2.806451612903226
2.852394916911046
2.8944281524926687
2.924731182795699
2.9472140762463344
2.970674486803519
2.992179863147605
3.0097751710654936
3.0234604105571847
3.0332355816226784
