ppg
1.9804496578690127
1.9560117302052784
1.9305962854349952
1.906158357771261
1.881720430107527
1.855327468230694
1.827956989247312
1.7986314760508308
1.7673509286412512
1.7360703812316716
1.7038123167155426
1.6715542521994136
1.6412512218963833
1.6129032258064515
1.5865102639296187
1.564027370478983
1.544477028347996
1.5249266862170088
1.504398826979472
1.4858260019550342
1.4682306940371457
1.4516129032258065
1.4349951124144673
1.4173998044965788
1.3998044965786902
1.3812316715542523
1.364613880742913
1.348973607038123
1.3372434017595307
1.3284457478005864
1.3176930596285434
1.305962854349951
1.295210166177908
1.284457478005865
1.2746823069403714
1.2639296187683284
1.2541544477028348
1.2453567937438903
1.2365591397849462
1.227761485826002
1.2228739002932552
1.2179863147605083
1.209188660801564
1.1994134897360704
1.1867057673509287
1.173998044965787
1.1612903225806452
1.1495601173020529
1.1397849462365592
1.130987292277615
1.1251221896383188
1.1241446725317692
1.1300097751710656
1.144672531769306
1.1710654936461389
1.2160312805474096
1.2864125122189638
1.3851417399804498
1.512218963831867
1.664711632453568
1.8377321603128052
2.0234604105571847
2.212121212121212
2.3949169110459434
2.5640273704789838
2.696969696969697
2.801564027370479
2.900293255131965
2.983382209188661
3.047898338220919
3.0928641251221896
3.118279569892473
3.126099706744868
3.118279569892473
3.0987292277614857
3.064516129032258
3.0175953079178885
2.960899315738025
2.900293255131965
2.835777126099707
2.7614858260019552
2.681329423264907
2.60019550342131
2.5210166177908118
2.4486803519061584
2.3841642228739004
2.3274682306940373
2.280547409579668
2.244379276637341
2.217986314760508
2.1974584555229715
2.1818181818181817
2.1700879765395893
2.1593352883675463
2.146627565982405
2.132942326490713
2.120234604105572
2.1055718475073317
2.088954056695992
2.070381231671554
2.0498533724340176
2.027370478983382
2.003910068426197
1.9824046920821117
1.9589442815249267
1.9296187683284456
1.8973607038123168
1.8631476050830889
1.8269794721407624
1.7917888563049853
1.758553274682307
1.7253176930596286
1.6930596285434996
1.66177908113392
1.6314760508308896
1.607038123167155
1.5835777126099706
1.5542521994134897
1.5249266862170088
1.4975562072336266
1.4721407624633431
1.447702834799609
1.4271749755620724
1.4086021505376345
1.391006842619746
1.375366568914956
1.3616813294232648
1.3499511241446724
1.3401759530791788
1.3284457478005864
1.3157380254154447
1.303030303030303
1.2903225806451613
1.278592375366569
1.2658846529814272
1.2551319648093842
1.2443792766373412
1.2336265884652982
1.224828934506354
1.2179863147605083
1.2140762463343109
1.2130987292277615
1.2111436950146628
1.2072336265884651
1.2013685239491692
1.1945259042033236
1.187683284457478
1.1808406647116323
1.1730205278592376
1.1652003910068427
1.1583577712609971
1.1505376344086022
1.1456500488758554
1.142717497556207
1.1368523949169111
1.130987292277615
1.1251221896383188
1.121212121212121
1.1221896383186705
1.1319648093841643
1.1564027370478984
1.203323558162268
1.2776148582600195
1.380254154447703
1.5112414467253177
1.6412512218963833
1.775171065493646
1.9364613880742916
2.1094819159335287
2.281524926686217
2.443792766373412
2.591397849462365
2.721407624633431
2.827956989247312
2.9120234604105573
2.9716520039100685
3.007820136852395
3.0205278592375366
3.01564027370479
3.0009775171065494
2.9765395894428157
2.9423264907135875
2.8993157380254155
2.8475073313782997
2.788856304985337
2.724340175953079
2.6559139784946235
2.58455522971652
2.5131964809384164
2.444770283479961
2.3851417399804498
2.332355816226784
2.281524926686217
2.2355816226783967
2.198435972629521
2.1710654936461387
2.1495601173020527
2.132942326490713
2.120234604105572
2.10850439882698
2.0957966764418376
2.0821114369501466
2.0684261974584555
2.053763440860215
2.037145650048876
2.0195503421309877
2.0009775171065494
1.981427174975562
1.9608993157380252
1.9393939393939397
1.916911045943304
1.8944281524926687
1.871945259042033
1.8484848484848484
1.823069403714565
1.8005865102639296
1.7771260997067448
1.7487781036168133
1.718475073313783
1.6881720430107527
1.6578690127077225
1.6275659824046922
1.5992179863147604
1.5718475073313782
1.544477028347996
1.5180840664711632
1.4916911045943304
1.469208211143695
1.447702834799609
1.4242424242424243
1.3988269794721409
1.3714565004887584
1.3450635386119256
1.3176930596285434
1.2873900293255132
1.2561094819159335
1.2258064516129032
1.1945259042033236
1.1622678396871946
1.1290322580645162
1.1016617790811338
1.0762463343108504
1.0469208211143697
1.0156402737047898
0.9853372434017597
0.956989247311828
0.9315738025415444
0.9081133919843596
0.8875855327468231
0.8690127077223851
0.8533724340175953
0.8435972629521017
0.8435972629521017
0.852394916911046
0.8660801564027371
0.8856304985337243
0.9110459433040078
0.93841642228739
0.9667644183773216
0.9921798631476052
1.0117302052785924
1.0254154447702837
1.032258064516129
1.0361681329423265
1.0410557184750733
1.0498533724340176
1.067448680351906
1.099706744868035
1.152492668621701
1.2297165200391007
1.3343108504398826
1.4643206256109482
1.6148582600195502
1.7781036168132942
1.946236559139785
2.113391984359726
2.272727272727273
2.40078201368524
2.50733137829912
2.613880742913001
2.710654936461388
2.791788856304985
2.855327468230694
2.9012707722385143
2.9286412512218964
2.936461388074292
2.9257086999022484
2.8993157380254155
2.8611925708699903
2.8103616813294234
2.755620723362659
2.6959921798631474
2.6265884652981426
2.5513196480938416
2.4750733137829912
2.39980449657869
2.3284457478005867
2.26197458455523
2.2023460410557183
2.1515151515151514
2.10752688172043
2.0733137829912023
2.047898338220919
2.0283479960899315
2.013685239491691
2.0
1.988269794721408
1.9745845552297163
1.9579667644183771
1.9403714565004888
1.920821114369501
1.8993157380254155
1.873900293255132
1.847507331378299
1.8201368523949168
1.7947214076246334
1.7683284457478006
1.7380254154447703
1.7057673509286413
1.672531769305963
1.6373411534701858
1.6021505376344083
1.5679374389051808
1.5347018572825024
1.504398826979472
1.478005865102639
1.4535679374389052
1.434017595307918
1.4164222873900294
1.3958944281524928
1.375366568914956
1.3558162267839686
1.335288367546432
1.3128054740957966
1.2903225806451613
1.2688172043010753
1.249266862170088
1.2326490713587488
1.219941348973607
1.2101661779081134
1.2043010752688172
1.2003910068426198
1.1945259042033236
1.187683284457478
1.1808406647116323
1.1730205278592376
1.1652003910068427
1.1583577712609971
1.1505376344086022
1.142717497556207
1.1358748778103618
1.1280547409579669
1.1231671554252198
1.121212121212121
1.1163245356793745
1.110459433040078
1.1036168132942326
1.093841642228739
1.0840664711632453
1.0742913000977516
1.0654936461388074
1.056695992179863
1.04594330400782
1.0361681329423265
1.0312805474095796
1.0283479960899315
1.021505376344086
1.0156402737047898
1.010752688172043
1.007820136852395
1.0097751710654936
1.021505376344086
1.0488758553274682
1.0948191593352885
1.1652003910068427
1.2609970674486803
1.3822091886608017
1.5053763440860215
1.635386119257087
1.793743890518084
1.964809384164223
2.1378299120234603
2.303030303030303
2.453567937438905
2.5835777126099706
2.6901270772238512
2.771260997067449
2.827956989247312
2.86217008797654
2.8719452590420333
2.866080156402737
2.849462365591398
2.817204301075269
2.773216031280548
2.7253176930596283
2.6725317693059627
2.6148582600195502
2.5542521994134897
2.490713587487781
2.4271749755620724
2.364613880742913
2.304007820136853
2.2521994134897363
2.207233626588465
2.1652003910068425
2.129032258064516
2.099706744868035
2.0772238514174
2.060606060606061
2.047898338220919
2.0391006842619745
2.032258064516129
2.026392961876833
2.0195503421309877
2.010752688172043
2.0019550342130987
1.9931573802541545
1.9804496578690127
1.964809384164223
1.946236559139785
1.9237536656891496
1.900293255131965
1.87683284457478
1.8523949169110456
1.828934506353861
1.8054740957966764
1.7839687194525904
1.7644183773216031
1.7448680351906158
1.721407624633431
1.696969696969697
1.672531769305963
1.6451612903225807
1.616813294232649
1.5894428152492668
1.564027370478983
1.5395894428152492
1.517106549364614
1.4965786901270772
1.4809384164222874
1.4682306940371457
1.4535679374389052
1.436950146627566
1.4203323558162269
1.4037145650048877
1.3870967741935485
1.3714565004887584
1.3587487781036167
1.3470185728250244
1.335288367546432
1.3225806451612905
1.3098729227761483
1.300097751710655
1.2913000977517106
1.281524926686217
1.2717497556207231
1.2649071358748778
1.260019550342131
1.2551319648093842
1.2512218963831867
1.2473118279569892
1.2434017595307918
1.2375366568914956
1.2316715542521994
1.2287390029325511
1.2267839687194526
1.2218963831867058
1.2140762463343109
1.2052785923753666
1.195503421309873
1.1857282502443791
1.1779081133919844
1.1710654936461389
1.1652003910068427
1.1612903225806452
1.1612903225806452
1.1691104594330402
1.1867057673509287
1.2150537634408602
1.2619745845552297
1.3313782991202343
1.4252199413489737
1.543499511241447
1.6823069403714566
1.836754643206256
1.9990224828934504
2.160312805474096
2.312805474095797
2.449657869012708
2.5532746823069403
2.631476050830889
2.702834799608993
2.7614858260019552
2.803519061583578
2.827956989247312
2.835777126099707
2.827956989247312
2.8054740957966766
2.7722385141739982
2.730205278592375
1.4750733137829912
1.4467253176930597
1.4203323558162269
1.392961876832845
1.364613880742913
1.3372434017595307
1.3128054740957966
1.2883675464320623
1.2658846529814272
1.2453567937438903
1.2267839687194526
1.2082111436950147
1.1906158357771262
1.173998044965787
1.1573802541544478
1.141739980449658
1.126099706744868
1.1133919843597262
1.1026392961876832
1.0899315738025417
1.0772238514173995
1.0684261974584557
1.0596285434995112
1.0488758553274682
1.035190615835777
1.0195503421309873
1.0058651026392962
0.9921798631476052
0.9794721407624634
0.9696969696969696
0.9638318670576737
0.9589442815249268
0.95405669599218
0.9501466275659824
0.946236559139785
0.9413489736070382
0.935483870967742
0.9296187683284456
0.9237536656891496
0.9178885630498532
0.9100684261974584
0.9012707722385142
0.895405669599218
0.8914956011730205
0.8895405669599218
0.895405669599218
0.916911045943304
0.9589442815249268
1.0224828934506354
1.1094819159335287
1.2238514173998043
1.364613880742913
1.5239491691104594
1.6959921798631477
1.871945259042033
2.0195503421309877
2.147605083088954
2.2795698924731185
2.40078201368524
2.504398826979472
2.5884652981427174
2.652003910068426
2.6959921798631474
2.724340175953079
2.73802541544477
2.7370478983382207
2.7233626588465296
2.697947214076246
2.66177908113392
2.6177908113391983
2.567937438905181
2.512218963831867
2.4516129032258065
2.389051808406647
2.3225806451612905
2.257086999022483
2.196480938416422
2.1388074291300097
2.0869990224828934
2.042033235581622
2.002932551319648
1.9696969696969695
1.9403714565004888
1.916911045943304
1.8983382209188664
1.8836754643206255
1.8699902248289344
1.855327468230694
1.8387096774193548
1.8211143695014664
1.8025415444770283
1.7849462365591398
1.7663734115347018
1.7468230694037146
1.7243401759530792
1.6989247311827955
1.672531769305963
1.6471163245356797
1.6207233626588464
1.590420332355816
1.5581622678396871
1.5268817204301075
1.4946236559139785
1.4643206256109482
1.4379276637341154
1.41544477028348
1.393939393939394
1.3695014662756595
1.343108504398827
1.3147605083088951
1.2864125122189638
1.260019550342131
1.2346041055718475
1.2111436950146628
1.1896383186705768
1.1700879765395895
1.1495601173020529
1.1300097751710656
1.1143695014662756
1.096774193548387
1.0791788856304985
1.064516129032258
1.0527859237536656
1.0439882697947214
1.0361681329423265
1.029325513196481
1.021505376344086
1.010752688172043
1.0009775171065494
0.9931573802541545
0.9863147605083088
0.9794721407624634
0.9716520039100685
0.9618768328445748
0.9501466275659824
0.93841642228739
0.9266862170087976
0.913978494623656
0.9032258064516128
0.8934506353861192
0.8836754643206256
0.8778103616813294
0.8748778103616813
0.8729227761485826
0.8690127077223851
0.8641251221896383
0.8621700879765396
0.8592375366568915
0.8563049853372434
0.8572825024437928
0.8660801564027371
0.884652981427175
0.9208211143695014
0.9804496578690128
1.0654936461388074
1.1573802541544478
1.260019550342131
1.3958944281524928
1.5532746823069403
1.7204301075268815
1.8856304985337244
2.040078201368524
2.1818181818181817
2.30791788856305
2.4164222873900294
2.504398826979472
2.5698924731182795
2.6050830889540566
2.619745845552297
2.624633431085044
2.6148582600195502
2.592375366568915
2.5610948191593352
2.5210166177908118
2.4731182795698925
2.420332355816227
2.361681329423265
2.2981427174975564
2.232649071358749
2.16911045943304
2.112414467253177
2.06158357771261
2.010752688172043
1.9608993157380252
1.9149560117302051
1.8758553274682308
1.8455522971652003
1.8211143695014664
1.801564027370479
1.7869012707722385
1.7771260997067448
1.76930596285435
1.7605083088954057
1.7517106549364614
1.7419354838709675
1.729227761485826
1.7135874877810362
1.696969696969697
1.6764418377321604
1.6520039100684265
1.6275659824046922
1.603128054740958
1.5786901270772238
1.5542521994134897
1.5278592375366569
1.500488758553275
1.4750733137829912
1.4496578690127078
1.423264907135875
1.3949169110459434
1.3655913978494625
1.335288367546432
1.3049853372434017
1.2756598240469208
1.2482893450635386
1.2228739002932552
1.1974584555229717
1.1759530791788857
1.1583577712609971
1.1407624633431086
1.1221896383186705
1.1055718475073313
1.0879765395894427
1.072336265884653
1.0576735092864125
1.04594330400782
1.035190615835777
1.024437927663734
1.013685239491691
1.0039100684261977
0.9960899315738024
0.9912023460410556
0.9853372434017597
0.9794721407624634
1.0117302052785924
1.064516129032258
1.088954056695992
1.0977517106549364
1.099706744868035
1.096774193548387
1.0918866080156402
1.0850439882697946
1.078201368523949
1.0713587487781036
1.0635386119257086
1.056695992179863
1.0478983382209188
1.0391006842619743
1.0312805474095796
1.0254154447702837
1.0224828934506354
1.021505376344086
1.0205278592375366
1.0234604105571847
1.0312805474095796
1.0478983382209188
1.0821114369501466
1.1378299120234605
1.2189638318670577
1.327468230694037
1.4613880742913
1.6158357771260996
1.7839687194525904
1.9589442815249267
2.131964809384164
2.2961876832844577
2.444770283479961
2.5542521994134897
2.635386119257087
2.7096774193548385
2.76930596285435
2.812316715542522
2.838709677419355
2.8484848484848486
2.8455522971652005
2.83088954056696
2.806451612903226
2.771260997067449
2.7262952101661777
2.675464320625611
2.621700879765396
2.560117302052786
2.493646138807429
2.4252199413489737
2.3548387096774195
2.2873900293255134
2.2267839687194524
2.1700879765395893
2.117302052785924
2.071358748778104
2.0361681329423265
2.0087976539589443
1.9853372434017595
1.9667644183773216
1.9530791788856303
1.93841642228739
1.9237536656891496
1.9100684261974583
1.8934506353861196
1.8758553274682308
1.855327468230694
1.8318670576735088
1.8074291300097751
1.7820136852394917
1.758553274682307
1.7350928641251222
1.710654936461388
1.6823069403714566
1.6500488758553276
1.6177908113391983
1.585532746823069
1.5532746823069403
1.521016617790811
1.4887585532746823
1.457478005865103
1.4291300097751711
1.401759530791789
1.3782991202346042
1.3577712609970674
1.3343108504398826
1.3098729227761483
1.284457478005865
1.2590420332355816
1.2346041055718475
1.2130987292277615
1.1925708699902249
1.173998044965787
1.1583577712609971
1.142717497556207
1.1280547409579669
1.1143695014662756
1.0977517106549364
1.0811339198435972
1.0664711632453567
1.0518084066471165
1.0371456500488758
1.0263929618768328
1.0195503421309873
1.0166177908113392
1.013685239491691
1.0087976539589445
1.0048875855327468
1.002932551319648
0.9980449657869012
0.9912023460410556
0.9843597262952102
0.9775171065493646
0.9706744868035192
0.9648093841642228
0.9579667644183774
0.9530791788856304
0.9472140762463344
0.9413489736070382
0.935483870967742
0.9305962854349952
0.9296187683284456
0.9296187683284456
0.9325513196480938
0.9452590420332356
0.9726295210166178
1.018572825024438
1.0899315738025417
1.1906158357771262
1.3186705767350928
1.4682306940371457
1.632453567937439
1.8054740957966764
1.9560117302052784
2.09188660801564
2.2375366568914954
2.378299120234604
2.505376344086021
2.613880742913001
2.7008797653958942
2.763440860215054
2.8044965786901277
2.8289345063538613
2.8377321603128056
2.833822091886608
2.819159335288368
2.7947214076246336
2.766373411534702
2.7331378299120237
2.69208211143695
2.64613880742913
2.593352883675464
2.5317693059628543
2.463343108504399
2.393939393939394
2.3255131964809386
2.259042033235582
2.196480938416422
2.1417399804496577
2.0957966764418376
2.0557184750733137
2.024437927663734
2.0
1.9794721407624636
1.9618768328445748
1.949169110459433
1.9364613880742916
1.919843597262952
1.902248289345064
1.881720430107527
1.858260019550342
1.833822091886608
1.8084066471163245
1.7810361681329423
1.7517106549364614
1.7204301075268815
1.6901270772238517
1.6608015640273706
1.629521016617791
1.598240469208211
1.565982404692082
1.533724340175953
1.499511241446725
1.4682306940371457
1.4408602150537635
1.414467253176931
1.388074291300098
1.3626588465298142
1.3362658846529814
1.310850439882698
1.284457478005865
1.2590420332355816
1.2346041055718475
1.2130987292277615
1.1925708699902249
1.1759530791788857
1.1612903225806452
1.1436950146627567
1.1251221896383188
1.1065493646138806
1.088954056695992
1.072336265884653
1.0576735092864125
1.0469208211143697
1.0381231671554252
1.0303030303030305
1.0234604105571847
1.0166177908113392
1.0117302052785924
1.0097751710654936
1.0048875855327468
0.9960899315738024
0.9882697947214076
0.981427174975562
0.9716520039100685
0.959921798631476
0.9491691104594332
0.9423264907135877
0.9393939393939394
0.9374389051808406
0.93841642228739
0.9403714565004888
0.93841642228739
0.9305962854349952
0.919843597262952
0.9081133919843596
0.8973607038123167
0.8905180840664711
0.8924731182795699
0.9090909090909092
0.946236559139785
1.0068426197458455
1.0918866080156402
1.1827956989247312
1.2873900293255132
1.423264907135875
1.5806451612903225
1.7517106549364614
1.9266862170087975
2.0928641251221896
2.244379276637341
2.375366568914956
2.4838709677419355
2.570869990224829
2.635386119257087
2.6725317693059627
2.6911045943304006
2.701857282502444
2.7008797653958942
2.689149560117302
2.6666666666666665
2.636363636363636
2.598240469208211
2.552297165200391
2.4995112414467253
2.4408602150537635
2.4086021505376345
2.393939393939394
2.355816226783969
2.302052785923754
2.242424242424242
2.1818181818181817
2.1251221896383186
2.074291300097752
2.029325513196481
1.992179863147605
1.963831867057673
1.9442815249266865
1.9335288367546437
1.9257086999022484
1.9188660801564028
1.911045943304008
1.900293255131965
1.8885630498533723
1.8748778103616808
1.8563049853372435
1.833822091886608
1.8093841642228736
1.7820136852394917
1.7526881720430108
1.721407624633431
1.689149560117302
1.6598240469208212
1.632453567937439
1.6021505376344083
1.5728250244379276
1.544477028347996
1.517106549364614
1.490713587487781
1.4623655913978495
1.4320625610948192
1.4007820136852396
1.370478983382209
1.3421309872922775
1.316715542521994
1.2981427174975562
1.281524926686217
1.2639296187683284
1.2453567937438903
1.2258064516129032
1.2043010752688172
1.1808406647116323
1.1593352883675463
1.141739980449658
1.1270772238514175
1.1133919843597262
1.099706744868035
1.0899315738025417
1.083088954056696
1.0762463343108504
1.0694037145650048
1.064516129032258
1.0586510263929618
1.0488758553274682
1.0381231671554252
1.0263929618768328
1.013685239491691
1.0009775171065494
0.9912023460410556
0.9863147605083088
0.9833822091886608
0.9824046920821116
0.978494623655914
0.9736070381231672
0.9687194525904204
0.9638318670576737
0.9579667644183774
0.9511241446725318
0.9452590420332356
0.93841642228739
0.9335288367546432
0.9325513196480938
0.935483870967742
0.9403714565004888
0.9521016617790812
0.981427174975562
1.035190615835777
1.1163245356793745
1.2228739002932552
1.3548387096774193
1.5063538611925709
1.6715542521994136
1.844574780058651
2.0146627565982405
2.1730205278592374
2.2981427174975564
2.39980449657869
2.4995112414467253
2.5855327468230693
2.6510263929618767
2.696969696969697
2.7262952101661777
2.739980449657869
2.73802541544477
2.724340175953079
2.697947214076246
2.658846529814272
2.6129032258064515
2.5640273704789838
2.506353861192571
2.442815249266862
2.378299120234604
2.313782991202346
2.2482893450635384
2.1847507331378297
2.1251221896383186
2.071358748778104
2.024437927663734
1.986314760508309
1.9579667644183771
1.9364613880742916
1.919843597262952
1.9042033235581624
1.8905180840664717
1.87683284457478
1.8631476050830889
1.8504398826979471
1.836754643206256
1.822091886608016
1.8035190615835777
1.7810361681329423
1.758553274682307
1.7390029325513197
1.7194525904203324
1.6950146627565983
1.6666666666666667
1.635386119257087
1.6041055718475072
1.573802541544477
1.5454545454545454
1.5180840664711632
1.490713587487781
1.4643206256109482
1.4379276637341154
1.4115347018572826
1.3890518084066472
1.3695014662756595
1.348973607038123
1.3255131964809383
1.300097751710655
1.2746823069403714
1.249266862170088
1.224828934506354
1.2023460410557183
1.181818181818182
1.163245356793744
1.147605083088954
1.1368523949169111
1.1280547409579669
1.1163245356793745
1.104594330400782
1.0918866080156402
1.0791788856304985
1.067448680351906
1.056695992179863
1.0449657869012707
1.032258064516129
1.0234604105571847
1.0156402737047898
1.007820136852395
1.0039100684261977
1.0019550342130987
0.9980449657869012
0.989247311827957
0.978494623655914
0.9696969696969696
0.9618768328445748
0.9530791788856304
0.946236559139785
0.9393939393939394
0.935483870967742
0.9335288367546432
0.9325513196480938
0.9325513196480938
0.9286412512218964
0.9257086999022482
0.9257086999022482
0.9305962854349952
0.9442815249266864
0.9706744868035192
1.0166177908113392
1.0869990224828934
1.1808406647116323
1.300097751710655
1.4408602150537635
1.573802541544477
1.7057673509286413
1.8602150537634408
2.018572825024438
2.1700879765395893
2.30791788856305
2.4271749755620724
2.525904203323558
2.6050830889540566
2.6608015640273703
2.695014662756598
2.7126099706744866
2.713587487781036
2.701857282502444
2.6832844574780057
2.653958944281525
2.616813294232649
2.5718475073313782
2.517106549364614
2.453567937438905
2.3870967741935485
2.318670576735093
2.2482893450635384
2.1818181818181817
2.124144672531769
2.070381231671554
2.0195503421309877
1.975562072336266
1.9393939393939397
1.911045943304008
1.8905180840664717
1.8748778103616808
1.8621700879765395
1.8494623655913975
1.836754643206256
1.8240469208211143
1.8113391984359728
1.7976539589442817
1.7849462365591398
1.772238514173998
1.7575757575757576
1.739980449657869
1.7194525904203324
1.6950146627565983
1.6666666666666667
1.635386119257087
1.6041055718475072
1.573802541544477
1.5454545454545454
1.521016617790811
1.499511241446725
1.474095796676442
1.444770283479961
1.4134897360703813
1.3822091886608017
1.3519061583577712
1.3235581622678396
1.2961876832844574
1.2697947214076246
1.2453567937438903
1.2228739002932552
1.198435972629521
1.1759530791788857
1.160312805474096
1.1456500488758554
1.1319648093841643
1.118279569892473
1.1280547409579669
1.1515151515151516
1.1573802541544478
1.1534701857282503
