ppg
1.8523949169110456
1.827956989247312
1.8054740957966764
1.7820136852394917
1.750733137829912
1.7135874877810362
1.672531769305963
1.6314760508308896
1.5923753665689149
1.5532746823069403
1.5141739980449658
1.4750733137829912
1.4389051808406648
1.4037145650048877
1.375366568914956
1.3528836754643203
1.327468230694037
1.3020527859237536
1.2766373411534702
1.252199413489736
1.2297165200391007
1.2101661779081134
1.1925708699902249
1.176930596285435
1.1652003910068427
1.1573802541544478
1.1534701857282503
1.1573802541544478
1.173998044965787
1.2111436950146628
1.2776148582600195
1.3822091886608017
1.5298142717497556
1.7135874877810362
1.9266862170087975
2.156402737047898
2.3841642228739004
2.593352883675464
2.7722385141739982
2.8993157380254155
2.9804496578690127
3.034213098729228
3.0576735092864125
3.0527859237536656
3.026392961876833
2.98435972629521
2.932551319648094
2.87683284457478
2.817204301075269
2.7546432062561097
2.6901270772238512
2.668621700879765
2.679374389051808
2.6695992179863146
2.6451612903225805
2.611925708699902
2.572825024437928
2.530791788856305
2.4858260019550342
2.441837732160313
2.398826979472141
2.358748778103617
2.3225806451612905
2.29227761485826
2.270772238514174
2.2551319648093844
2.242424242424242
2.233626588465298
2.2297165200391005
2.228739002932551
2.2297165200391005
2.23069403714565
2.231671554252199
2.231671554252199
2.2297165200391005
2.2248289345063537
2.2160312805474094
2.207233626588465
2.1974584555229715
2.1837732160312804
2.1681329423264906
2.15347018572825
2.139784946236559
2.1270772238514173
2.114369501466276
2.102639296187683
2.090909090909091
2.080156402737048
2.070381231671554
2.0635386119257086
2.058651026392962
2.0518084066471163
2.0439882697947214
2.037145650048876
2.032258064516129
2.027370478983382
2.022482893450636
2.018572825024438
2.0146627565982405
2.010752688172043
2.0097751710654936
2.0146627565982405
2.027370478983382
2.0498533724340176
2.088954056695992
2.1485826001955037
2.228739002932551
2.3274682306940373
2.439882697947214
2.557184750733138
2.6725317693059627
2.7781036168132944
2.866080156402737
2.9345063538611926
2.978494623655914
3.0009775171065494
3.0097751710654936
3.005865102639296
2.9902248289345064
2.9657869012707723
2.935483870967742
2.902248289345064
2.8690127077223853
2.835777126099707
2.8025415444770285
2.768328445747801
2.7341153470185726
2.701857282502444
2.6695992179863146
2.632453567937439
2.591397849462365
2.547409579667644
2.5024437927663734
2.458455522971652
2.4173998044965788
2.3812316715542523
2.350928641251222
2.3284457478005867
2.314760508308896
2.30791788856305
2.3059628543499517
2.30791788856305
2.313782991202346
2.320625610948192
2.3274682306940373
2.332355816226784
2.335288367546432
2.334310850439883
2.3304007820136854
2.32355816226784
2.312805474095797
2.3010752688172045
2.289345063538612
2.275659824046921
2.26197458455523
2.247311827956989
2.233626588465298
2.219941348973607
2.207233626588465
2.1945259042033234
2.182795698924731
2.172043010752688
2.160312805474096
2.1495601173020527
2.142717497556207
2.136852394916911
2.1309872922776147
2.1251221896383186
2.1192570869990224
2.115347018572825
2.1114369501466275
2.10752688172043
2.103616813294233
2.1006842619745845
2.1006842619745845
2.10752688172043
2.120234604105572
2.1436950146627565
2.1867057673509285
2.2502443792766376
2.334310850439883
2.4349951124144678
2.548387096774193
2.665689149560117
2.779081133919844
2.8797653958944283
2.961876832844575
3.022482893450636
3.06158357771261
3.0791788856304985
3.081133919843597
3.0733137829912023
3.056695992179863
3.034213098729228
3.006842619745845
2.9775171065493646
2.946236559139785
2.913000977517106
2.878787878787879
2.841642228739003
2.80058651026393
2.7624633431085046
2.7233626588465296
2.678396871945259
2.63049853372434
2.5806451612903225
2.529814271749756
2.479960899315738
2.434017595307918
2.3929618768328447
2.356793743890518
2.3274682306940373
2.3059628543499517
2.290322580645161
2.281524926686217
2.27761485826002
2.2766373411534704
2.27761485826002
2.278592375366569
2.278592375366569
2.275659824046921
2.269794721407625
2.26197458455523
2.251221896383187
2.2375366568914954
2.2218963831867056
2.2082111436950145
2.196480938416422
2.1818181818181817
2.166177908113392
2.150537634408602
2.1358748778103616
2.1221896383186705
2.1094819159335287
2.0957966764418376
2.0821114369501466
2.070381231671554
2.058651026392962
2.046920821114369
2.038123167155425
2.032258064516129
2.0254154447702835
2.0175953079178885
2.0097751710654936
2.003910068426197
1.9990224828934504
1.997067448680352
2.0
2.0127077223851417
2.0391006842619745
2.0840664711632453
2.1388074291300097
2.207233626588465
2.3010752688172045
2.4134897360703813
2.5347018572825024
2.6559139784946235
2.7673509286412514
2.860215053763441
2.9315738025415445
2.9804496578690127
3.007820136852395
3.0175953079178885
3.013685239491691
3.0009775171065494
2.9824046920821115
2.959921798631476
2.935483870967742
2.9100684261974585
2.8836754643206257
2.857282502443793
2.8299120234604107
2.80058651026393
2.76930596285435
2.735092864125122
2.697947214076246
2.66177908113392
2.624633431085044
2.581622678396872
2.5347018572825024
2.486803519061584
2.441837732160313
2.39980449657869
2.3626588465298144
2.333333333333333
2.3118279569892475
2.2991202346041058
2.29227761485826
2.291300097751711
2.294232649071359
2.2981427174975564
2.303030303030303
2.30791788856305
2.3118279569892475
2.313782991202346
2.3118279569892475
2.3069403714565007
2.2991202346041058
2.2873900293255134
2.272727272727273
2.2561094819159337
2.241446725317693
2.225806451612903
2.207233626588465
2.187683284457478
2.167155425219941
2.146627565982405
1.8973607038123168
1.5288367546432062
1.324535679374389
1.2052785923753666
1.130987292277615
1.0801564027370478
1.0449657869012707
1.024437927663734
1.0127077223851415
1.0039100684261977
0.9960899315738024
0.989247311827957
0.9843597262952102
0.9824046920821116
0.9912023460410556
1.0175953079178883
1.0684261974584557
1.1534701857282503
1.2756598240469208
1.4086021505376345
1.5591397849462365
1.750733137829912
1.962854349951124
2.175953079178885
2.3734115347018574
2.5405669599217986
2.6715542521994133
2.763440860215054
2.81622678396872
2.834799608993157
2.8260019550342133
2.798631476050831
2.7614858260019552
2.716520039100684
2.6637341153470184
2.6070381231671558
2.549364613880743
2.4916911045943304
2.432062561094819
2.3704789833822093
2.3059628543499517
2.236559139784946
2.160312805474096
2.078201368523949
2.002932551319648
1.9305962854349952
1.8504398826979471
1.76930596285435
1.6920821114369502
1.6226783968719452
1.564027370478983
1.517106549364614
1.4848484848484849
1.4652981427174976
1.456500488758553
1.456500488758553
1.4613880742913
1.4682306940371457
1.4731182795698925
1.47702834799609
1.478005865102639
1.474095796676442
1.4643206256109482
1.4496578690127078
1.4301075268817205
1.4066471163245358
1.3822091886608017
1.3558162267839686
1.327468230694037
1.3040078201368523
1.2834799608993157
1.2580645161290325
1.23069403714565
1.2023460410557183
1.1749755620723363
1.1495601173020529
1.1251221896383188
1.1016617790811338
1.0811339198435972
1.0635386119257086
1.0469208211143697
1.0361681329423265
1.0283479960899315
1.0205278592375366
1.0146627565982405
1.0097751710654936
1.0068426197458455
1.0097751710654936
1.0273704789833822
1.0684261974584557
1.1407624633431086
1.252199413489736
1.4027370478983383
1.585532746823069
1.7605083088954057
1.932551319648094
2.1251221896383186
2.314760508308896
2.484848484848485
2.624633431085044
2.729227761485826
2.7976539589442817
2.835777126099707
2.8484848484848486
2.8426197458455524
2.822091886608016
2.792766373411535
2.757575757575758
2.713587487781036
2.6637341153470184
2.608993157380254
2.550342130987292
2.487781036168133
2.4252199413489737
2.360703812316716
2.2961876832844577
2.233626588465298
2.172043010752688
2.114369501466276
2.064516129032258
2.0195503421309877
1.9716520039100685
1.9257086999022484
1.884652981427175
1.8504398826979471
1.8240469208211143
1.8054740957966764
1.7927663734115349
1.7859237536656891
1.7810361681329423
1.7732160312805474
1.7644183773216031
1.7517106549364614
1.7302052785923754
1.6989247311827955
1.6578690127077225
1.607038123167155
1.5503421309872922
1.4897360703812317
1.4291300097751711
1.3734115347018572
1.3235581622678396
1.2834799608993157
1.2541544477028348
1.2375366568914956
1.2326490713587488
1.2346041055718475
1.2424242424242424
1.2561094819159335
1.2727272727272727
1.2883675464320623
1.303030303030303
1.316715542521994
1.3264907135874875
1.332355816226784
1.3343108504398826
1.335288367546432
1.3333333333333333
1.3255131964809383
1.3176930596285434
1.3147605083088951
1.324535679374389
1.356793743890518
1.4222873900293256
1.5288367546432062
1.6842619745845553
1.889540566959922
2.1407624633431084
2.4242424242424243
2.679374389051808
2.911045943304008
3.156402737047898
3.3792766373411536
3.558162267839687
3.6803519061583576
3.743890518084066
3.752688172043011
3.716520039100684
3.643206256109482
3.5454545454545454
3.432062561094819
3.3196480938416424
3.207233626588465
3.083088954056696
2.951124144672532
2.81622678396872
2.677419354838709
2.5347018572825024
2.3900293255131966
2.2453567937438903
2.102639296187683
1.964809384164223
1.836754643206256
1.7223851417399805
1.6344086021505375
1.56891495601173
1.5141739980449658
1.4731182795698925
1.4457478005865103
1.426197458455523
1.4086021505376345
1.3870967741935485
1.3558162267839686
1.310850439882698
1.2512218963831867
1.176930596285435
1.10752688172043
1.0381231671554252
0.9521016617790812
0.8602150537634409
0.7673509286412512
0.678396871945259
0.5992179863147605
0.5347018572825024
0.4877810361681329
0.4623655913978494
0.4604105571847507
0.4809384164222874
0.5210166177908113
0.5728250244379277
0.6344086021505376
0.70772238514174
0.7878787878787878
0.8709677419354839
0.9530791788856304
1.032258064516129
1.1055718475073313
1.1700879765395895
1.2238514173998043
1.2668621700879763
1.300097751710655
1.327468230694037
1.3509286412512218
1.3812316715542523
1.4271749755620724
1.4965786901270772
1.5992179863147604
1.739980449657869
1.9130009775171064
2.112414467253177
2.326490713587488
2.5405669599217986
2.7419354838709675
2.9159335288367547
3.0391006842619745
3.121212121212121
3.1818181818181817
3.2140762463343107
3.218963831867057
3.201368523949169
3.167155425219941
3.121212121212121
3.0684261974584555
3.0117302052785924
2.9550342130987293
2.8963831867057674
2.742913000977517
2.548387096774193
2.4301075268817205
2.347996089931574
2.281524926686217
2.222873900293255
2.16911045943304
2.117302052785924
2.067448680351906
2.021505376344086
1.9794721407624636
1.9423264907135875
1.9130009775171064
1.8905180840664717
1.8748778103616808
1.8621700879765395
1.8533724340175952
1.8484848484848484
1.8465298142717497
1.8455522971652003
1.844574780058651
1.8416422287390029
1.836754643206256
1.828934506353861
1.818181818181818
1.8064516129032255
1.7927663734115349
1.7761485826001957
1.7565982404692082
1.7350928641251222
1.7126099706744868
1.6911045943304008
1.6695992179863148
1.6490713587487782
1.629521016617791
1.6109481915933528
1.5923753665689149
1.5757575757575757
1.5620723362658846
1.5483870967741935
1.5356793743890518
1.5239491691104594
1.5141739980449658
1.504398826979472
1.4946236559139785
1.4858260019550342
1.478983382209189
1.474095796676442
1.4760508308895406
1.490713587487781
1.5151515151515151
1.5532746823069403
1.616813294232649
1.704789833822092
1.812316715542522
1.932551319648094
2.0576735092864125
2.177908113391984
2.2844574780058653
2.3714565004887587
2.4359726295210167
2.4760508308895406
2.4946236559139785
2.4975562072336266
2.490713587487781
2.4750733137829912
2.453567937438905
2.429130009775171
2.4027370478983383
2.376344086021505
2.3499511241446727
2.3225806451612905
2.2952101661779083
2.264907135874878
2.23069403714565
2.196480938416422
2.161290322580645
2.118279569892473
2.071358748778104
2.022482893450636
1.9726295210166176
1.9237536656891496
1.878787878787879
1.839687194525904
1.8054740957966764
1.7790811339198436
1.7624633431085044
1.7526881720430108
1.7487781036168133
1.7487781036168133
1.7517106549364614
1.7546432062561097
1.758553274682307
1.7624633431085044
1.7653958944281525
1.7663734115347018
1.7634408602150538
1.7565982404692082
1.7438905180840665
1.7243401759530792
1.7018572825024438
1.6764418377321604
1.6412512218963833
1.5972629521016617
1.547409579667644
1.4946236559139785
1.4379276637341154
1.380254154447703
1.324535679374389
1.270772238514174
1.2209188660801564
1.176930596285435
1.1466275659824048
1.1270772238514175
1.1114369501466277
1.1026392961876832
1.1016617790811338
1.1094819159335287
1.1241446725317692
1.1466275659824048
1.1788856304985338
1.224828934506354
1.289345063538612
1.375366568914956
1.4819159335288368
1.590420332355816
1.7038123167155426
1.839687194525904
1.9833822091886608
2.121212121212121
2.243401759530792
2.3421309872922778
2.4115347018572826
2.450635386119257
2.462365591397849
2.450635386119257
2.420332355816227
2.3822091886608017
2.340175953079179
2.291300097751711
2.241446725317693
2.1945259042033234
2.1524926686217007
2.1163245356793743
2.0840664711632453
2.0557184750733137
2.0283479960899315
2.0019550342130987
1.9736070381231672
1.9413489736070384
1.9100684261974583
1.8778103616813293
1.836754643206256
1.790811339198436
1.7438905180840665
1.6979472140762464
1.6549364613880744
1.6158357771260996
1.5835777126099706
1.5591397849462365
1.542521994134897
1.533724340175953
1.5317693059628543
1.5356793743890518
1.542521994134897
1.5513196480938416
1.5610948191593352
1.5698924731182795
1.5757575757575757
1.5786901270772238
1.576735092864125
1.5698924731182795
1.5591397849462365
1.542521994134897
1.521994134897361
1.5024437927663734
1.4838709677419355
1.4594330400782014
1.4330400782013686
1.4066471163245358
1.3812316715542523
1.3577712609970674
1.3372434017595307
1.3196480938416422
1.3049853372434017
1.2932551319648091
1.284457478005865
1.2795698924731185
1.2776148582600195
1.2746823069403714
1.270772238514174
1.267839687194526
1.2688172043010753
1.2776148582600195
1.3010752688172045
1.343108504398827
1.4086021505376345
1.498533724340176
1.6109481915933528
1.7390029325513197
1.8563049853372435
1.964809384164223
2.0791788856304985
2.1847507331378297
2.2737047898338223
2.3411534701857284
2.388074291300098
2.4144672531769307
2.4222873900293256
2.4144672531769307
2.3949169110459434
2.366568914956012
2.335288367546432
2.3010752688172045
2.260997067448681
2.2170087976539588
2.1700879765395893
2.121212121212121
2.070381231671554
2.018572825024438
1.967741935483871
1.9188660801564028
1.871945259042033
1.828934506353861
1.7898338220918866
1.758553274682307
1.7331378299120237
1.70772238514174
1.6852394916911049
1.6656891495601174
1.6490713587487782
1.6344086021505375
1.6217008797653958
1.608993157380254
1.595307917888563
1.5786901270772238
1.5581622678396871
1.5376344086021505
1.517106549364614
1.4916911045943304
1.4652981427174976
1.4379276637341154
1.4115347018572826
1.3890518084066472
1.3695014662756595
1.35386119257087
1.3421309872922775
1.332355816226784
1.324535679374389
1.3186705767350928
1.316715542521994
1.316715542521994
1.3157380254154447
1.313782991202346
1.3128054740957966
1.310850439882698
1.3069403714565004
1.3020527859237536
1.2981427174975562
1.2932551319648091
1.2873900293255132
1.278592375366569
1.2717497556207231
1.2668621700879763
1.262952101661779
1.2649071358748778
1.2805474095796676
1.321603128054741
1.396871945259042
1.5112414467253177
1.6627565982404693
1.8465298142717497
2.0518084066471163
2.2658846529814274
2.4486803519061584
2.603128054740958
2.7546432062561097
2.8826979472140764
2.9765395894428157
3.0361681329423265
3.064516129032258
3.065493646138808
3.0439882697947214
3.005865102639296
2.956011730205278
2.897360703812317
2.832844574780059
2.771260997067449
2.7096774193548385
2.6392961876832843
2.563049853372434
2.4809384164222874
2.3949169110459434
2.3059628543499517
2.2140762463343107
2.1221896383186705
2.034213098729228
1.9501466275659824
1.871945259042033
1.8103616813294232
1.7624633431085044
1.7204301075268815
1.686217008797654
1.6598240469208212
1.6373411534701858
1.616813294232649
1.5933528836754642
1.565982404692082
1.533724340175953
1.498533724340176
1.4623655913978495
1.4252199413489737
1.3958944281524928
1.3734115347018572
1.3509286412512218
1.332355816226784
1.3196480938416422
1.3128054740957966
1.3128054740957966
1.3186705767350928
1.3313782991202343
1.348973607038123
1.3724340175953078
1.401759530791789
1.43108504398827
1.4613880742913
1.495601173020528
1.5288367546432062
1.560117302052786
1.585532746823069
1.6011730205278591
1.6041055718475072
1.595307917888563
1.5757575757575757
1.547409579667644
1.5102639296187683
1.4701857282502444
1.4389051808406648
1.4173998044965788
1.4066471163245358
1.4173998044965788
1.455522971652004
1.5278592375366569
1.6334310850439884
1.7683284457478006
1.9227761485826005
2.0821114369501466
2.232649071358749
2.3626588465298144
2.455522971652004
2.5161290322580645
2.555229716520039
2.56891495601173
2.5620723362658846
2.541544477028348
2.515151515151515
2.4887585532746823
2.4682306940371457
2.4574780058651027
2.4594330400782014
2.474095796676442
2.5004887585532747
2.527859237536657
2.5562072336265884
2.590420332355816
2.622678396871945
2.64613880742913
2.6529814271749754
2.638318670576735
2.601173020527859
2.5425219941348973
2.4672531769305963
2.378299120234604
2.283479960899316
2.20039100684262
2.1280547409579667
2.059628543499511
2.002932551319648
1.9667644183773216
1.951124144672532
1.95405669599218
1.970674486803519
1.9931573802541545
2.013685239491691
2.026392961876833
2.027370478983382
2.0127077223851417
1.988269794721408
1.95405669599218
1.9042033235581624
1.842619745845552
1.775171065493646
1.7067448680351909
1.640273704789834
1.5777126099706744
1.521994134897361
1.4731182795698925
1.4291300097751711
1.3890518084066472
1.359726295210166
1.3372434017595307
1.3128054740957966
1.2903225806451613
1.2717497556207231
1.2609970674486803
1.2590420332355816
1.2658846529814272
1.278592375366569
1.2942326490713587
1.3098729227761483
1.327468230694037
1.3479960899315735
1.3734115347018572
1.4086021505376345
1.4652981427174976
1.5493646138807429
1.664711632453568
1.8103616813294232
1.981427174975562
2.1700879765395893
2.364613880742913
2.5532746823069403
2.7262952101661777
2.874877810361681
2.979472140762464
3.048875855327468
3.1006842619745845
3.1270772238514173
3.1280547409579667
3.1065493646138806
3.067448680351906
3.016617790811339
2.960899315738025
2.9042033235581624
2.84652981427175
2.788856304985337
2.7311827956989245
1.3098729227761483
1.2727272727272727
1.2404692082111437
1.2130987292277615
1.1896383186705768
1.1749755620723363
1.164222873900293
1.1515151515151516
1.1378299120234605
1.1221896383186705
1.1055718475073313
1.0899315738025417
1.075268817204301
1.0625610948191593
1.050830889540567
1.0410557184750733
1.0332355816226784
1.029325513196481
1.0273704789833822
1.024437927663734
1.0224828934506354
1.0263929618768328
1.040078201368524
1.0713587487781036
1.1270772238514175
1.2121212121212122
1.3255131964809383
1.4652981427174976
1.624633431085044
1.7702834799608993
1.9042033235581624
2.046920821114369
2.1788856304985336
2.2883675464320627
2.3685239491691106
2.419354838709677
2.441837732160313
2.442815249266862
2.4271749755620724
2.401759530791789
2.36950146627566
2.333333333333333
2.2981427174975564
2.2629521016617797
2.225806451612903
2.313782991202346
2.466275659824047
2.5239491691104594
2.5317693059628543
2.5131964809384164
2.4809384164222874
2.4408602150537635
2.3958944281524928
2.3499511241446727
2.3098729227761488
2.272727272727273
2.2355816226783967
2.20039100684262
2.1710654936461387
2.147605083088954
2.1300097751710654
2.118279569892473
2.112414467253177
2.1094819159335287
2.10850439882698
2.10752688172043
2.1065493646138806
2.104594330400782
2.1006842619745845
2.0948191593352883
2.085043988269794
2.072336265884653
2.0576735092864125
2.0410557184750733
2.022482893450636
2.002932551319648
1.9833822091886608
1.964809384164223
1.946236559139785
1.932551319648094
1.921798631476051
1.90811339198436
1.8944281524926687
1.8797653958944285
1.866080156402737
1.8533724340175952
1.842619745845552
1.8328445747800584
1.825024437927664
1.818181818181818
1.8113391984359728
1.8054740957966764
1.8025415444770283
1.801564027370479
1.7996089931573802
1.7986314760508308
1.8025415444770283
1.81524926686217
1.842619745845552
1.8875855327468232
1.95405669599218
2.0410557184750733
2.144672531769306
2.259042033235582
2.360703812316716
2.4516129032258065
2.5454545454545454
2.6295210166177907
2.696969696969697
2.7438905180840663
2.7702834799608995
2.780058651026393
2.776148582600196
2.760508308895406
2.73802541544477
2.7096774193548385
2.678396871945259
2.6480938416422286
2.6177908113391983
2.5835777126099706
2.548387096774193
2.5102639296187683
2.4701857282502444
2.4271749755620724
2.3822091886608017
2.335288367546432
2.2873900293255134
2.239491691104594
2.1925708699902247
2.15347018572825
2.120234604105572
2.088954056695992
2.06158357771261
2.040078201368524
2.024437927663734
2.01564027370479
2.0127077223851417
2.013685239491691
2.016617790811339
2.0205278592375366
2.024437927663734
2.026392961876833
2.027370478983382
2.026392961876833
2.0205278592375366
2.0117302052785924
2.0009775171065494
1.988269794721408
1.9745845552297163
1.9589442815249267
1.943304007820137
1.927663734115347
1.9130009775171064
1.8993157380254155
1.8885630498533723
1.878787878787879
1.868035190615836
1.857282502443793
1.8465298142717497
1.835777126099707
1.826001955034213
1.8162267839687196
1.8074291300097751
1.7996089931573802
1.7927663734115349
1.7878787878787878
1.7839687194525904
1.7820136852394917
1.7820136852394917
1.780058651026393
1.780058651026393
1.7859237536656891
1.8035190615835777
1.836754643206256
1.8885630498533723
1.962854349951124
2.0576735092864125
2.16911045943304
2.290322580645161
2.3978494623655915
2.493646138807429
2.592375366568915
2.6803519061583576
2.750733137829912
2.801564027370479
2.832844574780059
2.84652981427175
2.8475073313782997
2.838709677419355
2.822091886608016
2.801564027370479
2.779081133919844
2.755620723362659
2.732160312805474
2.7067448680351904
2.678396871945259
2.6480938416422286
2.6148582600195502
2.578690127077224
2.539589442815249
2.498533724340176
2.4565004887585533
2.412512218963832
2.367546432062561
2.3284457478005867
2.294232649071359
2.260019550342131
2.2297165200391005
2.204301075268817
2.1847507331378297
2.1710654936461387
2.164222873900293
2.1622678396871944
2.164222873900293
2.1681329423264906
2.1730205278592374
2.176930596285435
2.179863147605083
2.1818181818181817
2.1808406647116323
2.176930596285435
2.16911045943304
2.1593352883675463
2.147605083088954
2.132942326490713
2.1163245356793743
2.099706744868035
2.081133919843597
2.0625610948191597
2.047898338220919
2.035190615835777
2.021505376344086
2.006842619745845
1.9931573802541545
1.981427174975562
1.9716520039100685
1.963831867057673
1.956989247311828
1.951124144672532
1.946236559139785
1.9413489736070384
1.93841642228739
1.9374389051808407
1.935483870967742
1.9345063538611929
1.93841642228739
1.9501466275659824
1.9765395894428155
2.0205278592375366
2.085043988269794
