ppg
2.6080156402737047
2.656891495601173
2.7067448680351904
2.752688172043011
2.791788856304985
2.8211143695014664
2.841642228739003
2.852394916911046
2.854349951124145
2.8475073313782997
2.831867057673509
2.8084066471163247
2.7781036168132944
2.7438905180840663
2.705767350928641
2.664711632453568
2.6207233626588464
2.5777126099706744
2.536656891495601
2.496578690127077
2.4574780058651027
2.420332355816227
2.3851417399804498
2.3499511241446727
2.315738025415445
2.2844574780058653
2.257086999022483
2.2297165200391005
2.204301075268817
2.1788856304985336
2.1524926686217007
2.124144672531769
2.096774193548387
2.071358748778104
2.046920821114369
2.022482893450636
1.9960899315738023
1.9696969696969695
1.9442815249266865
1.916911045943304
1.8866080156402736
1.8543499511241448
1.823069403714565
1.7917888563049853
1.761485826001955
1.732160312805474
1.7028347996089932
1.675464320625611
1.6480938416422288
1.6226783968719452
1.603128054740958
1.5835777126099706
1.5591397849462365
1.5327468230694037
1.5083088954056696
1.4868035190615836
1.466275659824047
1.4457478005865103
1.4242424242424243
1.4037145650048877
1.383186705767351
1.3626588465298142
1.348973607038123
1.3391984359726294
1.3264907135874875
1.310850439882698
1.2961876832844574
1.2805474095796676
1.2658846529814272
1.252199413489736
1.2394916911045943
1.2287390029325511
1.217008797653959
1.2052785923753666
1.1964809384164223
1.1896383186705768
1.181818181818182
1.1720430107526882
1.1593352883675463
1.1456500488758554
1.1319648093841643
1.118279569892473
1.1065493646138806
1.0977517106549364
1.093841642228739
1.0977517106549364
1.1143695014662756
1.141739980449658
1.1779081133919844
1.227761485826002
1.3020527859237536
1.396871945259042
1.500488758553275
1.6129032258064515
1.732160312805474
1.8543499511241448
1.9775171065493649
2.0987292277614857
2.2140762463343107
2.310850439882698
2.3949169110459434
2.484848484848485
2.5747800586510263
2.6608015640273703
2.740957966764418
2.81622678396872
2.884652981427175
2.9442815249266863
2.9960899315738025
3.040078201368524
3.074291300097752
3.096774193548387
3.104594330400782
3.101661779081134
3.0928641251221896
3.0762463343108504
3.0527859237536656
3.0205278592375366
2.9824046920821115
2.943304007820137
2.900293255131965
2.854349951124145
2.8084066471163247
2.7624633431085046
2.718475073313783
2.677419354838709
2.636363636363636
2.595307917888563
2.5562072336265884
2.52297165200391
2.493646138807429
2.464320625610948
2.434017595307918
2.404692082111437
2.3743890518084068
2.343108504398827
2.3118279569892475
2.283479960899316
2.2561094819159337
2.2277614858260018
2.19941348973607
2.1710654936461387
2.1407624633431084
2.1094819159335287
2.075268817204301
2.042033235581622
2.0097751710654936
1.978494623655914
1.9472140762463344
1.919843597262952
1.8944281524926687
1.866080156402737
1.8387096774193548
1.8103616813294232
1.7820136852394917
1.7526881720430108
1.7233626588465298
1.6959921798631477
1.667644183773216
1.6373411534701858
1.607038123167155
1.576735092864125
1.552297165200391
1.5327468230694037
1.509286412512219
1.4838709677419355
1.4545454545454546
1.423264907135875
1.392961876832845
1.3665689149560116
1.343108504398827
1.3206256109481915
1.2971652003910068
1.2717497556207231
1.2531769305962854
1.2365591397849462
1.2179863147605083
1.2003910068426198
1.1837732160312806
1.1681329423264908
1.1534701857282503
1.142717497556207
1.1319648093841643
1.121212121212121
1.1114369501466277
1.1006842619745845
1.0918866080156402
1.0869990224828934
1.0879765395894427
1.0909090909090908
1.1006842619745845
1.1221896383186705
1.1573802541544478
1.2082111436950147
1.2766373411534702
1.359726295210166
1.456500488758553
1.565982404692082
1.6813294232649072
1.7849462365591398
1.8836754643206255
1.9931573802541545
2.10752688172043
2.220918866080156
2.3304007820136854
2.434017595307918
2.530791788856305
2.6236559139784945
2.710654936461388
2.791788856304985
2.865102639296188
2.9315738025415445
2.9804496578690127
3.0175953079178885
3.0557184750733137
3.086021505376344
3.1065493646138806
3.117302052785924
3.117302052785924
3.1065493646138806
3.086021505376344
3.056695992179863
3.0195503421309877
2.9765395894428157
2.932551319648094
2.887585532746823
2.8406647116324537
2.793743890518084
2.745845552297165
2.6989247311827955
2.652003910068426
2.6050830889540566
2.560117302052786
2.5161290322580645
2.474095796676442
2.4349951124144678
2.3978494623655915
2.364613880742913
2.335288367546432
2.3059628543499517
2.275659824046921
2.244379276637341
2.2140762463343107
2.1847507331378297
2.1544477028347995
2.1221896383186705
2.089931573802541
2.0557184750733137
2.021505376344086
1.9931573802541545
1.9667644183773216
1.93841642228739
1.9090909090909087
1.8778103616813293
1.8465298142717497
1.8162267839687196
1.7849462365591398
1.75366568914956
1.721407624633431
1.6901270772238517
1.6588465298142718
1.6285434995112416
1.6011730205278591
1.5757575757575757
1.5493646138807429
1.52297165200391
1.4975562072336266
1.4711632453567938
1.4457478005865103
1.4203323558162269
1.3958944281524928
1.3734115347018572
1.348973607038123
1.3235581622678396
1.3049853372434017
1.2873900293255132
1.2658846529814272
1.2424242424242424
1.2209188660801564
1.2023460410557183
1.1867057673509287
1.1730205278592376
1.1612903225806452
1.1495601173020529
1.1358748778103618
1.121212121212121
1.110459433040078
1.1026392961876832
1.0918866080156402
1.078201368523949
1.064516129032258
1.053763440860215
1.0478983382209188
1.04594330400782
1.0518084066471165
1.0703812316715542
1.104594330400782
1.1564027370478984
1.2267839687194526
1.300097751710655
1.3792766373411536
1.478005865102639
1.5894428152492668
1.7067448680351909
1.825024437927664
1.943304007820137
2.060606060606061
2.172043010752688
2.2766373411534704
2.375366568914956
2.4672531769305963
2.541544477028348
2.603128054740958
2.6666666666666665
2.7282502443792764
2.7839687194525906
2.833822091886608
2.87683284457478
2.911045943304008
2.9345063538611926
2.946236559139785
2.9472140762463344
2.9374389051808407
2.917888563049853
2.8914956011730206
2.859237536656892
2.8211143695014664
2.779081133919844
2.7331378299120237
2.687194525904203
2.641251221896383
2.595307917888563
2.550342130987292
2.506353861192571
2.4672531769305963
2.429130009775171
2.3949169110459434
2.363636363636364
2.332355816226784
2.3010752688172045
2.270772238514174
2.241446725317693
2.212121212121212
2.1837732160312804
2.156402737047898
2.1300097751710654
2.081133919843597
2.0195503421309877
1.9726295210166176
1.93841642228739
1.9100684261974583
1.8807429130009776
1.8514173998044965
1.822091886608016
1.7927663734115349
1.7624633431085044
1.7302052785923754
1.696969696969697
1.6637341153470186
1.635386119257087
1.6099706744868034
1.5894428152492668
1.5718475073313782
1.5493646138807429
1.5239491691104594
1.4975562072336266
1.4721407624633431
1.4467253176930597
1.4213098729227762
1.396871945259042
1.3724340175953078
1.3479960899315735
1.324535679374389
1.303030303030303
1.2873900293255132
1.2746823069403714
1.2580645161290325
1.2404692082111437
1.2209188660801564
1.2003910068426198
1.1798631476050832
1.1622678396871946
1.1466275659824048
1.130987292277615
1.1163245356793745
1.1006842619745845
1.0909090909090908
1.083088954056696
1.072336265884653
1.0596285434995112
1.04594330400782
1.0312805474095796
1.018572825024438
1.0068426197458455
0.997067448680352
0.9912023460410556
0.989247311827957
0.9931573802541545
1.0039100684261977
1.021505376344086
1.0498533724340176
1.0899315738025417
1.144672531769306
1.2150537634408602
1.300097751710655
1.3978494623655917
1.504398826979472
1.616813294232649
1.732160312805474
1.847507331378299
1.9608993157380252
2.056695992179863
2.1407624633431084
2.2297165200391005
2.3196480938416424
2.406647116324536
2.487781036168133
2.563049853372434
2.63049853372434
2.6901270772238512
2.7419354838709675
2.7839687194525906
2.81622678396872
2.8377321603128056
2.84652981427175
2.844574780058651
2.8377321603128056
2.8260019550342133
2.807429130009776
2.7810361681329425
2.747800586510264
2.710654936461388
2.6695992179863146
2.625610948191593
2.581622678396872
2.5376344086021505
2.495601173020528
2.4574780058651027
2.419354838709677
2.383186705767351
2.347996089931574
2.312805474095797
2.278592375366569
2.2453567937438903
2.2140762463343107
2.1837732160312804
2.1544477028347995
2.126099706744868
2.0987292277614857
2.075268817204301
2.053763440860215
2.0303030303030303
2.003910068426197
1.9736070381231672
1.9423264907135875
1.9130009775171064
1.884652981427175
1.8563049853372435
1.8269794721407624
1.7986314760508308
1.7702834799608993
1.7438905180840665
1.718475073313783
1.6881720430107527
1.656891495601173
1.6265884652981428
1.598240469208211
1.5728250244379276
1.5483870967741935
1.5239491691104594
1.499511241446725
1.4750733137829912
1.4506353861192571
1.426197458455523
1.4066471163245358
1.3890518084066472
1.3685239491691104
1.346041055718475
1.3235581622678396
1.3020527859237536
1.2805474095796676
1.2590420332355816
1.2375366568914956
1.217008797653959
1.1974584555229717
1.1788856304985338
1.1671554252199414
1.1564027370478984
1.1407624633431086
1.126099706744868
1.1114369501466277
1.0957966764418376
1.0811339198435972
1.067448680351906
1.0547409579667644
1.0410557184750733
1.0263929618768328
1.013685239491691
1.0019550342130987
0.9960899315738024
0.9931573802541545
0.9863147605083088
0.9804496578690128
0.9804496578690128
0.9872922776148584
1.0058651026392962
1.040078201368524
1.0899315738025417
1.1573802541544478
1.2404692082111437
1.3362658846529814
1.4281524926686218
1.521016617790811
1.6275659824046922
1.739980449657869
1.8543499511241448
1.9667644183773216
2.074291300097752
2.175953079178885
2.272727272727273
2.3655913978494625
2.452590420332356
2.5317693059628543
2.593352883675464
2.644183773216031
2.696969696969697
2.7468230694037143
2.789833822091887
2.8240469208211145
2.849462365591398
2.866080156402737
2.8729227761485827
2.8699902248289346
2.859237536656892
2.841642228739003
2.81622678396872
2.7869012707722387
2.7536656891495603
2.718475073313783
2.681329423264907
2.6402737047898337
2.5972629521016617
2.555229716520039
2.5141739980449658
2.474095796676442
2.4349951124144678
2.398826979472141
2.363636363636364
2.3304007820136854
2.302052785923754
2.272727272727273
2.244379276637341
2.218963831867057
2.1945259042033234
2.16911045943304
2.1407624633431084
2.113391984359726
2.0869990224828934
2.060606060606061
2.03128054740958
1.9990224828934504
1.970674486803519
1.946236559139785
1.9188660801564028
1.8905180840664717
1.86119257086999
1.8318670576735088
1.8035190615835777
1.7771260997067448
1.7517106549364614
1.7272727272727273
1.7018572825024438
1.6735092864125125
1.6480938416422288
1.624633431085044
1.6011730205278591
1.576735092864125
1.5493646138807429
1.5239491691104594
1.499511241446725
1.47702834799609
1.455522971652004
1.4330400782013686
1.409579667644184
1.3861192570869991
1.3616813294232648
1.3421309872922775
1.3264907135874875
1.3088954056695992
1.2903225806451613
1.270772238514174
1.2541544477028348
1.2404692082111437
1.2287390029325511
1.217008797653959
1.203323558162268
1.187683284457478
1.1730205278592376
1.164222873900293
1.1573802541544478
1.1485826001955035
1.141739980449658
1.141739980449658
1.1436950146627567
1.1397849462365592
1.130987292277615
1.1202346041055715
1.110459433040078
1.1055718475073313
1.110459433040078
1.1280547409579669
1.1564027370478984
1.1974584555229717
1.2580645161290325
1.3362658846529814
1.43108504398827
1.5386119257087
1.6549364613880744
1.7761485826001957
1.9012707722385145
2.024437927663734
2.144672531769306
2.260997067448681
2.356793743890518
2.441837732160313
2.5347018572825024
2.627565982404692
2.7145650048875853
2.795698924731183
2.8699902248289346
2.935483870967742
2.992179863147605
3.038123167155425
3.0733137829912023
3.0957966764418376
3.1065493646138806
3.1055718475073317
3.0977517106549364
3.085043988269794
3.064516129032258
3.034213098729228
2.9960899315738025
2.952101661779081
2.903225806451613
2.8514173998044967
2.798631476050831
2.745845552297165
2.697947214076246
2.6559139784946235
2.616813294232649
2.576735092864125
2.535679374389052
2.4975562072336266
2.4613880742913
2.4252199413489737
2.389051808406647
2.35386119257087
2.320625610948192
2.2883675464320627
2.257086999022483
2.2248289345063537
2.1945259042033234
2.166177908113392
2.134897360703812
2.101661779081134
2.0664711632453567
2.029325513196481
1.9902248289345064
1.951124144672532
1.913978494623656
1.8778103616813293
1.842619745845552
1.8093841642228736
1.7810361681329423
1.7546432062561097
1.7223851417399805
1.6901270772238517
1.6588465298142718
1.629521016617791
1.6021505376344083
1.5728250244379276
1.544477028347996
1.517106549364614
1.490713587487781
1.4643206256109482
1.4379276637341154
1.4173998044965788
1.3988269794721409
1.3782991202346042
1.3577712609970674
1.3372434017595307
1.3147605083088951
1.29227761485826
1.2697947214076246
1.2453567937438903
1.2228739002932552
1.203323558162268
1.1857282502443791
1.1749755620723363
1.1671554252199414
1.155425219941349
1.141739980449658
1.1270772238514175
1.1114369501466277
1.0957966764418376
1.0811339198435972
1.0654936461388074
1.050830889540567
1.0391006842619743
1.0273704789833822
1.0166177908113392
1.0117302052785924
1.0097751710654936
1.0087976539589445
1.0146627565982405
1.0312805474095796
1.0596285434995112
1.1055718475073313
1.1681329423264908
1.2473118279569892
1.3411534701857282
1.447702834799609
1.563049853372434
1.6686217008797657
1.76930596285435
1.8797653958944285
1.9931573802541545
2.1065493646138806
2.2170087976539588
2.3196480938416424
2.4144672531769307
2.5024437927663734
2.582600195503421
2.6559139784946235
2.7223851417399803
2.7810361681329425
2.823069403714565
2.854349951124145
2.8856304985337244
2.911045943304008
2.929618768328446
2.9374389051808407
2.9345063538611926
2.921798631476051
2.898338220918866
2.8670576735092865
2.8299120234604107
2.787878787878788
2.745845552297165
2.702834799608993
2.6559139784946235
2.6080156402737047
2.5591397849462365
2.512218963831867
2.4701857282502444
2.4281524926686218
2.388074291300098
2.347996089931574
2.3098729227761488
2.275659824046921
2.2453567937438903
2.217986314760508
2.189638318670577
2.1622678396871944
2.1358748778103616
2.1094819159335287
2.081133919843597
2.0498533724340176
2.018572825024438
1.9872922776148585
1.956989247311828
1.9257086999022484
1.8944281524926687
1.8670576735092863
1.8406647116324533
1.8093841642228736
1.7761485826001957
1.7409579667644184
1.7086999022482894
1.6793743890518085
1.6500488758553276
1.6226783968719452
1.5962854349951123
1.5679374389051808
1.5395894428152492
1.517106549364614
1.498533724340176
1.4760508308895406
1.4516129032258065
1.4281524926686218
1.4056695992179864
1.3841642228739004
1.3626588465298142
1.3411534701857282
1.316715542521994
1.29227761485826
1.267839687194526
1.2453567937438903
1.2287390029325511
1.2150537634408602
1.1994134897360704
1.1837732160312806
1.1671554252199414
1.1485826001955035
1.1300097751710656
1.1133919843597262
1.096774193548387
1.0811339198435972
1.0654936461388074
1.050830889540567
1.043010752688172
1.0371456500488758
1.029325513196481
1.0205278592375366
1.010752688172043
1.0009775171065494
0.9902248289345064
0.9833822091886608
0.9872922776148584
1.0019550342130987
1.029325513196481
1.0742913000977516
1.1368523949169111
1.206256109481916
1.284457478005865
1.3822091886608017
1.4916911045943304
1.6080156402737047
1.7282502443792769
1.847507331378299
1.962854349951124
2.0733137829912023
2.1788856304985336
2.2795698924731185
2.3743890518084068
2.449657869012708
2.5131964809384164
2.5806451612903225
2.64613880742913
2.70772238514174
2.760508308895406
2.803519061583578
2.8377321603128056
2.863147605083089
2.87683284457478
2.8797653958944283
2.8729227761485827
2.8582600195503423
2.8367546432062563
2.809384164222874
2.776148582600196
2.73802541544477
2.696969696969697
2.6529814271749754
2.606060606060606
2.558162267839687
2.512218963831867
2.4711632453567938
2.41544477028348
2.3528836754643208
2.3069403714565007
2.270772238514174
2.2385141739980448
2.207233626588465
2.177908113391984
2.1485826001955037
2.120234604105572
2.093841642228739
2.0664711632453567
2.038123167155425
2.010752688172043
1.9843597262952104
1.9579667644183771
1.9335288367546437
1.9100684261974583
1.884652981427175
1.857282502443793
1.8299120234604105
1.804496578690127
1.7790811339198436
1.7517106549364614
1.7233626588465298
1.6950146627565983
1.667644183773216
1.6412512218963833
1.6207233626588464
1.6021505376344083
1.5786901270772238
1.552297165200391
1.525904203323558
1.499511241446725
1.4731182795698925
1.447702834799609
1.423264907135875
1.3988269794721409
1.375366568914956
1.3548387096774193
1.3343108504398826
1.3196480938416422
1.3069403714565004
1.2913000977517106
1.273704789833822
1.2551319648093842
1.2365591397849462
1.2189638318670577
1.2023460410557183
1.1867057673509287
1.1720430107526882
1.1573802541544478
1.142717497556207
1.1329423264907137
1.126099706744868
1.115347018572825
1.1026392961876832
1.088954056695992
1.075268817204301
1.0625610948191593
1.050830889540567
1.043010752688172
1.040078201368524
1.043010752688172
1.0527859237536656
1.072336265884653
1.1016617790811338
1.141739980449658
1.1964809384164223
1.2649071358748778
1.3470185728250244
1.4437927663734116
1.5493646138807429
1.6578690127077225
1.7702834799608993
1.8826979472140764
1.992179863147605
2.096774193548387
2.182795698924731
2.2580645161290325
2.3391984359726297
2.419354838709677
2.4946236559139785
2.5620723362658846
2.622678396871945
2.674486803519061
2.718475073313783
2.7565982404692084
2.787878787878788
2.8103616813294234
2.8240469208211145
2.8260019550342133
2.817204301075269
2.801564027370479
2.780058651026393
2.750733137829912
2.716520039100684
2.679374389051808
2.6392961876832843
2.5972629521016617
2.5542521994134897
2.5102639296187683
2.4652981427174976
2.4242424242424243
2.3870967741935485
2.350928641251222
2.315738025415445
2.2825024437927666
2.251221896383187
2.220918866080156
2.1915933528836757
2.1622678396871944
2.134897360703812
2.10850439882698
2.083088954056696
2.060606060606061
2.0391006842619745
2.013685239491691
1.986314760508309
1.959921798631476
1.9335288367546437
1.905180840664712
1.87683284457478
1.8484848484848484
1.8201368523949168
1.7898338220918866
1.7595307917888563
1.7302052785923754
1.7038123167155426
1.6813294232649072
1.6578690127077225
1.6334310850439884
1.608993157380254
1.58455522971652
1.5581622678396871
1.5317693059628543
1.5073313782991202
1.4858260019550342
1.4643206256109482
1.4408602150537635
1.4222873900293256
1.4056695992179864
1.3851417399804498
1.3655913978494625
1.3479960899315735
1.3333333333333333
1.3196480938416422
1.305962854349951
1.2903225806451613
1.273704789833822
1.2561094819159335
1.2404692082111437
1.2258064516129032
1.2150537634408602
1.2082111436950147
1.2013685239491692
1.1925708699902249
1.18475073313783
1.1779081133919844
1.1710654936461389
1.163245356793744
1.152492668621701
1.142717497556207
1.1358748778103618
1.130987292277615
1.1319648093841643
1.1407624633431086
1.1573802541544478
1.1837732160312806
1.2238514173998043
1.278592375366569
1.348973607038123
1.434017595307918
1.5288367546432062
1.6314760508308896
1.739980449657869
1.8514173998044965
1.9608993157380252
2.053763440860215
2.1378299120234603
2.228739002932551
2.318670576735093
2.406647116324536
2.4916911045943304
2.5718475073313782
2.64613880742913
2.7116324535679373
2.768328445747801
2.81622678396872
2.854349951124145
2.878787878787879
2.89247311827957
2.902248289345064
2.9071358748778104
2.905180840664712
2.8944281524926687
2.87683284457478
2.8533724340175954
2.8240469208211145
2.788856304985337
2.7497556207233624
2.70772238514174
2.6637341153470184
2.621700879765396
2.579667644183773
2.5376344086021505
2.496578690127077
2.4574780058651027
2.420332355816227
2.389051808406647
2.360703812316716
2.332355816226784
2.3010752688172045
2.269794721407625
2.2404692082111435
2.212121212121212
2.1847507331378297
2.156402737047898
2.129032258064516
2.103616813294233
2.078201368523949
2.0518084066471163
2.0234604105571847
1.9951124144672527
1.964809384164223
1.935483870967742
1.906158357771261
1.8778103616813293
1.8514173998044965
1.826001955034213
1.7996089931573802
1.7702834799608993
1.7409579667644184
1.7116324535679377
1.683284457478006
1.656891495601173
1.6314760508308896
1.607038123167155
1.581622678396872
1.5562072336265884
1.5366568914956011
1.5180840664711632
1.4965786901270772
1.474095796676442
1.4506353861192571
1.4271749755620724
1.401759530791789
1.3743890518084063
1.348973607038123
1.324535679374389
1.300097751710655
1.2766373411534702
1.2531769305962854
1.2355816226783969
1.2228739002932552
1.2072336265884651
1.1896383186705768
1.1671554252199414
1.141739980449658
1.1221896383186705
1.10752688172043
1.0948191593352885
1.0840664711632453
1.075268817204301
1.067448680351906
1.064516129032258
1.0664711632453567
1.0733137829912025
1.0879765395894427
1.115347018572825
1.160312805474096
1.2228739002932552
1.3010752688172045
1.393939393939394
1.498533724340176
1.6109481915933528
1.7282502443792769
1.847507331378299
1.951124144672532
2.0449657869012707
2.146627565982405
2.249266862170088
2.347996089931574
2.443792766373412
2.535679374389052
2.622678396871945
2.702834799608993
2.7751710654936463
2.8396871945259043
2.8944281524926687
2.932551319648094
2.9579667644183774
2.9804496578690127
2.997067448680352
3.006842619745845
3.0087976539589443
3.0019550342130987
2.986314760508309
2.961876832844575
2.930596285434995
2.8914956011730206
2.8455522971652005
2.795698924731183
2.7468230694037143
2.6989247311827955
2.650048875855328
2.601173020527859
2.552297165200391
2.505376344086021
2.464320625610948
2.426197458455523
2.389051808406647
2.3519061583577714
2.3167155425219943
2.281524926686217
2.2482893450635384
2.218963831867057
2.188660801564027
2.157380254154448
2.126099706744868
2.0948191593352883
2.06158357771261
2.026392961876833
1.992179863147605
1.959921798631476
1.9286412512218964
1.895405669599218
1.8621700879765395
1.8347996089931573
1.8113391984359728
1.7839687194525904
1.7526881720430108
1.718475073313783
1.6852394916911049
1.6529814271749756
1.6217008797653958
1.590420332355816
1.5591397849462365
1.5298142717497556
1.5024437927663734
1.4809384164222874
1.4623655913978495
1.439882697947214
1.4164222873900294
1.3919843597262953
1.367546432062561
1.3450635386119256
1.3235581622678396
1.303030303030303
1.2825024437927663
1.2619745845552297
1.241446725317693
1.224828934506354
1.2101661779081134
1.1935483870967742
1.1749755620723363
1.155425219941349
1.1378299120234605
1.121212121212121
1.1055718475073313
1.0899315738025417
1.0742913000977516
1.0586510263929618
1.0449657869012707
1.032258064516129
1.0254154447702837
1.0205278592375366
1.013685239491691
1.0097751710654936
1.0087976539589445
1.013685239491691
1.0273704789833822
1.0547409579667644
1.0987292277614855
1.1612903225806452
1.2394916911045943
1.332355816226784
1.4222873900293256
1.5112414467253177
1.6138807429130009
1.7223851417399805
1.833822091886608
1.946236559139785
2.0547409579667644
2.1593352883675463
2.259042033235582
2.3528836754643208
2.4389051808406648
2.5180840664711632
2.589442815249267
2.6451612903225805
2.6881720430107525
2.730205278592375
