ppg
1.217008797653959
1.181818181818182
1.141739980449658
1.1055718475073313
1.072336265884653
1.035190615835777
1.002932551319648
0.9863147605083088
0.9951124144672532
1.0381231671554252
1.121212121212121
1.2473118279569892
1.4105571847507332
1.6021505376344083
1.8093841642228736
2.018572825024438
2.193548387096774
2.3411534701857284
2.486803519061584
2.611925708699902
2.7096774193548385
2.7781036168132944
2.817204301075269
2.8289345063538613
2.817204301075269
2.7869012707722387
2.7419354838709675
2.684261974584555
2.625610948191593
2.5640273704789838
2.493646138807429
2.41544477028348
2.332355816226784
2.243401759530792
2.1485826001955037
2.050830889540567
1.9521016617790807
1.855327468230694
1.7624633431085044
1.6764418377321604
1.5992179863147604
1.5405669599217986
1.4965786901270772
1.456500488758553
1.426197458455523
1.4076246334310851
1.3978494623655917
1.3958944281524928
1.3978494623655917
1.401759530791789
1.4056695992179864
1.4076246334310851
1.4056695992179864
1.4027370478983383
1.396871945259042
1.3851417399804498
1.3665689149560116
1.343108504398827
1.313782991202346
1.2795698924731185
1.241446725317693
1.1994134897360704
1.1583577712609971
1.1231671554252198
1.1006842619745845
1.1006842619745845
1.1231671554252198
1.1730205278592376
1.262952101661779
1.393939393939394
1.560117302052786
1.7526881720430108
1.9589442815249267
2.166177908113392
2.363636363636364
2.541544477028348
2.69208211143695
2.8132942326490715
2.89345063538612
2.9423264907135875
2.973607038123167
2.9853372434017595
2.9775171065493646
2.9530791788856305
2.913000977517106
2.8611925708699903
2.7996089931573804
2.730205278592375
2.654936461388074
2.573802541544477
2.4858260019550342
2.403714565004888
2.3225806451612905
2.2297165200391005
2.1309872922776147
2.03128054740958
1.935483870967742
1.8455522971652003
1.7624633431085044
1.689149560117302
1.6275659824046922
1.5757575757575757
1.5347018572825024
1.5073313782991202
1.4897360703812317
1.47702834799609
1.4682306940371457
1.4613880742913
1.4545454545454546
1.4457478005865103
1.4330400782013686
1.4173998044965788
1.3978494623655917
1.3763440860215057
1.3519061583577712
1.324535679374389
1.2991202346041055
1.273704789833822
1.2404692082111437
1.2013685239491692
1.160312805474096
1.121212121212121
1.0928641251221896
1.0840664711632453
1.10752688172043
1.1681329423264908
1.2717497556207231
1.4164222873900294
1.5669599217986314
1.7272727272727273
1.921798631476051
2.1309872922776147
2.3362658846529816
2.525904203323558
2.6911045943304006
2.8260019550342133
2.929618768328446
3.003910068426197
3.0498533724340176
3.069403714565005
3.0664711632453567
3.04594330400782
3.0117302052785924
2.964809384164223
2.909090909090909
2.844574780058651
2.771260997067449
2.69208211143695
2.6070381231671558
2.515151515151515
2.418377321603128
2.315738025415445
2.209188660801564
2.114369501466276
2.026392961876833
1.932551319648094
1.839687194525904
1.7526881720430108
1.6735092864125125
1.6041055718475072
1.5464320625610948
1.499511241446725
1.4633431085043989
1.436950146627566
1.4173998044965788
1.4037145650048877
1.3958944281524928
1.3890518084066472
1.380254154447703
1.367546432062561
1.3509286412512218
1.3313782991202343
1.3079178885630498
1.2795698924731185
1.2482893450635386
1.2121212121212122
1.1720430107526882
1.1280547409579669
1.0909090909090908
1.0596285434995112
1.0283479960899315
1.0097751710654936
1.0175953079178883
1.06158357771261
1.147605083088954
1.2766373411534702
1.4457478005865103
1.6441837732160314
1.8592375366568916
2.0772238514174
2.2844574780058653
2.450635386119257
2.58455522971652
2.70772238514174
2.807429130009776
2.878787878787879
2.9227761485826003
2.9393939393939394
2.9315738025415445
2.9042033235581624
2.841642228739003
2.758553274682307
2.6823069403714563
2.6129032258064515
2.5454545454545454
2.4701857282502444
2.389051808406647
2.302052785923754
2.209188660801564
2.1114369501466275
2.0127077223851417
1.913978494623656
1.8191593352883677
1.729227761485826
1.64613880742913
1.5806451612903225
1.5288367546432062
1.4819159335288368
1.444770283479961
1.418377321603128
1.401759530791789
1.393939393939394
1.3919843597262953
1.3949169110459434
1.3978494623655917
1.3998044965786902
1.3998044965786902
1.3958944281524928
1.3919843597262953
1.3851417399804498
1.370478983382209
1.3499511241446724
1.324535679374389
1.2932551319648091
1.2561094819159335
1.2150537634408602
1.1720430107526882
1.133919843597263
1.1094819159335287
1.1055718475073313
1.1231671554252198
1.1681329423264908
1.2512218963831867
1.3734115347018572
1.530791788856305
1.715542521994135
1.9149560117302051
2.1163245356793743
2.3069403714565007
2.4780058651026398
2.621700879765396
2.736070381231672
2.819159335288368
2.8670576735092865
2.8885630498533725
2.8944281524926687
2.884652981427175
2.8582600195503423
2.81622678396872
2.763440860215054
2.7008797653958942
2.6295210166177907
2.550342130987292
2.4672531769305963
2.380254154447703
2.2991202346041058
2.2218963831867056
2.133919843597263
2.040078201368524
1.945259042033236
1.8533724340175952
1.7673509286412512
1.689149560117302
1.6217008797653958
1.5650048875855327
1.5180840664711632
1.4819159335288368
1.455522971652004
1.4389051808406648
1.4291300097751711
1.4222873900293256
1.4164222873900294
1.409579667644184
1.401759530791789
1.3919843597262953
1.3782991202346042
1.3616813294232648
1.3411534701857282
1.3176930596285434
1.2903225806451613
1.2658846529814272
1.241446725317693
1.2082111436950147
1.1691104594330402
1.1280547409579669
1.0918866080156402
1.0694037145650048
1.0694037145650048
1.1006842619745845
1.1710654936461389
1.2825024437927663
1.4330400782013686
1.6129032258064515
1.7849462365591398
1.9521016617790807
2.139784946236559
2.3274682306940373
2.5004887585532747
2.650048875855328
2.771260997067449
2.86217008797654
2.9237536656891496
2.9589442815249267
2.9716520039100685
2.964809384164223
2.9423264907135875
2.9071358748778104
2.8611925708699903
2.806451612903226
2.7419354838709675
2.6715542521994133
2.5943304007820136
2.5112414467253177
2.421309872922776
2.3274682306940373
2.2297165200391005
2.129032258064516
2.0283479960899315
1.9413489736070384
1.8641251221896384
1.782991202346041
1.704789833822092
1.6344086021505375
1.573802541544477
1.5239491691104594
1.4838709677419355
1.452590420332356
1.4301075268817205
1.414467253176931
1.4027370478983383
1.3958944281524928
1.3900293255131966
1.3812316715542523
1.370478983382209
1.356793743890518
1.3401759530791788
1.3196480938416422
1.2942326490713587
1.2639296187683284
1.227761485826002
1.18475073313783
1.1368523949169111
1.088954056695992
1.0518084066471165
1.029325513196481
1.0205278592375366
1.0381231671554252
1.0918866080156402
1.1857282502443791
1.3196480938416422
1.487781036168133
1.6803519061583578
1.8836754643206255
2.085043988269794
2.2737047898338223
2.4222873900293256
2.5386119257087
2.644183773216031
2.7262952101661777
2.782991202346041
2.8132942326490715
2.819159335288368
2.803519061583578
2.76930596285435
2.721407624633431
2.662756598240469
2.5972629521016617
2.5239491691104594
2.452590420332356
2.3812316715542523
2.300097751710655
2.2111436950146626
2.1163245356793743
2.016617790811339
1.9159335288367547
1.8162267839687196
1.7194525904203324
1.6285434995112416
1.5464320625610948
1.4760508308895406
1.4242424242424243
1.3851417399804498
1.3519061583577712
1.3264907135874875
1.3098729227761483
1.3020527859237536
1.300097751710655
1.300097751710655
1.300097751710655
1.2971652003910068
1.2903225806451613
1.2795698924731185
1.2649071358748778
1.2512218963831867
1.2375366568914956
1.217008797653959
1.1906158357771262
1.1593352883675463
1.1221896383186705
1.0821114369501466
1.043010752688172
1.0097751710654936
0.9912023460410556
1.0
1.043010752688172
1.1085043988269794
1.203323558162268
1.343108504398827
1.517106549364614
1.715542521994135
1.9237536656891496
2.1280547409579667
2.315738025415445
2.4789833822091887
2.6099706744868034
2.708699902248289
2.7751710654936463
2.8132942326490715
2.8240469208211145
2.8132942326490715
2.7869012707722387
2.7468230694037143
2.6959921798631474
2.635386119257087
2.567937438905181
2.495601173020528
2.418377321603128
2.3362658846529816
2.2502443792766376
2.161290322580645
2.0791788856304985
2.0019550342130987
1.916911045943304
1.8318670576735088
1.750733137829912
1.6764418377321604
1.6109481915933528
1.5562072336265884
1.5131964809384164
1.479960899315738
1.456500488758553
1.4408602150537635
1.4320625610948192
1.4291300097751711
1.426197458455523
1.423264907135875
1.4242424242424243
1.4271749755620724
1.4222873900293256
1.4105571847507332
1.393939393939394
1.3724340175953078
1.346041055718475
1.3157380254154447
1.281524926686217
1.2502443792766371
1.2189638318670577
1.181818181818182
1.1466275659824048
1.1231671554252198
1.1202346041055715
1.1466275659824048
1.209188660801564
1.3128054740957966
1.455522971652004
1.6285434995112416
1.822091886608016
1.9980449657869013
2.161290322580645
2.3362658846529816
2.5024437927663734
2.6480938416422286
2.7673509286412514
2.859237536656892
2.9227761485826003
2.959921798631476
2.973607038123167
2.967741935483871
2.945259042033236
2.9100684261974585
2.868035190615836
2.820136852394917
2.7624633431085046
2.696969696969697
2.625610948191593
2.548387096774193
2.463343108504399
2.3714565004887587
2.2737047898338223
2.1739980449657867
2.074291300097752
1.9765395894428155
1.8934506353861196
1.8211143695014664
1.7487781036168133
1.6813294232649072
1.6226783968719452
1.573802541544477
1.5356793743890518
1.5073313782991202
1.4848484848484849
1.4682306940371457
1.455522971652004
1.4457478005865103
1.435972629521017
1.4291300097751711
1.4213098729227762
1.4086021505376345
1.391006842619746
1.3695014662756595
1.3440860215053765
1.3147605083088951
1.2805474095796676
1.2424242424242424
1.2003910068426198
1.1593352883675463
1.126099706744868
1.1094819159335287
1.1124144672531768
1.1397849462365592
1.2013685239491692
1.3010752688172045
1.4389051808406648
1.6080156402737047
1.7986314760508308
1.9990224828934504
2.1955034213098727
2.3792766373411536
2.5425219941348973
2.678396871945259
2.774193548387097
2.8396871945259043
2.8905180840664717
2.9227761485826003
2.935483870967742
2.9286412512218964
2.905180840664712
2.8670576735092865
2.817204301075269
2.755620723362659
2.686217008797654
2.608993157380254
2.535679374389052
2.4613880742913
2.375366568914956
2.2825024437927666
2.1847507331378297
2.085043988269794
1.9853372434017595
1.8885630498533723
1.7976539589442817
1.7135874877810362
1.6383186705767352
1.5728250244379276
1.520039100684262
1.482893450635386
1.457478005865103
1.435972629521017
1.4203323558162269
1.409579667644184
1.4007820136852396
1.392961876832845
1.3851417399804498
1.375366568914956
1.3636363636363635
1.348973607038123
1.3304007820136852
1.3128054740957966
1.2942326490713587
1.2688172043010753
1.2375366568914956
1.2003910068426198
1.160312805474096
1.1202346041055715
1.086021505376344
1.0664711632453567
1.0713587487781036
1.1085043988269794
1.1857282502443791
1.3020527859237536
1.4291300097751711
1.56891495601173
1.7429130009775171
1.9335288367546437
2.1251221896383186
2.304985337243402
2.464320625610948
2.5972629521016617
2.7008797653958942
2.7751710654936463
2.8211143695014664
2.841642228739003
2.8406647116324537
2.823069403714565
2.790811339198436
2.7468230694037143
2.6911045943304006
2.625610948191593
2.5513196480938416
2.4711632453567938
2.3841642228739004
2.290322580645161
2.190615835777126
2.0879765395894427
1.9833822091886608
1.8914956011730208
1.8084066471163245
1.721407624633431
1.635386119257087
1.5562072336265884
1.487781036168133
1.43108504398827
1.3870967741935485
1.35386119257087
1.332355816226784
1.3176930596285434
1.3088954056695992
1.3049853372434017
1.303030303030303
1.2991202346041055
1.2942326490713587
1.2854349951124144
1.273704789833822
1.2590420332355816
1.2404692082111437
1.2179863147605083
1.1915933528836755
1.160312805474096
1.1241446725317692
1.083088954056696
1.0478983382209188
1.0175953079178883
0.9853372434017597
0.9648093841642228
0.967741935483871
1.002932551319648
1.078201368523949
1.195503421309873
1.3499511241446724
1.5356793743890518
1.7390029325513197
1.9472140762463344
2.124144672531769
2.274682306940372
2.4222873900293256
2.550342130987292
2.650048875855328
2.720430107526881
2.7614858260019552
2.7751710654936463
2.766373411534702
2.7390029325513194
2.6959921798631474
2.641251221896383
2.58455522971652
2.5249266862170088
2.455522971652004
2.3792766373411536
2.2952101661779083
2.206256109481916
2.1114369501466275
2.013685239491691
1.913978494623656
1.81524926686217
1.721407624633431
1.6334310850439884
1.5542521994134897
1.4946236559139785
1.4496578690127078
1.409579667644184
1.3792766373411536
1.3607038123167154
1.3519061583577712
1.3499511241446724
1.35386119257087
1.359726295210166
1.364613880742913
1.367546432062561
1.3665689149560116
1.3636363636363635
1.359726295210166
1.3499511241446724
1.3343108504398826
1.313782991202346
1.2883675464320623
1.2570869990224829
1.2209188660801564
1.181818181818182
1.1407624633431086
1.104594330400782
1.0821114369501466
1.0811339198435972
1.1016617790811338
1.1505376344086022
1.2394916911045943
1.3685239491691104
1.5317693059628543
1.7223851417399805
1.9266862170087975
2.131964809384164
2.3255131964809386
2.498533724340176
2.6471163245356792
2.7653958944281527
2.8406647116324537
2.8856304985337244
2.913000977517106
2.920821114369501
2.911045943304008
2.8856304985337244
2.84652981427175
2.7966764418377323
2.7390029325513194
2.673509286412512
2.601173020527859
2.5219941348973607
2.436950146627566
2.357771260997068
2.280547409579668
2.1925708699902247
2.1006842619745845
2.0087976539589443
1.9188660801564028
1.8347996089931573
1.7595307917888563
1.6959921798631477
1.6451612903225807
1.6050830889540566
1.5757575757575757
1.5581622678396871
1.547409579667644
1.541544477028348
1.5366568914956011
1.5317693059628543
1.525904203323558
1.5180840664711632
1.5063538611925709
1.4916911045943304
1.474095796676442
1.452590420332356
1.4281524926686218
1.3988269794721409
1.3724340175953078
1.3450635386119256
1.3088954056695992
1.267839687194526
1.227761485826002
1.1964809384164223
1.1808406647116323
1.1925708699902249
1.2394916911045943
1.3264907135874875
1.4545454545454546
1.616813294232649
1.7761485826001957
1.9374389051808407
2.124144672531769
2.315738025415445
2.498533724340176
2.662756598240469
2.801564027370479
2.9120234604105573
2.992179863147605
3.0439882697947214
3.070381231671554
3.075268817204301
3.06158357771261
3.034213098729228
2.997067448680352
2.949169110459433
2.89345063538612
2.8299120234604107
2.7595307917888565
2.6823069403714563
2.598240469208211
2.509286412512219
2.4134897360703813
2.312805474095797
2.210166177908113
2.1192570869990224
2.0361681329423265
1.948191593352884
1.8621700879765395
1.7820136852394917
1.710654936461388
1.651026392961877
1.6021505376344083
1.564027370478983
1.5356793743890518
1.5161290322580645
1.5024437927663734
1.4916911045943304
1.4838709677419355
1.478005865102639
1.4682306940371457
1.4545454545454546
1.435972629521017
1.414467253176931
1.3890518084066472
1.359726295210166
1.3264907135874875
1.289345063538612
1.2473118279569892
1.203323558162268
1.1691104594330402
1.144672531769306
1.1290322580645162
1.1348973607038124
1.1710654936461389
1.2453567937438903
1.3577712609970674
1.5063538611925709
1.683284457478006
1.8758553274682308
2.072336265884653
2.260997067448681
2.432062561094819
2.5620723362658846
2.659824046920821
2.7438905180840663
2.807429130009776
2.84652981427175
2.8611925708699903
2.855327468230694
2.831867057673509
2.792766373411535
2.7419354838709675
2.681329423264907
2.613880742913001
2.547409579667644
2.479960899315738
2.39980449657869
2.310850439882698
2.2160312805474094
2.1163245356793743
2.013685239491691
1.9100684261974583
1.8084066471163245
1.710654936461388
1.6207233626588464
1.541544477028348
1.474095796676442
1.426197458455523
1.3919843597262953
1.3626588465298142
1.3411534701857282
1.327468230694037
1.3206256109481915
1.3157380254154447
1.3128054740957966
1.3088954056695992
1.3040078201368523
1.295210166177908
1.2825024437927663
1.2717497556207231
1.2590420332355816
1.2394916911045943
1.2140762463343109
1.1837732160312806
1.147605083088954
1.1065493646138806
1.0625610948191593
1.021505376344086
0.9902248289345064
0.9775171065493646
0.9951124144672532
1.0498533724340176
1.1280547409579669
1.2336265884652982
1.3822091886608017
1.5650048875855327
1.7683284457478006
1.9775171065493649
2.177908113391984
2.358748778103617
2.512218963831867
2.634408602150537
2.7233626588465296
2.780058651026393
2.806451612903226
2.809384164222874
2.795698924731183
2.7653958944281527
2.721407624633431
2.667644183773216
2.606060606060606
2.5376344086021505
2.462365591397849
2.3812316715542523
2.2952101661779083
2.204301075268817
2.121212121212121
2.042033235581622
1.9550342130987293
1.865102639296188
1.7781036168132942
1.696969696969697
1.6256109481915937
1.565982404692082
1.5190615835777126
1.4858260019550342
1.4633431085043989
1.4506353861192571
1.444770283479961
1.4457478005865103
1.4496578690127078
1.4535679374389052
1.455522971652004
1.4545454545454546
1.4486803519061584
1.436950146627566
1.4213098729227762
1.4027370478983383
1.380254154447703
1.35386119257087
1.324535679374389
1.2971652003910068
1.2697947214076246
1.2336265884652982
1.195503421309873
1.1622678396871946
1.141739980449658
1.1436950146627567
1.1779081133919844
1.2502443792766371
1.3616813294232648
1.509286412512219
1.686217008797654
1.8807429130009776
2.0557184750733137
2.21505376344086
2.3822091886608017
2.539589442815249
2.67644183773216
2.787878787878788
2.8699902248289346
2.9237536656891496
2.952101661779081
2.9579667644183774
2.9442815249266863
2.9149560117302054
2.875855327468231
2.8299120234604107
2.7751710654936463
2.7116324535679373
2.6402737047898337
2.5620723362658846
2.47702834799609
2.386119257086999
2.291300097751711
2.1925708699902247
2.09188660801564
1.9931573802541545
1.8983382209188664
1.8191593352883677
1.7497556207233629
1.6813294232649072
1.619745845552297
1.5708699902248289
1.533724340175953
1.504398826979472
1.482893450635386
1.4672531769305963
1.456500488758553
1.447702834799609
1.4389051808406648
1.43108504398827
1.4242424242424243
1.4134897360703813
1.3988269794721409
1.380254154447703
1.359726295210166
1.335288367546432
1.3079178885630498
1.2766373411534702
1.241446725317693
1.203323558162268
1.1671554252199414
1.13880742913001
1.1251221896383188
1.1300097751710656
1.1583577712609971
1.2179863147605083
1.3147605083088951
1.4467253176930597
1.606060606060606
1.7839687194525904
1.9696969696969695
2.1515151515151514
2.320625610948192
2.469208211143695
2.5806451612903225
2.6608015640273703
2.7282502443792764
2.776148582600196
2.8025415444770285
2.8084066471163247
2.795698924731183
2.7673509286412514
2.7262952101661777
2.675464320625611
2.616813294232649
2.550342130987292
2.47702834799609
2.406647116324536
2.3362658846529816
2.2551319648093844
2.166177908113392
2.070381231671554
1.9716520039100685
1.8729227761485825
1.7771260997067448
1.6871945259042034
1.6050830889540566
1.5317693059628543
1.4682306940371457
1.4222873900293256
1.3900293255131966
1.3636363636363635
1.3440860215053765
1.3313782991202343
1.3235581622678396
1.3186705767350928
1.3147605083088951
1.310850439882698
1.3049853372434017
1.2961876832844574
1.284457478005865
1.2688172043010753
1.2561094819159335
1.2424242424242424
1.219941348973607
1.1915933528836755
1.1573802541544478
1.118279569892473
1.078201368523949
1.0420332355816226
1.0175953079178883
1.0117302052785924
1.0342130987292275
1.0909090909090908
1.1681329423264908
1.267839687194526
1.4066471163245358
1.573802541544477
1.7565982404692082
1.9423264907135875
2.1192570869990224
2.278592375366569
2.4134897360703813
2.520039100684262
2.5962854349951123
2.6451612903225805
2.668621700879765
2.6715542521994133
2.6578690127077222
2.63049853372434
2.592375366568915
2.5454545454545454
2.490713587487781
2.429130009775171
2.363636363636364
2.2932551319648096
2.2170087976539588
2.134897360703812
2.047898338220919
1.9696969696969695
1.895405669599218
1.8142717497556209
1.7331378299120237
1.6559139784946235
1.58455522971652
1.5239491691104594
1.474095796676442
1.435972629521017
1.409579667644184
1.392961876832845
1.3851417399804498
1.3841642228739004
1.3890518084066472
1.3949169110459434
1.3998044965786902
1.4037145650048877
1.4027370478983383
1.3978494623655917
1.3890518084066472
1.375366568914956
1.3577712609970674
1.3362658846529814
1.310850439882698
1.2825024437927663
1.2570869990224829
1.2336265884652982
1.2043010752688172
1.176930596285435
1.1583577712609971
1.1564027370478984
1.1798631476050832
1.2365591397849462
1.327468230694037
1.4516129032258065
1.6041055718475072
1.7771260997067448
1.9589442815249267
2.1163245356793743
2.254154447702835
2.393939393939394
2.520039100684262
2.6236559139784945
2.701857282502444
2.7536656891495603
2.782013685239492
2.788856304985337
2.7781036168132944
2.752688172043011
2.7155425219941347
2.673509286412512
2.627565982404692
2.573802541544477
2.512218963831867
2.442815249266862
2.3685239491691106
2.289345063538612
2.2052785923753664
2.1163245356793743
2.0254154447702835
1.9345063538611929
1.8465298142717497
1.7732160312805474
1.710654936461388
1.6480938416422288
1.5923753665689149
1.5454545454545454
1.5083088954056696
1.479960899315738
1.458455522971652
1.4428152492668622
1.43108504398827
1.4213098729227762
1.412512218963832
1.4027370478983383
1.3949169110459434
1.3861192570869991
1.3714565004887584
1.3528836754643203
1.3313782991202343
1.3069403714565004
1.2795698924731185
1.249266862170088
1.2160312805474096
1.1788856304985338
1.141739980449658
1.1085043988269794
1.088954056695992
1.086021505376344
1.1026392961876832
1.1485826001955035
1.2297165200391007
1.3470185728250244
1.4965786901270772
1.6705767350928642
1.8563049853372435
2.0439882697947214
2.222873900293255
2.3851417399804498
2.5239491691104594
2.624633431085044
2.695014662756598
2.752688172043011
2.790811339198436
2.809384164222874
2.8103616813294234
2.7966764418377323
2.76930596285435
2.7311827956989245
2.684261974584555
2.6295210166177907
2.567937438905181
2.50733137829912
2.444770283479961
2.372434017595308
2.29227761485826
2.206256109481916
2.117302052785924
2.026392961876833
1.9364613880742916
1.8484848484848484
1.7653958944281525
1.6881720430107527
1.6177908113391983
1.5571847507331378
1.512218963831867
1.478005865102639
1.447702834799609
1.4222873900293256
1.401759530791789
1.3841642228739004
1.3685239491691104
1.35386119257087
1.3391984359726294
1.3225806451612905
1.3040078201368523
1.284457478005865
1.267839687194526
1.252199413489736
1.23069403714565
1.2052785923753666
1.1749755620723363
1.13880742913001
1.0987292277614855
1.0586510263929618
1.024437927663734
1.0058651026392962
1.0097751710654936
1.050830889540567
1.1358748778103618
1.2365591397849462
1.3577712609970674
1.5180840664711632
1.7038123167155426
1.9012707722385145
2.096774193548387
2.278592375366569
2.4389051808406648
2.570869990224829
2.6725317693059627
2.7438905180840663
2.7869012707722387
2.8025415444770285
2.7976539589442817
2.776148582600196
2.739980449657869
2.69208211143695
2.634408602150537
2.5698924731182795
2.4975562072336266
2.420332355816227
2.3382209188660803
2.2502443792766376
2.157380254154448
