ppg
1.479960899315738
1.4760508308895406
1.469208211143695
1.4594330400782014
1.447702834799609
1.434017595307918
1.4203323558162269
1.409579667644184
1.4007820136852396
1.3919843597262953
1.383186705767351
1.375366568914956
1.3685239491691104
1.3626588465298142
1.356793743890518
1.3509286412512218
1.3450635386119256
1.3391984359726294
1.3333333333333333
1.3294232649071358
1.3313782991202343
1.3421309872922775
1.3695014662756595
1.4213098729227762
1.504398826979472
1.6217008797653958
1.76930596285435
1.9413489736070384
2.129032258064516
2.318670576735093
2.4975562072336266
2.656891495601173
2.7751710654936463
2.860215053763441
2.929618768328446
2.975562072336266
2.99902248289345
3.0019550342130987
2.986314760508309
2.9550342130987293
2.9120234604105573
2.859237536656892
2.798631476050831
2.7311827956989245
2.665689149560117
2.598240469208211
2.5210166177908118
2.436950146627566
2.345063538611926
2.2482893450635384
2.147605083088954
2.0410557184750733
1.9315738025415443
1.822091886608016
1.7145650048875856
1.6109481915933528
1.5141739980449658
1.4379276637341154
1.375366568914956
1.3147605083088951
1.2619745845552297
1.2189638318670577
1.1867057673509287
1.164222873900293
1.1534701857282503
1.152492668621701
1.160312805474096
1.1749755620723363
1.1935483870967742
1.2121212121212122
1.23069403714565
1.249266862170088
1.267839687194526
1.2825024437927663
1.2932551319648091
1.2981427174975562
1.2991202346041055
1.2971652003910068
1.2913000977517106
1.2825024437927663
1.2717497556207231
1.2570869990224829
1.2443792766373412
1.2336265884652982
1.2209188660801564
1.2082111436950147
1.1964809384164223
1.187683284457478
1.1808406647116323
1.1749755620723363
1.1691104594330402
1.163245356793744
1.1564027370478984
1.147605083088954
1.1407624633431086
1.1358748778103618
1.1319648093841643
1.1368523949169111
1.1593352883675463
1.2072336265884651
1.2883675464320623
1.404692082111437
1.555229716520039
1.7331378299120237
1.9286412512218964
2.129032258064516
2.321603128054741
2.4760508308895406
2.598240469208211
2.7126099706744866
2.8054740957966766
2.8719452590420333
2.913000977517106
2.929618768328446
2.924731182795699
2.903225806451613
2.8690127077223853
2.825024437927664
2.7722385141739982
2.717497556207233
2.659824046920821
2.5943304007820136
2.5219941348973607
2.443792766373412
2.358748778103617
2.2668621700879767
2.167155425219941
2.06158357771261
1.9521016617790807
1.842619745845552
1.7341153470185728
1.6275659824046922
1.5386119257087
1.4623655913978495
1.383186705767351
1.3098729227761483
1.24633431085044
1.1935483870967742
1.1534701857282503
1.126099706744868
1.110459433040078
1.1055718475073313
1.110459433040078
1.1221896383186705
1.1378299120234605
1.1564027370478984
1.176930596285435
1.1964809384164223
1.2140762463343109
1.2287390029325511
1.238514173998045
1.2443792766373412
1.24633431085044
1.2434017595307918
1.2375366568914956
1.2297165200391007
1.219941348973607
1.2130987292277615
1.2072336265884651
1.198435972629521
1.187683284457478
1.173998044965787
1.1593352883675463
1.1436950146627567
1.1290322580645162
1.1143695014662756
1.1006842619745845
1.0899315738025417
1.0801564027370478
1.0733137829912025
1.0684261974584557
1.0606060606060606
1.053763440860215
1.053763440860215
1.067448680351906
1.1026392961876832
1.1671554252199414
1.2658846529814272
1.3988269794721409
1.564027370478983
1.7526881720430108
1.9530791788856303
2.1280547409579667
2.281524926686217
2.4379276637341154
2.5806451612903225
2.6989247311827955
2.788856304985337
2.850439882697948
2.8836754643206257
2.8944281524926687
2.8856304985337244
2.8611925708699903
2.8181818181818183
2.766373411534702
2.7126099706744866
2.6510263929618767
2.58455522971652
2.512218963831867
2.4349951124144678
2.3528836754643208
2.2658846529814274
2.172043010752688
2.070381231671554
1.963831867057673
1.8563049853372435
1.7487781036168133
1.6559139784946235
1.5728250244379276
1.4848484848484849
1.4007820136852396
1.324535679374389
1.260019550342131
1.209188660801564
1.1720430107526882
1.1495601173020529
1.1397849462365592
1.1407624633431086
1.1505376344086022
1.166177908113392
1.18475073313783
1.206256109481916
1.227761485826002
1.2482893450635386
1.2649071358748778
1.2776148582600195
1.2854349951124144
1.2883675464320623
1.2883675464320623
1.2864125122189638
1.2805474095796676
1.2717497556207231
1.2639296187683284
1.2570869990224829
1.24633431085044
1.2336265884652982
1.2209188660801564
1.209188660801564
1.1974584555229717
1.1857282502443791
1.173998044965787
1.1622678396871946
1.1485826001955035
1.1358748778103618
1.1270772238514175
1.1202346041055715
1.1114369501466277
1.1026392961876832
1.0987292277614855
1.1026392961876832
1.1221896383186705
1.164222873900293
1.2365591397849462
1.343108504398827
1.4838709677419355
1.6529814271749756
1.8142717497556209
1.9716520039100685
2.150537634408602
2.329423264907136
2.49266862170088
2.6285434995112413
2.735092864125122
2.811339198435973
2.8582600195503423
2.878787878787879
2.87683284457478
2.859237536656892
2.8289345063538613
2.789833822091887
2.7438905180840663
2.689149560117302
2.627565982404692
2.5591397849462365
2.4838709677419355
2.401759530791789
2.313782991202346
2.220918866080156
2.12316715542522
2.0195503421309877
1.911045943304008
1.8142717497556209
1.7233626588465298
1.6256109481915937
1.5268817204301075
1.434017595307918
1.3499511241446724
1.2766373411534702
1.2160312805474096
1.1681329423264908
1.133919843597263
1.1143695014662756
1.1055718475073313
1.1065493646138806
1.1143695014662756
1.1280547409579669
1.1456500488758554
1.1652003910068427
1.1857282502443791
1.2052785923753666
1.2228739002932552
1.2394916911045943
1.2531769305962854
1.262952101661779
1.267839687194526
1.2668621700879763
1.2649071358748778
1.260019550342131
1.249266862170088
1.2336265884652982
1.2150537634408602
1.195503421309873
1.1749755620723363
1.1544477028347997
1.1348973607038124
1.1163245356793745
1.1006842619745845
1.0850439882697946
1.0713587487781036
1.0625610948191593
1.0576735092864125
1.050830889540567
1.043010752688172
1.0371456500488758
1.0381231671554252
1.0518084066471165
1.0850439882697946
1.144672531769306
1.2355816226783969
1.359726295210166
1.5151515151515151
1.667644183773216
1.823069403714565
2.003910068426197
2.189638318670577
2.3655913978494625
2.520039100684262
2.6471163245356792
2.7419354838709675
2.806451612903226
2.841642228739003
2.8533724340175954
2.843597262952102
2.81622678396872
2.780058651026393
2.7370478983382207
2.684261974584555
2.6236559139784945
2.5542521994134897
2.47702834799609
2.391006842619746
2.297165200391007
2.1974584555229715
2.089931573802541
1.978494623655914
1.865102639296188
1.7663734115347018
1.6764418377321604
1.5806451612903225
1.4868035190615836
1.3988269794721409
1.3225806451612905
1.260019550342131
1.2130987292277615
1.181818181818182
1.1652003910068427
1.163245356793744
1.173998044965787
1.1935483870967742
1.217008797653959
1.2443792766373412
1.2746823069403714
1.3040078201368523
1.3333333333333333
1.359726295210166
1.3822091886608017
1.401759530791789
1.4164222873900294
1.4271749755620724
1.4330400782013686
1.4349951124144673
1.435972629521017
1.4330400782013686
1.4252199413489737
1.414467253176931
1.4007820136852396
1.3870967741935485
1.3743890518084063
1.3626588465298142
1.3509286412512218
1.3391984359726294
1.327468230694037
1.3176930596285434
1.3098729227761483
1.3049853372434017
1.3020527859237536
1.2981427174975562
1.2942326490713587
1.2942326490713587
1.3010752688172045
1.3225806451612905
1.364613880742913
1.4320625610948192
1.530791788856305
1.6608015640273706
1.8191593352883677
1.970674486803519
2.120234604105572
2.291300097751711
2.462365591397849
2.6207233626588464
2.757575757575758
2.8670576735092865
2.9472140762463344
2.9980449657869013
3.021505376344086
3.021505376344086
3.0009775171065494
2.9657869012707723
2.921798631476051
2.870967741935484
2.811339198435973
2.7438905180840663
2.6695992179863146
2.590420332355816
2.506353861192571
2.4164222873900294
2.3225806451612905
2.2248289345063537
2.12316715542522
2.018572825024438
1.924731182795699
1.836754643206256
1.7409579667644184
1.6451612903225807
1.552297165200391
1.466275659824047
1.391006842619746
1.3294232649071358
1.2805474095796676
1.2424242424242424
1.2160312805474096
1.2003910068426198
1.1945259042033236
1.195503421309873
1.2023460410557183
1.2121212121212122
1.2238514173998043
1.2365591397849462
1.241446725317693
1.2434017595307918
1.249266862170088
1.2561094819159335
1.2609970674486803
1.262952101661779
1.2619745845552297
1.260019550342131
1.2561094819159335
1.2502443792766371
1.2434017595307918
1.2355816226783969
1.227761485826002
1.2189638318670577
1.209188660801564
1.198435972629521
1.187683284457478
1.1788856304985338
1.1720430107526882
1.1652003910068427
1.1612903225806452
1.1573802541544478
1.1495601173020529
1.1397849462365592
1.130987292277615
1.1280547409579669
1.13880742913001
1.1710654936461389
1.2316715542521994
1.3264907135874875
1.4545454545454546
1.611925708699902
1.7644183773216031
1.913978494623656
2.083088954056696
2.254154447702835
2.4144672531769307
2.5532746823069403
2.664711632453568
2.7468230694037143
2.801564027370479
2.83088954056696
2.8377321603128056
2.8269794721407626
2.8025415444770285
2.768328445747801
2.7253176930596283
2.674486803519061
2.6158357771261
2.550342130987292
2.479960899315738
2.403714565004888
2.321603128054741
2.2346041055718477
2.1407624633431084
2.0410557184750733
1.9364613880742916
1.842619745845552
1.7526881720430108
1.653958944281525
1.5532746823069403
1.456500488758553
1.367546432062561
1.2873900293255132
1.2189638318670577
1.164222873900293
1.1231671554252198
1.0977517106549364
1.0869990224828934
1.088954056695992
1.099706744868035
1.1173020527859236
1.141739980449658
1.1681329423264908
1.195503421309873
1.2209188660801564
1.241446725317693
1.2570869990224829
1.267839687194526
1.2727272727272727
1.273704789833822
1.2697947214076246
1.2649071358748778
1.2590420332355816
1.2482893450635386
1.2336265884652982
1.2150537634408602
1.1935483870967742
1.1700879765395895
1.144672531769306
1.1192570869990224
1.0957966764418376
1.0742913000977516
1.0547409579667644
1.0420332355816226
1.0342130987292275
1.024437927663734
1.0146627565982405
1.0058651026392962
1.0009775171065494
1.0019550342130987
1.0146627565982405
1.0469208211143697
1.1065493646138806
1.198435972629521
1.3235581622678396
1.479960899315738
1.6334310850439884
1.7898338220918866
1.9716520039100685
2.158357771260997
2.333333333333333
2.487781036168133
2.6158357771261
2.713587487781036
2.7781036168132944
2.812316715542522
2.819159335288368
2.8044965786901277
2.7751710654936463
2.732160312805474
2.677419354838709
2.6129032258064515
2.541544477028348
2.463343108504399
2.3792766373411536
2.289345063538612
2.1925708699902247
2.090909090909091
1.9843597262952104
1.8729227761485825
1.758553274682307
1.6588465298142718
1.56891495601173
1.4731182795698925
1.3792766373411536
1.29227761485826
1.2160312805474096
1.1544477028347997
1.1085043988269794
1.078201368523949
1.064516129032258
1.0654936461388074
1.0772238514173995
1.0948191593352885
1.1173020527859236
1.144672531769306
1.1730205278592376
1.2003910068426198
1.2258064516129032
1.2473118279569892
1.2649071358748778
1.2776148582600195
1.2854349951124144
1.2883675464320623
1.2883675464320623
1.284457478005865
1.278592375366569
1.2717497556207231
1.260019550342131
1.2424242424242424
1.2209188660801564
1.198435972629521
1.173998044965787
1.1485826001955035
1.1241446725317692
1.1016617790811338
1.0811339198435972
1.0625610948191593
1.0518084066471165
1.0449657869012707
1.0371456500488758
1.0303030303030305
1.024437927663734
1.021505376344086
1.0254154447702837
1.0420332355816226
1.0791788856304985
1.142717497556207
1.238514173998045
1.3665689149560116
1.5239491691104594
1.6764418377321604
1.828934506353861
2.006842619745845
2.187683284457478
2.356793743890518
2.5034213098729228
2.6236559139784945
2.713587487781036
2.773216031280548
2.8044965786901277
2.812316715542522
2.798631476050831
2.76930596285435
2.727272727272727
2.673509286412512
2.608993157380254
2.535679374389052
2.453567937438905
2.363636363636364
2.2668621700879767
2.1652003910068425
2.0576735092864125
1.9442815249266865
1.828934506353861
1.7135874877810362
1.6148582600195502
1.5288367546432062
1.4418377321603129
1.3626588465298142
1.2961876832844574
1.2434017595307918
1.2072336265884651
1.187683284457478
1.181818181818182
1.1867057673509287
1.2003910068426198
1.2209188660801564
1.2443792766373412
1.270772238514174
1.300097751710655
1.3304007820136852
1.3607038123167154
1.3900293255131966
1.41544477028348
1.434017595307918
1.4467253176930597
1.452590420332356
1.452590420332356
1.4457478005865103
1.4349951124144673
1.423264907135875
1.4115347018572826
1.3958944281524928
1.3763440860215057
1.3558162267839686
1.3372434017595307
1.3196480938416422
1.3040078201368523
1.2913000977517106
1.2825024437927663
1.278592375366569
1.2776148582600195
1.2805474095796676
1.2854349951124144
1.2913000977517106
1.2971652003910068
1.303030303030303
1.313782991202346
1.3333333333333333
1.3695014662756595
1.4301075268817205
1.520039100684262
1.6412512218963833
1.7917888563049853
1.9589442815249267
2.1407624633431084
2.334310850439883
2.525904203323558
2.701857282502444
2.852394916911046
2.970674486803519
3.0547409579667644
3.1065493646138806
3.1300097751710654
3.1280547409579667
3.104594330400782
3.064516129032258
3.0146627565982405
2.9579667644183774
2.8914956011730206
2.81622678396872
2.735092864125122
2.649071358748778
2.557184750733138
2.4604105571847508
2.356793743890518
2.2482893450635384
2.136852394916911
2.021505376344086
1.919843597262952
1.826001955034213
1.7253176930596286
1.6265884652981428
1.5327468230694037
1.4486803519061584
1.3763440860215057
1.3176930596285434
1.2727272727272727
1.2404692082111437
1.2189638318670577
1.2082111436950147
1.2072336265884651
1.2130987292277615
1.2258064516129032
1.2424242424242424
1.260019550342131
1.278592375366569
1.2961876832844574
1.3118279569892473
1.3255131964809383
1.3362658846529814
1.3440860215053765
1.3470185728250244
1.346041055718475
1.3440860215053765
1.3411534701857282
1.3343108504398826
1.324535679374389
1.3128054740957966
1.300097751710655
1.2873900293255132
1.2756598240469208
1.262952101661779
1.2512218963831867
1.241446725317693
1.2316715542521994
1.2218963831867058
1.2140762463343109
1.206256109481916
1.195503421309873
1.1837732160312806
1.1720430107526882
1.163245356793744
1.1652003910068427
1.18475073313783
1.2297165200391007
1.3088954056695992
1.426197458455523
1.5796676441837731
1.7341153470185728
1.8934506353861196
2.0840664711632453
2.283479960899316
2.4760508308895406
2.649071358748778
2.7947214076246336
2.90811339198436
2.989247311827957
3.038123167155425
3.058651026392962
3.0547409579667644
3.032258064516129
2.9980449657869013
2.95405669599218
2.9012707722385143
2.841642228739003
2.777126099706745
2.70772238514174
2.633431085043988
2.5542521994134897
2.469208211143695
2.378299120234604
2.2825024437927666
2.1818181818181817
2.0879765395894427
1.9960899315738023
1.8914956011730208
1.782991202346041
1.675464320625611
1.5728250244379276
1.478005865102639
1.392961876832845
1.3206256109481915
1.2609970674486803
1.2150537634408602
1.1827956989247312
1.1612903225806452
1.1534701857282503
1.1544477028347997
1.1612903225806452
1.1720430107526882
1.18475073313783
1.1994134897360704
1.2140762463343109
1.2287390029325511
1.2424242424242424
1.2531769305962854
1.260019550342131
1.2639296187683284
1.2668621700879763
1.2668621700879763
1.2580645161290325
1.2394916911045943
1.2101661779081134
1.1691104594330402
1.118279569892473
1.056695992179863
0.9882697947214076
0.913978494623656
0.8396871945259042
0.7663734115347018
0.6959921798631477
0.6402737047898338
0.5933528836754643
0.5376344086021505
0.4780058651026393
0.4164222873900293
0.3577712609970674
0.3059628543499511
0.2678396871945259
0.252199413489736
0.2688172043010752
0.3255131964809384
0.4301075268817204
0.5571847507331378
0.7145650048875856
0.9257086999022482
1.1759530791788857
1.4486803519061584
1.7282502443792769
2.0019550342130987
2.257086999022483
2.4838709677419355
2.677419354838709
2.8367546432062563
2.961876832844575
3.050830889540567
3.101661779081134
3.1251221896383186
3.1358748778103616
3.1300097751710654
3.110459433040078
3.0791788856304985
3.038123167155425
2.986314760508309
2.9257086999022484
2.857282502443793
2.779081133919844
2.6911045943304006
2.6050830889540566
2.5161290322580645
2.4134897360703813
2.300097751710655
2.1818181818181817
2.0625610948191597
1.946236559139785
1.835777126099707
1.7331378299120237
1.6412512218963833
1.564027370478983
1.501466275659824
1.4516129032258065
1.4173998044965788
1.3958944281524928
1.3812316715542523
1.375366568914956
1.375366568914956
1.3812316715542523
1.391006842619746
1.4037145650048877
1.4164222873900294
1.4281524926686218
1.4389051808406648
1.4467253176930597
1.452590420332356
1.455522971652004
1.4535679374389052
1.447702834799609
1.4389051808406648
1.4271749755620724
1.4134897360703813
1.3988269794721409
1.3822091886608017
1.364613880742913
1.346041055718475
1.3255131964809383
1.305962854349951
1.2913000977517106
1.2795698924731185
1.2658846529814272
1.2512218963831867
1.2365591397849462
1.2218963831867058
1.2082111436950147
1.1945259042033236
1.1808406647116323
1.1700879765395895
1.1681329423264908
1.1827956989247312
1.2121212121212122
1.262952101661779
1.3499511241446724
1.4731182795698925
1.6304985337243405
1.8162267839687196
2.0195503421309877
2.2277614858260018
2.4281524926686218
2.6099706744868034
2.7653958944281527
2.8905180840664717
2.973607038123167
3.024437927663734
3.058651026392962
3.0733137829912023
3.069403714565005
3.047898338220919
3.0127077223851417
2.964809384164223
2.906158357771261
2.838709677419355
2.7653958944281527
2.686217008797654
2.601173020527859
2.520039100684262
2.439882697947214
2.3489736070381237
2.2502443792766376
2.1436950146627565
2.0303030303030303
1.9872922776148585
1.991202346041056
1.9560117302052784
1.9042033235581624
1.8494623655913975
1.7976539589442817
1.7575757575757576
1.7272727272727273
1.7008797653958945
1.6803519061583578
1.6666666666666667
1.6608015640273706
1.6608015640273706
1.667644183773216
1.678396871945259
1.6911045943304008
1.7057673509286413
1.7194525904203324
1.7311827956989247
1.7419354838709675
1.7497556207233629
1.7546432062561097
1.7556207233626588
1.7546432062561097
1.750733137829912
1.7448680351906158
1.7380254154447703
1.729227761485826
1.7204301075268815
1.710654936461388
1.699902248289345
1.6911045943304008
1.683284457478006
1.672531769305963
1.6627565982404693
1.6529814271749756
1.6441837732160314
1.6363636363636365
1.6275659824046922
1.619745845552297
1.6109481915933528
1.603128054740958
1.5972629521016617
1.5943304007820136
1.598240469208211
1.6129032258064515
1.643206256109482
1.6950146627565983
1.7712609970674489
1.871945259042033
1.9931573802541545
2.1300097751710654
2.272727272727273
2.4134897360703813
2.544477028347996
2.659824046920821
2.7438905180840663
2.8025415444770285
2.850439882697948
2.8826979472140764
2.898338220918866
2.898338220918866
2.884652981427175
2.859237536656892
2.8260019550342133
2.7859237536656893
2.740957966764418
2.6911045943304006
2.636363636363636
2.58455522971652
2.533724340175953
2.4760508308895406
2.4115347018572826
2.343108504398827
2.269794721407625
2.1925708699902247
2.112414467253177
2.032258064516129
1.9550342130987293
1.8836754643206255
1.818181818181818
1.7663734115347018
1.726295210166178
1.689149560117302
1.6588465298142718
1.6363636363636365
1.6226783968719452
1.616813294232649
1.6177908113391983
1.624633431085044
1.635386119257087
1.6490713587487782
1.6637341153470186
1.6793743890518085
1.694037145650049
1.7067448680351909
1.718475073313783
1.7272727272727273
1.732160312805474
1.7331378299120237
1.7302052785923754
1.7243401759530792
1.7165200391006843
1.7067448680351909
1.6950146627565983
1.6823069403714566
1.6715542521994136
1.6627565982404693
1.6500488758553276
1.6363636363636365
1.6226783968719452
1.6099706744868034
1.598240469208211
1.587487781036168
1.5777126099706744
1.56891495601173
1.5620723362658846
1.555229716520039
1.5503421309872922
1.5503421309872922
1.5562072336265884
1.5718475073313782
1.6021505376344083
1.6529814271749756
1.7282502443792769
1.826001955034213
1.945259042033236
2.080156402737048
2.2218963831867056
2.361681329423265
2.4916911045943304
2.592375366568915
2.670576735092864
2.740957966764418
2.795698924731183
2.83088954056696
2.8484848484848486
2.849462365591398
2.834799608993157
2.8084066471163247
2.7722385141739982
2.727272727272727
2.67644183773216
2.6207233626588464
2.5669599217986314
2.512218963831867
2.449657869012708
2.3822091886608017
2.3098729227761488
2.2346041055718477
2.156402737047898
2.0772238514174
2.0
1.924731182795699
1.8543499511241448
1.7927663734115349
1.7448680351906158
1.7086999022482894
1.6774193548387095
1.653958944281525
1.640273704789834
1.6363636363636365
1.6412512218963833
1.6520039100684265
1.667644183773216
1.686217008797654
1.7057673509286413
1.7243401759530792
1.7409579667644184
1.7546432062561097
1.7663734115347018
1.7771260997067448
1.7839687194525904
1.7878787878787878
1.7888563049853372
1.7859237536656891
1.780058651026393
1.7702834799608993
1.7575757575757576
1.7429130009775171
1.7272727272727273
1.7135874877810362
1.7008797653958945
1.6852394916911049
1.667644183773216
1.6500488758553276
1.632453567937439
1.616813294232649
1.603128054740958
1.5923753665689149
1.58455522971652
1.5786901270772238
1.5747800586510263
1.5708699902248289
1.5708699902248289
1.5757575757575757
1.587487781036168
1.611925708699902
1.6549364613880744
1.7204301075268815
1.8103616813294232
1.9227761485826005
2.0518084066471163
2.1915933528836757
2.334310850439883
2.4701857282502444
2.578690127077224
2.6637341153470184
2.7419354838709675
2.8044965786901277
2.8475073313782997
2.8699902248289346
2.874877810361681
2.8641251221896384
2.8406647116324537
2.806451612903226
2.7624633431085046
2.7126099706744866
2.662756598240469
2.610948191593353
2.5513196480938416
2.484848484848485
2.412512218963832
2.3362658846529816
2.2551319648093844
2.1710654936461387
2.086021505376344
2.0019550342130987
1.920821114369501
1.8455522971652003
1.7790811339198436
1.729227761485826
1.6920821114369502
1.6598240469208212
1.6383186705767352
1.6265884652981428
1.624633431085044
1.6304985337243405
1.643206256109482
1.6598240469208212
1.6793743890518085
1.699902248289345
1.7204301075268815
1.7390029325513197
1.7565982404692082
1.7732160312805474
1.7869012707722385
1.796676441837732
1.8035190615835777
1.8064516129032255
1.8035190615835777
1.796676441837732
1.7859237536656891
1.7712609970674489
1.7526881720430108
1.732160312805474
1.595307917888563
1.3978494623655917
1.2825024437927663
1.2111436950146628
1.163245356793744
1.1300097751710656
1.10752688172043
1.0928641251221896
1.0840664711632453
1.0811339198435972
1.083088954056696
1.0869990224828934
1.093841642228739
1.104594330400782
1.121212121212121
1.1495601173020529
1.1964809384164223
1.270772238514174
1.3773216031280548
1.5180840664711632
1.689149560117302
1.8836754643206255
2.089931573802541
2.297165200391007
2.49266862170088
2.6471163245356792
2.7673509286412514
2.877810361681329
2.9657869012707723
3.026392961876833
3.059628543499511
3.0664711632453567
3.0498533724340176
