ppg
2.8455522971652005
2.86217008797654
2.881720430107527
2.9012707722385143
2.917888563049853
2.927663734115347
2.9315738025415445
2.9286412512218964
2.917888563049853
2.898338220918866
2.868035190615836
2.827956989247312
2.782991202346041
2.732160312805474
2.6715542521994133
2.6050830889540566
2.533724340175953
2.458455522971652
2.3841642228739004
2.313782991202346
2.24633431085044
2.182795698924731
2.124144672531769
2.070381231671554
2.021505376344086
1.9804496578690127
1.9442815249266865
1.9071358748778104
1.868035190615836
1.827956989247312
1.7878787878787878
1.747800586510264
1.7057673509286413
1.664711632453568
1.624633431085044
1.585532746823069
1.5493646138807429
1.5190615835777126
1.4926686217008798
1.466275659824047
1.4408602150537635
1.4164222873900294
1.3949169110459434
1.3763440860215057
1.359726295210166
1.346041055718475
1.3343108504398826
1.321603128054741
1.3088954056695992
1.2971652003910068
1.2883675464320623
1.2805474095796676
1.2697947214076246
1.2580645161290325
1.2453567937438903
1.2326490713587488
1.219941348973607
1.2082111436950147
1.1974584555229717
1.18475073313783
1.1700879765395895
1.1544477028347997
1.142717497556207
1.1329423264907137
1.121212121212121
1.1085043988269794
1.0957966764418376
1.0821114369501466
1.0684261974584557
1.0498533724340176
1.029325513196481
1.013685239491691
1.0019550342130987
0.9921798631476052
0.9843597262952102
0.981427174975562
0.9804496578690128
0.9775171065493646
0.975562072336266
0.9745845552297164
0.9745845552297164
0.9765395894428152
0.978494623655914
0.981427174975562
0.9843597262952102
0.9872922776148584
0.9902248289345064
0.9951124144672532
1.0
1.002932551319648
1.0048875855327468
1.0087976539589445
1.0175953079178883
1.035190615835777
1.0684261974584557
1.1202346041055715
1.1945259042033236
1.2932551319648091
1.414467253176931
1.555229716520039
1.6881720430107527
1.818181818181818
1.967741935483871
2.12316715542522
2.274682306940372
2.4144672531769307
2.539589442815249
2.6480938416422286
2.7390029325513194
2.812316715542522
2.8719452590420333
2.919843597262952
2.949169110459433
2.9667644183773216
2.981427174975562
2.992179863147605
2.997067448680352
2.997067448680352
2.989247311827957
2.972629521016618
2.946236559139785
2.909090909090909
2.8611925708699903
2.803519061583578
2.73802541544477
2.6715542521994133
2.6021505376344085
2.5268817204301075
2.449657869012708
2.372434017595308
2.297165200391007
2.2277614858260018
2.166177908113392
2.112414467253177
2.0664711632453567
2.0283479960899315
1.994134897360704
1.9667644183773216
1.943304007820137
1.919843597262952
1.8963831867057677
1.871945259042033
1.8455522971652003
1.8191593352883677
1.7917888563049853
1.7624633431085044
1.7311827956989247
1.6979472140762464
1.6637341153470186
1.6275659824046922
1.5962854349951123
1.56891495601173
1.5386119257087
1.5073313782991202
1.4760508308895406
1.4437927663734116
1.412512218963832
1.383186705767351
1.3548387096774193
1.327468230694037
1.303030303030303
1.281524926686217
1.2668621700879763
1.2551319648093842
1.2424242424242424
1.2287390029325511
1.2150537634408602
1.2013685239491692
1.1886608015640274
1.1759530791788857
1.163245356793744
1.1515151515151516
1.1397849462365592
1.1280547409579669
1.1173020527859236
1.1124144672531768
1.110459433040078
1.10752688172043
1.104594330400782
1.1016617790811338
1.0987292277614855
1.0957966764418376
1.0928641251221896
1.0899315738025417
1.0869990224828934
1.0840664711632453
1.0811339198435972
1.0811339198435972
1.083088954056696
1.0821114369501466
1.0811339198435972
1.0801564027370478
1.078201368523949
1.0762463343108504
1.0733137829912025
1.0703812316715542
1.067448680351906
1.064516129032258
1.06158357771261
1.0586510263929618
1.0586510263929618
1.06158357771261
1.064516129032258
1.0684261974584557
1.0742913000977516
1.0869990224828934
1.1114369501466277
1.152492668621701
1.2140762463343109
1.300097751710655
1.4105571847507332
1.542521994134897
1.6695992179863148
1.796676441837732
1.945259042033236
2.102639296187683
2.2580645161290325
2.404692082111437
2.5376344086021505
2.654936461388074
2.7565982404692084
2.841642228739003
2.9120234604105573
2.970674486803519
3.0087976539589443
3.0332355816226784
3.0557184750733137
3.072336265884653
3.083088954056696
3.086021505376344
3.0821114369501466
3.072336265884653
3.0527859237536656
3.0234604105571847
2.983382209188661
2.932551319648094
2.870967741935484
2.806451612903226
2.739980449657869
2.6637341153470184
2.581622678396872
2.498533724340176
2.4173998044965788
2.340175953079179
2.269794721407625
2.207233626588465
2.1524926686217007
2.103616813294233
2.06158357771261
2.027370478983382
1.997067448680352
1.964809384164223
1.9315738025415443
1.8973607038123168
1.8641251221896384
1.8318670576735088
1.7976539589442817
1.7624633431085044
1.7272727272727273
1.6911045943304008
1.653958944281525
1.6158357771260996
1.5826001955034212
1.5513196480938416
1.5161290322580645
1.479960899315738
1.4428152492668622
1.4066471163245358
1.3724340175953078
1.3411534701857282
1.3118279569892473
1.2834799608993157
1.2570869990224829
1.2316715542521994
1.2121212121212122
1.1964809384164223
1.1788856304985338
1.1612903225806452
1.144672531769306
1.1280547409579669
1.1133919843597262
1.1016617790811338
1.0918866080156402
1.083088954056696
1.075268817204301
1.067448680351906
1.0586510263929618
1.053763440860215
1.050830889540567
1.0449657869012707
1.0371456500488758
1.0303030303030305
1.0234604105571847
1.0175953079178883
1.0117302052785924
1.0068426197458455
1.0039100684261977
1.0019550342130987
1.0009775171065494
1.002932551319648
1.0048875855327468
1.0048875855327468
1.0048875855327468
1.002932551319648
1.0019550342130987
1.0009775171065494
1.0009775171065494
1.0009775171065494
1.0009775171065494
1.0009775171065494
1.0009775171065494
1.0009775171065494
1.002932551319648
1.0048875855327468
1.0048875855327468
1.0048875855327468
1.0058651026392962
1.0097751710654936
1.021505376344086
1.04594330400782
1.088954056695992
1.155425219941349
1.2443792766373412
1.356793743890518
1.469208211143695
1.5826001955034212
1.715542521994135
1.86119257086999
2.0087976539589443
2.150537634408602
2.2825024437927666
2.40078201368524
2.5034213098729228
2.587487781036168
2.654936461388074
2.7096774193548385
2.7536656891495603
2.7810361681329425
2.7966764418377323
2.8103616813294234
2.819159335288368
2.822091886608016
2.8181818181818183
2.807429130009776
2.788856304985337
2.760508308895406
2.7233626588465296
2.67644183773216
2.622678396871945
2.567937438905181
2.5102639296187683
2.4457478005865103
2.3792766373411536
2.312805474095797
2.249266862170088
2.190615835777126
2.136852394916911
2.089931573802541
2.048875855327468
2.0127077223851417
1.9804496578690127
1.9521016617790807
1.927663734115347
1.906158357771261
1.8836754643206255
1.8592375366568916
1.833822091886608
1.8084066471163245
1.7810361681329423
1.750733137829912
1.7194525904203324
1.6871945259042034
1.6559139784946235
1.6256109481915937
1.598240469208211
1.5728250244379276
1.543499511241447
1.512218963831867
1.47702834799609
1.439882697947214
1.401759530791789
1.3626588465298142
1.3235581622678396
1.2854349951124144
1.249266862170088
1.2150537634408602
1.181818181818182
1.1564027370478984
1.1368523949169111
1.1163245356793745
1.0977517106549364
1.0811339198435972
1.067448680351906
1.0576735092864125
1.050830889540567
1.0478983382209188
1.04594330400782
1.04594330400782
1.0469208211143697
1.050830889540567
1.056695992179863
1.0606060606060606
1.064516129032258
1.0694037145650048
1.0742913000977516
1.0801564027370478
1.086021505376344
1.0928641251221896
1.1006842619745845
1.1085043988269794
1.1143695014662756
1.1202346041055715
1.1270772238514175
1.1329423264907137
1.1368523949169111
1.13880742913001
1.1397849462365592
1.1397849462365592
1.1397849462365592
1.1397849462365592
1.1397849462365592
1.13880742913001
1.1378299120234605
1.1358748778103618
1.1358748778103618
1.1368523949169111
1.1368523949169111
1.1378299120234605
1.1407624633431086
1.1505376344086022
1.1720430107526882
1.2082111436950147
1.2639296187683284
1.3421309872922775
1.4428152492668622
1.564027370478983
1.7008797653958945
1.827956989247312
1.951124144672532
2.09188660801564
2.236559139784946
2.376344086021505
2.504398826979472
2.618768328445748
2.716520039100684
2.798631476050831
2.866080156402737
2.919843597262952
2.961876832844575
2.9872922776148583
3.0009775171065494
3.0146627565982405
3.0234604105571847
3.0283479960899315
3.0283479960899315
3.021505376344086
3.005865102639296
2.981427174975562
2.945259042033236
2.8993157380254155
2.841642228739003
2.779081133919844
2.7126099706744866
2.635386119257087
2.552297165200391
2.4682306940371457
2.3870967741935485
2.3098729227761488
2.239491691104594
2.175953079178885
2.118279569892473
2.067448680351906
2.0234604105571847
1.9843597262952104
1.9530791788856303
1.9257086999022484
1.8983382209188664
1.8699902248289344
1.8406647116324533
1.8113391984359728
1.7820136852394917
1.7517106549364614
1.721407624633431
1.6901270772238517
1.6578690127077225
1.624633431085044
1.595307917888563
1.5679374389051808
1.5376344086021505
1.5063538611925709
1.4750733137829912
1.444770283479961
1.41544477028348
1.3870967741935485
1.3607038123167154
1.3362658846529814
1.3128054740957966
1.2903225806451613
1.2688172043010753
1.2531769305962854
1.2394916911045943
1.2238514173998043
1.2082111436950147
1.1935483870967742
1.1808406647116323
1.1700879765395895
1.1622678396871946
1.1544477028347997
1.147605083088954
1.1407624633431086
1.1329423264907137
1.1280547409579669
1.126099706744868
1.1221896383186705
1.1163245356793745
1.110459433040078
1.104594330400782
1.0987292277614855
1.0918866080156402
1.0850439882697946
1.078201368523949
1.0713587487781036
1.0654936461388074
1.0606060606060606
1.0576735092864125
1.056695992179863
1.053763440860215
1.0488758553274682
1.0449657869012707
1.0410557184750733
1.0391006842619743
1.0381231671554252
1.0371456500488758
1.0371456500488758
1.0371456500488758
1.0371456500488758
1.0391006842619743
1.0420332355816226
1.043010752688172
1.0420332355816226
1.0410557184750733
1.0410557184750733
1.0439882697947214
1.0547409579667644
1.0772238514173995
1.115347018572825
1.1730205278592376
1.2531769305962854
1.356793743890518
1.4613880742913
1.5718475073313782
1.7057673509286413
1.8514173998044965
2.0009775171065494
2.147605083088954
2.2854349951124147
2.409579667644184
2.517106549364614
2.608993157380254
2.6852394916911044
2.7468230694037143
2.787878787878788
2.8132942326490715
2.8367546432062563
2.857282502443793
2.8729227761485827
2.8836754643206257
2.8885630498533725
2.887585532746823
2.877810361681329
2.859237536656892
2.83088954056696
2.792766373411535
2.744868035190616
2.6930596285435
2.636363636363636
2.570869990224829
2.5004887585532747
2.4271749755620724
2.3548387096774195
2.2844574780058653
2.210166177908113
2.1378299120234603
2.0791788856304985
2.0303030303030303
1.988269794721408
1.9560117302052784
1.9296187683284456
1.9042033235581624
1.878787878787879
1.8533724340175952
1.8269794721407624
1.7996089931573802
1.7702834799608993
1.739980449657869
1.7086999022482894
1.6764418377321604
1.643206256109482
1.6099706744868034
1.5796676441837731
1.552297165200391
1.521994134897361
1.4897360703812317
1.4545454545454546
1.4193548387096775
1.3861192570869991
1.3548387096774193
1.3255131964809383
1.2981427174975562
1.2746823069403714
1.2531769305962854
1.2365591397849462
1.2238514173998043
1.209188660801564
1.1945259042033236
1.181818181818182
1.1700879765395895
1.1573802541544478
1.1456500488758554
1.1348973607038124
1.1231671554252198
1.1133919843597262
1.1065493646138806
1.1006842619745845
1.0987292277614855
1.0977517106549364
1.0957966764418376
1.093841642228739
1.0918866080156402
1.0909090909090908
1.0899315738025417
1.0879765395894427
1.0869990224828934
1.0869990224828934
1.0850439882697946
1.083088954056696
1.083088954056696
1.0840664711632453
1.0821114369501466
1.0801564027370478
1.078201368523949
1.075268817204301
1.0733137829912025
1.072336265884653
1.072336265884653
1.072336265884653
1.072336265884653
1.072336265884653
1.072336265884653
1.0742913000977516
1.0762463343108504
1.0762463343108504
1.0762463343108504
1.0772238514173995
1.0811339198435972
1.0909090909090908
1.1114369501466277
1.1466275659824048
1.2013685239491692
1.2776148582600195
1.3773216031280548
1.478983382209189
1.587487781036168
1.7223851417399805
1.870967741935484
2.024437927663734
2.174975562072336
2.3167155425219943
2.443792766373412
2.555229716520039
2.6510263929618767
2.7311827956989245
2.7966764418377323
2.8406647116324537
2.8699902248289346
2.900293255131965
2.9266862170087977
2.948191593352884
2.964809384164223
2.9745845552297165
2.9775171065493646
2.972629521016618
2.959921798631476
2.93841642228739
2.9071358748778104
2.866080156402737
2.819159335288368
2.764418377321604
2.6989247311827955
2.624633431085044
2.544477028347996
2.4594330400782014
2.3743890518084068
2.291300097751711
2.2130987292277613
2.1417399804496577
2.075268817204301
2.016617790811339
1.9696969696969695
1.9296187683284456
1.8914956011730208
1.855327468230694
1.822091886608016
1.7917888563049853
1.7644183773216031
1.737047898338221
1.7096774193548387
1.6842619745845553
1.6578690127077225
1.6334310850439884
1.608993157380254
1.587487781036168
1.5669599217986314
1.542521994134897
1.5161290322580645
1.4897360703812317
1.4633431085043989
1.4379276637341154
1.4134897360703813
1.3919843597262953
1.3734115347018572
1.3577712609970674
1.3440860215053765
1.335288367546432
1.3264907135874875
1.313782991202346
1.2991202346041055
1.2834799608993157
1.2658846529814272
1.24633431085044
1.224828934506354
1.2023460410557183
1.1779081133919844
1.1505376344086022
1.121212121212121
1.0899315738025417
1.0635386119257086
1.040078201368524
1.0127077223851415
0.9843597262952102
0.9579667644183774
0.9345063538611924
0.9149560117302052
0.9002932551319648
0.8905180840664711
0.8856304985337243
0.8866080156402737
0.8914956011730205
0.9012707722385142
0.9149560117302052
0.9286412512218964
0.9442815249266864
0.9608993157380256
0.9775171065493646
0.9941348973607038
1.0087976539589445
1.0234604105571847
1.0361681329423265
1.04594330400782
1.053763440860215
1.0586510263929618
1.0625610948191593
1.0664711632453567
1.0654936461388074
1.0606060606060606
1.0518084066471165
1.043010752688172
1.0371456500488758
1.0391006842619743
1.0527859237536656
1.0840664711632453
1.1358748778103618
1.2101661779081134
1.2913000977517106
1.383186705767351
1.501466275659824
1.6363636363636365
1.7810361681329423
1.9286412512218964
2.071358748778104
2.2052785923753664
2.326490713587488
2.4330400782013686
2.52297165200391
2.5972629521016617
2.656891495601173
2.6959921798631474
2.720430107526881
2.742913000977517
2.7614858260019552
2.774193548387097
2.7810361681329425
2.782013685239492
2.7751710654936463
2.7614858260019552
2.7390029325513194
2.70772238514174
2.668621700879765
2.625610948191593
2.5777126099706744
2.5210166177908118
2.4574780058651027
2.389051808406647
2.3167155425219943
2.244379276637341
2.174975562072336
2.110459433040078
2.053763440860215
2.003910068426197
1.9618768328445748
1.9266862170087975
1.8973607038123168
1.873900293255132
1.8514173998044965
1.828934506353861
1.8054740957966764
1.7820136852394917
1.7575757575757576
1.7331378299120237
1.7067448680351909
1.6793743890518085
1.6500488758553276
1.619745845552297
1.5933528836754642
1.5669599217986314
1.5366568914956011
1.504398826979472
1.4721407624633431
1.439882697947214
1.4076246334310851
1.3773216031280548
1.348973607038123
1.3206256109481915
1.2932551319648091
1.2688172043010753
1.24633431085044
1.2287390029325511
1.241446725317693
1.2658846529814272
1.270772238514174
1.2668621700879763
1.260019550342131
1.2512218963831867
1.241446725317693
1.2326490713587488
1.2258064516129032
1.219941348973607
1.2140762463343109
1.2111436950146628
1.209188660801564
1.2052785923753666
1.2013685239491692
1.1974584555229717
1.1945259042033236
1.1915933528836755
1.1867057673509287
1.1827956989247312
1.1798631476050832
1.176930596285435
1.173998044965787
1.1710654936461389
1.1710654936461389
1.1720430107526882
1.1710654936461389
1.1681329423264908
1.164222873900293
1.160312805474096
1.155425219941349
1.1515151515151516
1.1485826001955035
1.1456500488758554
1.142717497556207
1.1397849462365592
1.13880742913001
1.13880742913001
1.1358748778103618
1.130987292277615
1.1270772238514175
1.1251221896383188
1.1251221896383188
1.130987292277615
1.1466275659824048
1.1759530791788857
1.219941348973607
1.2834799608993157
1.3665689149560116
1.452590420332356
1.5464320625610948
1.6637341153470186
1.7956989247311828
1.9364613880742916
2.078201368523949
2.2140762463343107
2.3391984359726297
2.4516129032258065
2.5513196480938416
2.638318670576735
2.713587487781036
2.7673509286412514
2.807429130009776
2.8484848484848486
2.8856304985337244
2.918866080156403
2.946236559139785
2.9687194525904204
2.986314760508309
2.9980449657869013
3.003910068426197
3.0019550342130987
2.9902248289345064
2.9687194525904204
2.9393939393939394
2.9012707722385143
2.852394916911046
2.7947214076246336
2.730205278592375
2.6608015640273703
2.5884652981427174
2.515151515151515
2.442815249266862
2.3734115347018574
2.30791788856305
2.2482893450635384
2.198435972629521
2.155425219941349
2.114369501466276
2.0762463343108504
2.042033235581622
2.0097751710654936
1.9794721407624636
1.951124144672532
1.9227761485826005
1.89247311827957
1.8621700879765395
1.8318670576735088
1.8035190615835777
1.7761485826001957
1.7448680351906158
1.710654936461388
1.6744868035190617
1.6373411534701858
1.6011730205278591
1.5669599217986314
1.5347018572825024
1.5034213098729228
1.4731182795698925
1.4437927663734116
1.41544477028348
1.392961876832845
1.3743890518084063
1.3528836754643203
1.3313782991202343
1.3118279569892473
1.2942326490713587
1.2776148582600195
1.2609970674486803
1.2453567937438903
1.2297165200391007
1.2150537634408602
1.203323558162268
1.1964809384164223
1.1925708699902249
1.1867057673509287
1.1798631476050832
1.1730205278592376
1.1652003910068427
1.1564027370478984
1.1466275659824048
1.1368523949169111
1.1280547409579669
1.121212121212121
1.1133919843597262
1.1065493646138806
1.1036168132942326
1.1026392961876832
1.099706744868035
1.0957966764418376
1.0909090909090908
1.0869990224828934
1.083088954056696
1.078201368523949
1.0733137829912025
1.0684261974584557
1.0635386119257086
1.0576735092864125
1.0557184750733135
1.0557184750733135
1.0527859237536656
1.0488758553274682
1.0449657869012707
1.0420332355816226
1.040078201368524
1.0391006842619743
1.0410557184750733
1.0488758553274682
1.0664711632453567
1.0977517106549364
1.1466275659824048
1.2043010752688172
1.2746823069403714
1.370478983382209
1.4868035190615836
1.6177908113391983
1.758553274682307
1.9042033235581624
2.046920821114369
2.182795698924731
2.3088954056695994
2.421309872922776
2.5180840664711632
2.5884652981427174
2.641251221896383
2.6911045943304006
2.735092864125122
2.76930596285435
2.7947214076246336
2.8132942326490715
2.825024437927664
2.831867057673509
2.832844574780059
2.827956989247312
2.81622678396872
2.7966764418377323
2.76930596285435
2.7341153470185726
2.6901270772238512
2.6373411534701856
2.576735092864125
2.5112414467253177
2.441837732160313
2.3714565004887587
2.303030303030303
2.2385141739980448
2.1788856304985336
2.1251221896383186
2.081133919843597
2.0439882697947214
2.0097751710654936
1.978494623655914
1.9501466275659824
1.9237536656891496
1.8983382209188664
1.873900293255132
1.8484848484848484
1.822091886608016
1.7956989247311828
1.7683284457478006
1.739980449657869
1.715542521994135
1.6920821114369502
1.6637341153470186
1.6334310850439884
1.603128054740958
1.5718475073313782
1.5386119257087
1.5063538611925709
1.4760508308895406
1.4467253176930597
1.418377321603128
1.391006842619746
1.3695014662756595
1.3519061583577712
1.332355816226784
1.3128054740957966
1.2942326490713587
1.2776148582600195
1.2639296187683284
1.252199413489736
1.2404692082111437
1.23069403714565
1.2209188660801564
1.2130987292277615
1.2072336265884651
1.2043010752688172
1.203323558162268
1.2013685239491692
1.1994134897360704
1.1964809384164223
1.1945259042033236
1.1935483870967742
1.1915933528836755
1.1896383186705768
1.1886608015640274
1.1886608015640274
1.1886608015640274
1.1906158357771262
1.1945259042033236
1.195503421309873
1.1964809384164223
1.1964809384164223
1.1964809384164223
1.1974584555229717
1.1994134897360704
1.1925708699902249
1.1808406647116323
1.1749755620723363
1.1710654936461389
1.1681329423264908
1.1671554252199414
1.1671554252199414
1.166177908113392
1.164222873900293
1.1622678396871946
1.1622678396871946
1.164222873900293
1.1700879765395895
1.1827956989247312
1.2072336265884651
1.2473118279569892
1.3079178885630498
1.3763440860215057
1.456500488758553
1.563049853372434
1.689149560117302
1.827956989247312
1.9745845552297163
2.121212121212121
2.26197458455523
2.393939393939394
2.512218963831867
2.6158357771261
2.702834799608993
2.7751710654936463
2.8260019550342133
2.86217008797654
2.8963831867057674
2.9257086999022484
2.948191593352884
2.964809384164223
2.975562072336266
2.9804496578690127
2.978494623655914
2.9687194525904204
2.951124144672532
2.9237536656891496
2.887585532746823
2.844574780058651
2.791788856304985
2.730205278592375
2.66177908113392
2.589442815249267
2.5131964809384164
2.4359726295210167
2.361681329423265
2.29227761485826
2.228739002932551
2.172043010752688
2.1251221896383186
2.086021505376344
2.0498533724340176
2.016617790811339
1.9853372434017595
1.9550342130987293
1.9257086999022484
1.8983382209188664
1.870967741935484
1.842619745845552
1.8132942326490715
1.782991202346041
1.750733137829912
1.721407624633431
1.694037145650049
1.6637341153470186
1.6314760508308896
1.5992179863147604
1.565982404692082
1.533724340175953
1.501466275659824
1.469208211143695
1.4389051808406648
1.409579667644184
1.3812316715542523
1.3587487781036167
1.3391984359726294
1.3176930596285434
1.2961876832844574
1.2776148582600195
1.260019550342131
1.2443792766373412
1.2297165200391007
1.2160312805474096
1.2043010752688172
1.1925708699902249
1.1827956989247312
1.173998044965787
1.1691104594330402
1.166177908113392
1.1612903225806452
1.1573802541544478
1.152492668621701
1.1466275659824048
1.1397849462365592
1.1329423264907137
1.1251221896383188
1.1173020527859236
1.110459433040078
1.1055718475073313
1.104594330400782
1.1055718475073313
1.104594330400782
1.1026392961876832
1.1006842619745845
1.0987292277614855
1.0948191593352885
1.0909090909090908
1.0879765395894427
1.0850439882697946
1.083088954056696
1.0821114369501466
1.0821114369501466
1.0840664711632453
1.086021505376344
1.0869990224828934
1.0869990224828934
1.0869990224828934
1.0869990224828934
1.0869990224828934
1.0869990224828934
1.0899315738025417
1.099706744868035
1.1221896383186705
1.160312805474096
1.2082111436950147
1.270772238514174
1.3587487781036167
1.4701857282502444
1.5992179863147604
1.7419354838709675
1.8914956011730208
2.042033235581622
2.1867057673509285
2.321603128054741
2.444770283479961
2.552297165200391
2.644183773216031
2.7096774193548385
2.758553274682307
2.8054740957966766
2.8455522971652005
2.878787878787879
2.906158357771261
2.927663734115347
2.9442815249266863
2.95405669599218
2.9579667644183774
2.95405669599218
2.941348973607038
2.918866080156403
2.886608015640274
2.84652981427175
