ppg
2.3391984359726297
2.26197458455523
2.1788856304985336
2.089931573802541
1.994134897360704
1.8934506353861196
1.8025415444770283
1.7174975562072337
1.624633431085044
1.5327468230694037
1.4467253176930597
1.370478983382209
1.3069403714565004
1.2561094819159335
1.2179863147605083
1.1906158357771262
1.1730205278592376
1.1622678396871946
1.1573802541544478
1.1573802541544478
1.160312805474096
1.163245356793744
1.1671554252199414
1.1710654936461389
1.173998044965787
1.176930596285435
1.1798631476050832
1.1827956989247312
1.18475073313783
1.1857282502443791
1.1906158357771262
1.1994134897360704
1.206256109481916
1.2101661779081134
1.2111436950146628
1.2121212121212122
1.2111436950146628
1.2101661779081134
1.2101661779081134
1.2101661779081134
1.2121212121212122
1.2140762463343109
1.2160312805474096
1.2189638318670577
1.2218963831867058
1.224828934506354
1.2258064516129032
1.224828934506354
1.2238514173998043
1.2228739002932552
1.2218963831867058
1.2218963831867058
1.2218963831867058
1.2218963831867058
1.2218963831867058
1.219941348973607
1.219941348973607
1.2189638318670577
1.2150537634408602
1.209188660801564
1.2043010752688172
1.2082111436950147
1.2267839687194526
1.2688172043010753
1.3421309872922775
1.4496578690127078
1.5884652981427174
1.7546432062561097
1.9364613880742916
2.0977517106549364
2.242424242424242
2.3949169110459434
2.535679374389052
2.6529814271749754
2.7438905180840663
2.807429130009776
2.844574780058651
2.8582600195503423
2.850439882697948
2.8269794721407626
2.790811339198436
2.747800586510264
2.7008797653958942
2.6471163245356792
2.589442815249267
2.5288367546432062
2.4682306940371457
2.4056695992179864
2.3421309872922778
2.278592375366569
2.2140762463343107
2.1485826001955037
2.081133919843597
2.0087976539589443
1.9403714565004888
1.8699902248289344
1.7869012707722385
1.6950146627565983
1.598240469208211
1.501466275659824
1.4076246334310851
1.321603128054741
1.24633431085044
1.1837732160312806
1.1348973607038124
1.0987292277614855
1.078201368523949
1.067448680351906
1.06158357771261
1.06158357771261
1.0654936461388074
1.0733137829912025
1.0840664711632453
1.093841642228739
1.1016617790811338
1.10752688172043
1.1133919843597262
1.118279569892473
1.1221896383186705
1.1280547409579669
1.1329423264907137
1.1348973607038124
1.1358748778103618
1.1368523949169111
1.1368523949169111
1.1368523949169111
1.1378299120234605
1.1397849462365592
1.1436950146627567
1.1495601173020529
1.1573802541544478
1.166177908113392
1.1759530791788857
1.18475073313783
1.1925708699902249
1.2003910068426198
1.2072336265884651
1.2130987292277615
1.2179863147605083
1.2238514173998043
1.2287390029325511
1.2326490713587488
1.2365591397849462
1.2404692082111437
1.2453567937438903
1.2502443792766371
1.252199413489736
1.2512218963831867
1.2482893450635386
1.2424242424242424
1.2355816226783969
1.23069403714565
1.2326490713587488
1.2512218963831867
1.2932551319648091
1.3665689149560116
1.452590420332356
1.5562072336265884
1.696969696969697
1.8631476050830889
2.042033235581622
2.218963831867057
2.3822091886608017
2.5239491691104594
2.638318670576735
2.724340175953079
2.7810361681329425
2.8103616813294234
2.81622678396872
2.803519061583578
2.777126099706745
2.7390029325513194
2.6911045943304006
2.636363636363636
2.576735092864125
2.5141739980449658
2.449657869012708
2.3841642228739004
2.318670576735093
2.2531769305962857
2.1867057673509285
2.126099706744868
2.0684261974584555
2.002932551319648
1.9315738025415443
1.8543499511241448
1.772238514173998
1.6852394916911049
1.5933528836754642
1.500488758553275
1.4115347018572826
1.3294232649071358
1.2570869990224829
1.203323558162268
1.163245356793744
1.1270772238514175
1.0987292277614855
1.0791788856304985
1.0684261974584557
1.0635386119257086
1.064516129032258
1.0703812316715542
1.0801564027370478
1.0899315738025417
1.0987292277614855
1.1065493646138806
1.115347018572825
1.1231671554252198
1.1300097751710656
1.1358748778103618
1.141739980449658
1.1466275659824048
1.1515151515151516
1.155425219941349
1.160312805474096
1.1671554252199414
1.1749755620723363
1.18475073313783
1.1964809384164223
1.2082111436950147
1.2218963831867058
1.2375366568914956
1.2531769305962854
1.2688172043010753
1.284457478005865
1.2991202346041055
1.3128054740957966
1.324535679374389
1.335288367546432
1.3440860215053765
1.3519061583577712
1.3577712609970674
1.3626588465298142
1.3665689149560116
1.3695014662756595
1.370478983382209
1.3685239491691104
1.3616813294232648
1.3519061583577712
1.3391984359726294
1.3255131964809383
1.316715542521994
1.3206256109481915
1.3372434017595307
1.3743890518084063
1.4437927663734116
1.5483870967741935
1.6852394916911049
1.8494623655913975
2.029325513196481
2.2140762463343107
2.391006842619746
2.5513196480938416
2.6881720430107525
2.7966764418377323
2.875855327468231
2.920821114369501
2.941348973607038
2.948191593352884
2.940371456500489
2.918866080156403
2.8856304985337244
2.843597262952102
2.792766373411535
2.736070381231672
2.675464320625611
2.6129032258064515
2.548387096774193
2.487781036168133
2.4281524926686218
2.364613880742913
2.2981427174975564
2.228739002932551
2.155425219941349
2.0772238514174
1.991202346041056
1.8983382209188664
1.8005865102639296
1.7008797653958945
1.6011730205278591
1.5053763440860215
1.4281524926686218
1.3636363636363635
1.3020527859237536
1.2482893450635386
1.2052785923753666
1.1583577712609971
1.1133919843597262
1.086021505376344
1.0694037145650048
1.06158357771261
1.0596285434995112
1.0606060606060606
1.0654936461388074
1.072336265884653
1.0772238514173995
1.0811339198435972
1.083088954056696
1.0840664711632453
1.083088954056696
1.0791788856304985
1.0762463343108504
1.0733137829912025
1.0703812316715542
1.0694037145650048
1.0684261974584557
1.0703812316715542
1.0733137829912025
1.0772238514173995
1.0821114369501466
1.0879765395894427
1.096774193548387
1.10752688172043
1.118279569892473
1.1290322580645162
1.13880742913001
1.1495601173020529
1.1612903225806452
1.1730205278592376
1.1857282502443791
1.198435972629521
1.2101661779081134
1.2218963831867058
1.2346041055718475
1.24633431085044
1.2580645161290325
1.2668621700879763
1.2717497556207231
1.2717497556207231
1.2668621700879763
1.2609970674486803
1.260019550342131
1.2697947214076246
1.2971652003910068
1.3519061583577712
1.4389051808406648
1.5610948191593352
1.7145650048875856
1.8914956011730208
2.078201368523949
2.2629521016617797
2.4330400782013686
2.578690127077224
2.684261974584555
2.757575757575758
2.81622678396872
2.8533724340175954
2.870967741935484
2.8699902248289346
2.852394916911046
2.822091886608016
2.782013685239492
2.7341153470185726
2.679374389051808
2.621700879765396
2.5610948191593352
2.5034213098729228
2.4457478005865103
2.3841642228739004
2.320625610948192
2.2551319648093844
2.187683284457478
2.117302052785924
2.043010752688172
1.9618768328445748
1.873900293255132
1.780058651026393
1.6813294232649072
1.5933528836754642
1.512218963831867
1.423264907135875
1.3362658846529814
1.2570869990224829
1.1886608015640274
1.1319648093841643
1.0869990224828934
1.0547409579667644
1.032258064516129
1.018572825024438
1.0117302052785924
1.0097751710654936
1.013685239491691
1.0205278592375366
1.0263929618768328
1.0303030303030305
1.0332355816226784
1.0361681329423265
1.0361681329423265
1.035190615835777
1.0332355816226784
1.0312805474095796
1.0283479960899315
1.0234604105571847
1.0205278592375366
1.0205278592375366
1.0175953079178883
1.013685239491691
1.010752688172043
1.007820136852395
1.0058651026392962
1.0048875855327468
1.0058651026392962
1.0087976539589445
1.0146627565982405
1.0205278592375366
1.0263929618768328
1.0342130987292275
1.0420332355816226
1.0478983382209188
1.050830889540567
1.0527859237536656
1.0557184750733135
1.0586510263929618
1.0635386119257086
1.0684261974584557
1.0733137829912025
1.0772238514173995
1.0791788856304985
1.0821114369501466
1.086021505376344
1.0879765395894427
1.093841642228739
1.110459433040078
1.1456500488758554
1.2082111436950147
1.3049853372434017
1.436950146627566
1.6001955034213098
1.7878787878787878
1.9872922776148585
2.1593352883675463
2.3088954056695994
2.4594330400782014
2.593352883675464
2.701857282502444
2.7810361681329425
2.83088954056696
2.855327468230694
2.8563049853372435
2.838709677419355
2.8044965786901277
2.758553274682307
2.704789833822092
2.649071358748778
2.591397849462365
2.527859237536657
2.462365591397849
2.3949169110459434
2.326490713587488
2.257086999022483
2.1867057673509285
2.114369501466276
2.038123167155425
1.9579667644183771
1.8729227761485825
1.793743890518084
1.7165200391006843
1.6285434995112416
1.5356793743890518
1.444770283479961
1.359726295210166
1.2834799608993157
1.219941348973607
1.1700879765395895
1.1329423264907137
1.10752688172043
1.0918866080156402
1.0850439882697946
1.0869990224828934
1.0948191593352885
1.1065493646138806
1.121212121212121
1.1358748778103618
1.1495601173020529
1.163245356793744
1.1759530791788857
1.187683284457478
1.1974584555229717
1.2052785923753666
1.2121212121212122
1.2189638318670577
1.2258064516129032
1.2316715542521994
1.2375366568914956
1.2434017595307918
1.2482893450635386
1.2541544477028348
1.2609970674486803
1.2688172043010753
1.2766373411534702
1.284457478005865
1.2903225806451613
1.295210166177908
1.2981427174975562
1.2991202346041055
1.2991202346041055
1.2991202346041055
1.2991202346041055
1.2991202346041055
1.2981427174975562
1.2971652003910068
1.295210166177908
1.29227761485826
1.289345063538612
1.2854349951124144
1.281524926686217
1.2766373411534702
1.2668621700879763
1.2531769305962854
1.2394916911045943
1.2316715542521994
1.2355816226783969
1.260019550342131
1.313782991202346
1.4007820136852396
1.52297165200391
1.6774193548387095
1.855327468230694
2.016617790811339
2.166177908113392
2.3274682306940373
2.479960899315738
2.611925708699902
2.716520039100684
2.792766373411535
2.8406647116324537
2.8641251221896384
2.8670576735092865
2.8514173998044967
2.8211143695014664
2.782991202346041
2.7370478983382207
2.684261974584555
2.625610948191593
2.563049853372434
2.4975562072336266
2.43108504398827
2.363636363636364
2.2952101661779083
2.2267839687194524
2.156402737047898
2.083088954056696
2.0175953079178885
1.963831867057673
1.8993157380254155
1.8142717497556209
1.7174975562072337
1.6138807429130009
1.5063538611925709
1.4007820136852396
1.3020527859237536
1.2150537634408602
1.141739980449658
1.0821114369501466
1.035190615835777
1.0048875855327468
0.9863147605083088
0.9716520039100685
0.9638318670576737
0.9608993157380256
0.9618768328445748
0.9657869012707724
0.9716520039100685
0.9775171065493646
0.9824046920821116
0.9863147605083088
0.9902248289345064
0.9921798631476052
0.9941348973607038
0.997067448680352
0.9990224828934506
0.9990224828934506
0.997067448680352
0.9960899315738024
0.9960899315738024
0.997067448680352
0.9990224828934506
1.002932551319648
1.010752688172043
1.0205278592375366
1.032258064516129
1.04594330400782
1.06158357771261
1.078201368523949
1.0948191593352885
1.1114369501466277
1.1290322580645162
1.1466275659824048
1.1652003910068427
1.1827956989247312
1.1994134897360704
1.2140762463343109
1.2267839687194526
1.2365591397849462
1.2443792766373412
1.2473118279569892
1.2453567937438903
1.2394916911045943
1.2336265884652982
1.2316715542521994
1.2394916911045943
1.267839687194526
1.3255131964809383
1.418377321603128
1.5483870967741935
1.6852394916911049
1.833822091886608
2.016617790811339
2.2130987292277613
2.4056695992179864
2.579667644183773
2.727272727272727
2.844574780058651
2.929618768328446
2.98435972629521
3.0117302052785924
3.0146627565982405
2.997067448680352
2.964809384164223
2.9237536656891496
2.873900293255132
2.81622678396872
2.752688172043011
2.6852394916911044
2.616813294232649
2.548387096774193
2.4789833822091887
2.4086021505376345
2.337243401759531
2.2629521016617797
2.193548387096774
2.1251221896383186
2.0449657869012707
1.9560117302052784
1.858260019550342
1.75366568914956
1.6451612903225807
1.5376344086021505
1.4330400782013686
1.335288367546432
1.2482893450635386
1.173998044965787
1.1124144672531768
1.0703812316715542
1.043010752688172
1.018572825024438
1.0
0.9863147605083088
0.9775171065493646
0.9736070381231672
0.9736070381231672
0.9745845552297164
0.9765395894428152
0.9794721407624634
0.9804496578690128
0.9824046920821116
0.9853372434017597
0.9853372434017597
0.9833822091886608
0.9794721407624634
0.9745845552297164
0.9696969696969696
0.9657869012707724
0.9628543499511242
0.9618768328445748
0.9628543499511242
0.9648093841642228
0.9696969696969696
0.9775171065493646
0.9853372434017597
0.9931573802541545
1.0019550342130987
1.010752688172043
1.0195503421309873
1.0273704789833822
1.0361681329423265
1.0449657869012707
1.053763440860215
1.064516129032258
1.075268817204301
1.0879765395894427
1.1016617790811338
1.1163245356793745
1.1290322580645162
1.13880742913001
1.1456500488758554
1.1495601173020529
1.1515151515151516
1.1544477028347997
1.164222873900293
1.1886608015640274
1.2365591397849462
1.2991202346041055
1.3851417399804498
1.5141739980449658
1.6803519061583578
1.873900293255132
2.0821114369501466
2.290322580645161
2.4858260019550342
2.658846529814272
2.8025415444770285
2.913000977517106
2.9902248289345064
3.0361681329423265
3.0527859237536656
3.047898338220919
3.029325513196481
2.99902248289345
2.9579667644183774
2.9071358748778104
2.8484848484848486
2.78494623655914
2.718475073313783
2.650048875855328
2.5806451612903225
2.509286412512219
2.442815249266862
2.378299120234604
2.30791788856305
2.23069403714565
2.146627565982405
2.0547409579667644
1.9560117302052784
1.8523949169110456
1.7448680351906158
1.640273704789834
1.542521994134897
1.4545454545454546
1.3763440860215057
1.3176930596285434
1.2746823069403714
1.2375366568914956
1.2072336265884651
1.1867057673509287
1.173998044965787
1.1681329423264908
1.1681329423264908
1.1720430107526882
1.1779081133919844
1.1857282502443791
1.1925708699902249
1.198435972629521
1.2043010752688172
1.2082111436950147
1.2121212121212122
1.2150537634408602
1.2160312805474096
1.217008797653959
1.2179863147605083
1.219941348973607
1.2218963831867058
1.224828934506354
1.2287390029325511
1.2326490713587488
1.238514173998045
1.2453567937438903
1.2512218963831867
1.2570869990224829
1.262952101661779
1.2688172043010753
1.2746823069403714
1.2795698924731185
1.2825024437927663
1.284457478005865
1.2854349951124144
1.2854349951124144
1.2873900293255132
1.289345063538612
1.2903225806451613
1.2913000977517106
1.2913000977517106
1.2903225806451613
1.2883675464320623
1.2834799608993157
1.2756598240469208
1.2649071358748778
1.2531769305962854
1.24633431085044
1.252199413489736
1.2727272727272727
1.3147605083088951
1.3919843597262953
1.5073313782991202
1.656891495601173
1.8347996089931573
2.0283479960899315
2.2238514173998043
2.4086021505376345
2.572825024437928
2.70772238514174
2.812316715542522
2.877810361681329
2.913000977517106
2.9335288367546437
2.935483870967742
2.920821114369501
2.89247311827957
2.834799608993157
2.7614858260019552
2.6940371456500487
2.627565982404692
2.5620723362658846
2.496578690127077
2.43108504398827
2.3714565004887587
2.315738025415445
2.257086999022483
2.1945259042033234
2.1270772238514173
2.0547409579667644
1.9775171065493649
1.8934506353861196
1.8035190615835777
1.7096774193548387
1.6138807429130009
1.5190615835777126
1.4389051808406648
1.370478983382209
1.3010752688172045
1.238514173998045
1.1867057673509287
1.144672531769306
1.1124144672531768
1.0909090909090908
1.0791788856304985
1.0742913000977516
1.075268817204301
1.0801564027370478
1.086021505376344
1.0928641251221896
1.1006842619745845
1.1065493646138806
1.1124144672531768
1.118279569892473
1.1221896383186705
1.1251221896383188
1.1270772238514175
1.1280547409579669
1.1290322580645162
1.1290322580645162
1.1300097751710656
1.1329423264907137
1.13880742913001
1.1456500488758554
1.1544477028347997
1.164222873900293
1.1759530791788857
1.187683284457478
1.1994134897360704
1.209188660801564
1.2189638318670577
1.2287390029325511
1.238514173998045
1.2482893450635386
1.2580645161290325
1.2688172043010753
1.278592375366569
1.2873900293255132
1.2961876832844574
1.3040078201368523
1.3098729227761483
1.3128054740957966
1.3118279569892473
1.3049853372434017
1.29227761485826
1.2756598240469208
1.262952101661779
1.2551319648093842
1.2541544477028348
1.2688172043010753
1.310850439882698
1.3870967741935485
1.498533724340176
1.643206256109482
1.8132942326490715
1.9980449657869013
2.1837732160312804
2.356793743890518
2.490713587487781
2.593352883675464
2.684261974584555
2.752688172043011
2.7976539589442817
2.819159335288368
2.8211143695014664
2.8054740957966766
2.776148582600196
2.736070381231672
2.687194525904203
2.631476050830889
2.570869990224829
2.5131964809384164
2.4565004887585533
2.3949169110459434
2.332355816226784
2.269794721407625
2.2052785923753664
2.136852394916911
2.064516129032258
1.9872922776148585
1.903225806451613
1.8113391984359728
1.7145650048875856
1.6285434995112416
1.5483870967741935
1.4604105571847508
1.3734115347018572
1.29227761485826
1.2209188660801564
1.160312805474096
1.1114369501466277
1.0733137829912025
1.0449657869012707
1.0263929618768328
1.0166177908113392
1.0117302052785924
1.013685239491691
1.0195503421309873
1.0263929618768328
1.0342130987292275
1.0410557184750733
1.0478983382209188
1.0527859237536656
1.056695992179863
1.0596285434995112
1.0596285434995112
1.0586510263929618
1.056695992179863
1.0576735092864125
1.0586510263929618
1.0586510263929618
1.056695992179863
1.0557184750733135
1.0557184750733135
1.0586510263929618
1.064516129032258
1.0733137829912025
1.0840664711632453
1.0948191593352885
1.1065493646138806
1.118279569892473
1.130987292277615
1.1436950146627567
1.155425219941349
1.166177908113392
1.176930596285435
1.187683284457478
1.1994134897360704
1.2121212121212122
1.224828934506354
1.2375366568914956
1.249266862170088
1.2590420332355816
1.2668621700879763
1.273704789833822
1.2776148582600195
1.2805474095796676
1.2864125122189638
1.2991202346041055
1.3255131964809383
1.3743890518084063
1.4506353861192571
1.560117302052786
1.7018572825024438
1.870967741935484
2.056695992179863
2.2218963831867056
2.3714565004887587
2.529814271749756
2.67644183773216
2.801564027370479
2.898338220918866
2.9667644183773216
3.0087976539589443
3.026392961876833
3.0234604105571847
3.002932551319648
2.9696969696969697
2.927663734115347
2.878787878787879
2.823069403714565
2.7624633431085046
2.696969696969697
2.6285434995112413
2.558162267839687
2.486803519061584
2.41544477028348
2.3421309872922778
2.2668621700879767
2.187683284457478
2.103616813294233
2.024437927663734
1.946236559139785
1.855327468230694
1.758553274682307
1.6608015640273706
1.565982404692082
1.47702834799609
1.3978494623655917
1.0918866080156402
1.096774193548387
1.1026392961876832
1.1094819159335287
1.1163245356793745
1.1241446725317692
1.1319648093841643
1.141739980449658
1.1505376344086022
1.1593352883675463
1.1671554252199414
1.1730205278592376
1.176930596285435
1.1798631476050832
1.181818181818182
1.18475073313783
1.1886608015640274
1.2003910068426198
1.2267839687194526
1.2776148582600195
1.3587487781036167
1.474095796676442
1.6217008797653958
1.7947214076246334
1.9833822091886608
2.1739980449657867
2.355816226783969
2.498533724340176
2.610948191593353
2.7126099706744866
2.793743890518084
2.849462365591398
2.8807429130009776
2.8905180840664717
2.881720430107527
2.857282502443793
2.8211143695014664
2.7751710654936463
2.721407624633431
2.6666666666666665
2.610948191593353
2.549364613880743
2.484848484848485
2.419354838709677
2.3548387096774195
2.29227761485826
2.2277614858260018
2.160312805474096
2.088954056695992
2.0127077223851417
1.9305962854349952
1.8435972629521016
1.7634408602150538
1.689149560117302
1.606060606060606
1.517106549364614
1.4281524926686218
1.3450635386119256
1.2727272727272727
1.2130987292277615
1.164222873900293
1.126099706744868
1.0977517106549364
1.0801564027370478
1.072336265884653
1.0703812316715542
1.0713587487781036
1.0733137829912025
1.0772238514173995
1.083088954056696
1.088954056695992
1.0957966764418376
1.1036168132942326
1.110459433040078
1.1163245356793745
1.121212121212121
1.1241446725317692
1.1280547409579669
1.1319648093841643
1.133919843597263
1.1348973607038124
1.1348973607038124
1.1348973607038124
1.1358748778103618
1.1378299120234605
1.141739980449658
1.1466275659824048
1.1515151515151516
1.1544477028347997
1.1593352883675463
1.163245356793744
1.1652003910068427
1.1652003910068427
1.164222873900293
1.1622678396871946
1.1612903225806452
1.160312805474096
1.160312805474096
1.1622678396871946
1.164222873900293
1.166177908113392
1.166177908113392
1.1671554252199414
1.1681329423264908
1.166177908113392
1.1612903225806452
1.1583577712609971
1.1593352883675463
1.1730205278592376
1.2072336265884651
1.2688172043010753
1.3626588465298142
1.490713587487781
1.6490713587487782
1.8025415444770283
1.9550342130987293
2.1300097751710654
2.3059628543499517
2.4682306940371457
2.6050830889540566
2.7126099706744866
2.790811339198436
2.8396871945259043
2.863147605083089
2.863147605083089
2.844574780058651
2.8103616813294234
2.766373411534702
2.716520039100684
2.658846529814272
2.595307917888563
2.5268817204301075
2.4565004887585533
2.3851417399804498
2.313782991202346
2.242424242424242
2.1710654936461387
2.0987292277614857
2.0234604105571847
1.95405669599218
1.8856304985337244
1.8035190615835777
1.7135874877810362
1.6187683284457477
1.521994134897361
1.4291300097751711
1.343108504398827
1.2688172043010753
1.2072336265884651
1.1593352883675463
1.126099706744868
1.1055718475073313
1.0977517106549364
1.0987292277614855
1.1036168132942326
1.1124144672531768
1.1251221896383188
1.13880742913001
1.1534701857282503
1.1691104594330402
1.18475073313783
1.2003910068426198
1.2150537634408602
1.227761485826002
1.2394916911045943
1.2512218963831867
1.2619745845552297
1.270772238514174
1.278592375366569
1.2883675464320623
1.2981427174975562
1.3079178885630498
1.3157380254154447
1.321603128054741
1.3264907135874875
1.3304007820136852
1.3333333333333333
1.3372434017595307
1.3401759530791788
1.3401759530791788
1.33822091886608
1.3362658846529814
1.3333333333333333
1.3304007820136852
1.3264907135874875
1.324535679374389
1.321603128054741
1.3196480938416422
1.3186705767350928
1.3186705767350928
1.3176930596285434
1.3147605083088951
1.3088954056695992
1.2991202346041055
1.2854349951124144
1.2688172043010753
1.2551319648093842
1.2502443792766371
1.2619745845552297
1.3010752688172045
1.3714565004887584
1.478005865102639
1.5933528836754642
1.7233626588465298
1.8905180840664717
2.074291300097752
2.260019550342131
2.4330400782013686
2.58455522971652
2.7096774193548385
2.8044965786901277
2.8690127077223853
2.9071358748778104
2.920821114369501
2.913978494623656
2.89247311827957
2.860215053763441
2.8181818181818183
2.766373411534702
2.7067448680351904
2.6422287390029324
2.575757575757576
2.50733137829912
2.439882697947214
2.3714565004887587
2.302052785923754
2.2385141739980448
2.176930596285435
2.10752688172043
2.0303030303030303
1.945259042033236
1.855327468230694
1.7595307917888563
1.6598240469208212
1.5581622678396871
1.457478005865103
1.3616813294232648
1.273704789833822
1.195503421309873
1.1368523949169111
1.093841642228739
1.056695992179863
1.0263929618768328
1.0048875855327468
0.9912023460410556
0.9843597262952102
0.9824046920821116
0.9853372434017597
0.9902248289345064
0.9951124144672532
