ppg
1.3450635386119256
1.3186705767350928
1.2942326490713587
1.2717497556207231
1.2561094819159335
1.2443792766373412
1.23069403714565
1.2160312805474096
1.2013685239491692
1.187683284457478
1.173998044965787
1.1612903225806452
1.1485826001955035
1.1368523949169111
1.1251221896383188
1.115347018572825
1.1085043988269794
1.104594330400782
1.0987292277614855
1.0918866080156402
1.0850439882697946
1.0772238514173995
1.0703812316715542
1.064516129032258
1.0586510263929618
1.0527859237536656
1.0469208211143697
1.0410557184750733
1.035190615835777
1.0332355816226784
1.032258064516129
1.029325513196481
1.0254154447702837
1.0224828934506354
1.0195503421309873
1.0175953079178883
1.0156402737047898
1.013685239491691
1.010752688172043
1.0087976539589445
1.007820136852395
1.0097751710654936
1.0127077223851415
1.0127077223851415
1.0117302052785924
1.010752688172043
1.0097751710654936
1.0087976539589445
1.0087976539589445
1.0097751710654936
1.0146627565982405
1.0303030303030305
1.0606060606060606
1.110459433040078
1.1700879765395895
1.2453567937438903
1.3519061583577712
1.4838709677419355
1.6363636363636365
1.801564027370479
1.9696969696969695
2.132942326490713
2.2844574780058653
2.420332355816227
2.5376344086021505
2.633431085043988
2.7008797653958942
2.748778103616813
2.792766373411535
2.8289345063538613
2.8582600195503423
2.8836754643206257
2.905180840664712
2.9227761485826003
2.93841642228739
2.9501466275659824
2.956989247311828
2.956011730205278
2.946236559139785
2.927663734115347
2.900293255131965
2.8641251221896384
2.8181818181818183
2.7614858260019552
2.6940371456500487
2.6177908113391983
2.5347018572825024
2.447702834799609
2.361681329423265
2.2795698924731185
2.204301075268817
2.1417399804496577
2.088954056695992
2.040078201368524
1.9960899315738023
1.956989247311828
1.9237536656891496
1.8944281524926687
1.866080156402737
1.8377321603128052
1.8093841642228736
1.780058651026393
1.7487781036168133
1.7165200391006843
1.6871945259042034
1.6588465298142718
1.6275659824046922
1.595307917888563
1.5620723362658846
1.5298142717497556
1.4965786901270772
1.4643206256109482
1.4330400782013686
1.401759530791789
1.3724340175953078
1.3450635386119256
1.3235581622678396
1.305962854349951
1.2864125122189638
1.267839687194526
1.2502443792766371
1.2346041055718475
1.2209188660801564
1.2082111436950147
1.1964809384164223
1.1857282502443791
1.1749755620723363
1.1652003910068427
1.1583577712609971
1.152492668621701
1.144672531769306
1.1368523949169111
1.1290322580645162
1.1202346041055715
1.1114369501466277
1.1026392961876832
1.0948191593352885
1.086021505376344
1.078201368523949
1.0713587487781036
1.064516129032258
1.06158357771261
1.0606060606060606
1.0576735092864125
1.0527859237536656
1.0478983382209188
1.0439882697947214
1.0410557184750733
1.0381231671554252
1.0361681329423265
1.0342130987292275
1.032258064516129
1.0303030303030305
1.0312805474095796
1.0332355816226784
1.0332355816226784
1.032258064516129
1.0312805474095796
1.029325513196481
1.0273704789833822
1.0254154447702837
1.0234604105571847
1.0234604105571847
1.0273704789833822
1.0381231671554252
1.0606060606060606
1.0918866080156402
1.1358748778103618
1.2052785923753666
1.3010752688172045
1.4213098729227762
1.563049853372434
1.721407624633431
1.8875855327468232
2.053763440860215
2.2130987292277613
2.358748778103617
2.487781036168133
2.5835777126099706
2.654936461388074
2.721407624633431
2.7781036168132944
2.8260019550342133
2.865102639296188
2.897360703812317
2.924731182795699
2.9472140762463344
2.9657869012707723
2.979472140762464
2.988269794721408
2.991202346041056
2.9853372434017595
2.970674486803519
2.952101661779081
2.924731182795699
2.886608015640274
2.8377321603128056
2.777126099706745
2.7067448680351904
2.627565982404692
2.5434995112414467
2.455522971652004
2.36950146627566
2.294232649071359
2.2267839687194524
2.161290322580645
2.1006842619745845
2.046920821114369
2.0
1.959921798631476
1.9237536656891496
1.889540566959922
1.857282502443793
1.826001955034213
1.7956989247311828
1.7644183773216031
1.737047898338221
1.710654936461388
1.6813294232649072
1.6490713587487782
1.6148582600195502
1.5796676441837731
1.543499511241447
1.5083088954056696
1.474095796676442
1.4408602150537635
1.409579667644184
1.380254154447703
1.3577712609970674
1.33822091886608
1.316715542521994
1.2942326490713587
1.2727272727272727
1.252199413489736
1.2326490713587488
1.2140762463343109
1.1974584555229717
1.1827956989247312
1.1691104594330402
1.1564027370478984
1.1436950146627567
1.1358748778103618
1.130987292277615
1.1241446725317692
1.1173020527859236
1.1094819159335287
1.1016617790811338
1.0928641251221896
1.0821114369501466
1.072336265884653
1.0625610948191593
1.053763440860215
1.04594330400782
1.0420332355816226
1.0410557184750733
1.0371456500488758
1.0332355816226784
1.0303030303030305
1.0283479960899315
1.0263929618768328
1.021505376344086
1.0156402737047898
1.0097751710654936
1.0048875855327468
1.0009775171065494
0.9980449657869012
0.9990224828934506
1.0009775171065494
1.0019550342130987
1.0019550342130987
1.0019550342130987
1.0009775171065494
0.9990224828934506
0.997067448680352
0.9941348973607038
0.9921798631476052
0.9921798631476052
0.9951124144672532
1.0039100684261977
1.021505376344086
1.053763440860215
1.104594330400782
1.1779081133919844
1.2776148582600195
1.401759530791789
1.5464320625610948
1.7067448680351909
1.873900293255132
2.042033235581622
2.203323558162268
2.3519061583577714
2.4672531769305963
2.558162267839687
2.6451612903225805
2.721407624633431
2.78494623655914
2.8367546432062563
2.877810361681329
2.911045943304008
2.9393939393939394
2.961876832844575
2.981427174975562
2.997067448680352
3.002932551319648
3.0009775171065494
2.9980449657869013
2.989247311827957
2.973607038123167
2.948191593352884
2.913000977517106
2.866080156402737
2.807429130009776
2.73802541544477
2.659824046920821
2.573802541544477
2.4838709677419355
2.401759530791789
2.324535679374389
2.244379276637341
2.1681329423264906
2.0987292277614857
2.037145650048876
1.9843597262952104
1.9393939393939397
1.9012707722385145
1.868035190615836
1.8377321603128052
1.8093841642228736
1.7849462365591398
1.761485826001955
1.7360703812316716
1.7067448680351909
1.675464320625611
1.6422287390029326
1.607038123167155
1.5708699902248289
1.5347018572825024
1.499511241446725
1.4643206256109482
1.43108504398827
1.4056695992179864
1.383186705767351
1.356793743890518
1.3304007820136852
1.3040078201368523
1.278592375366569
1.2541544477028348
1.2316715542521994
1.2121212121212122
1.195503421309873
1.1808406647116323
1.1681329423264908
1.155425219941349
1.147605083088954
1.141739980449658
1.1319648093841643
1.1221896383186705
1.1114369501466277
1.099706744868035
1.088954056695992
1.0772238514173995
1.067448680351906
1.0596285434995112
1.0527859237536656
1.0469208211143697
1.0439882697947214
1.043010752688172
1.040078201368524
1.0361681329423265
1.0312805474095796
1.0254154447702837
1.0195503421309873
1.0146627565982405
1.0097751710654936
1.0048875855327468
1.0009775171065494
0.9990224828934506
0.9980449657869012
1.0
1.002932551319648
1.002932551319648
1.002932551319648
1.002932551319648
1.0019550342130987
0.9990224828934506
0.9960899315738024
0.9921798631476052
0.989247311827957
0.9863147605083088
0.9853372434017597
0.9872922776148584
0.9931573802541545
1.0019550342130987
1.0195503421309873
1.0518084066471165
1.1036168132942326
1.1779081133919844
1.2776148582600195
1.4027370478983383
1.5483870967741935
1.7086999022482894
1.878787878787879
2.047898338220919
2.188660801564027
2.30791788856305
2.4281524926686218
2.5376344086021505
2.631476050830889
2.708699902248289
2.771260997067449
2.822091886608016
2.863147605083089
2.8963831867057674
2.9227761485826003
2.945259042033236
2.956989247311828
2.961876832844575
2.9687194525904204
2.9745845552297165
2.975562072336266
2.9687194525904204
2.9530791788856305
2.927663734115347
2.8914956011730206
2.843597262952102
2.7839687194525906
2.713587487781036
2.635386119257087
2.5591397849462365
2.4838709677419355
2.401759530791789
2.318670576735093
2.2385141739980448
2.163245356793744
2.096774193548387
2.038123167155425
1.9872922776148585
1.943304007820137
1.906158357771261
1.873900293255132
1.8465298142717497
1.822091886608016
1.7956989247311828
1.7673509286412512
1.7390029325513197
1.7086999022482894
1.6764418377321604
1.643206256109482
1.608993157380254
1.573802541544477
1.5386119257087
1.5034213098729228
1.4682306940371457
1.439882697947214
1.414467253176931
1.3870967741935485
1.359726295210166
1.3333333333333333
1.3079178885630498
1.2834799608993157
1.2619745845552297
1.241446725317693
1.2238514173998043
1.2072336265884651
1.1915933528836755
1.181818181818182
1.173998044965787
1.164222873900293
1.1534701857282503
1.142717497556207
1.1319648093841643
1.1221896383186705
1.1114369501466277
1.1016617790811338
1.0928641251221896
1.0840664711632453
1.0762463343108504
1.0694037145650048
1.0654936461388074
1.0635386119257086
1.0596285434995112
1.0547409579667644
1.0498533724340176
1.0439882697947214
1.0391006842619743
1.0332355816226784
1.0273704789833822
1.021505376344086
1.0166177908113392
1.0117302052785924
1.010752688172043
1.0117302052785924
1.0117302052785924
1.010752688172043
1.0087976539589445
1.0068426197458455
1.0048875855327468
1.0039100684261977
1.002932551319648
1.0009775171065494
1.0
0.9990224828934506
0.9990224828934506
1.0009775171065494
1.0039100684261977
1.0048875855327468
1.007820136852395
1.0156402737047898
1.0342130987292275
1.0684261974584557
1.1231671554252198
1.2023460410557183
1.3079178885630498
1.4379276637341154
1.5884652981427174
1.7302052785923754
1.8670576735092863
2.0205278592375366
2.1739980449657867
2.3167155425219943
2.444770283479961
2.5532746823069403
2.6422287390029324
2.7126099706744866
2.7673509286412514
2.811339198435973
2.84652981427175
2.875855327468231
2.89345063538612
2.9042033235581624
2.916911045943304
2.9286412512218964
2.9374389051808407
2.941348973607038
2.93841642228739
2.927663734115347
2.90811339198436
2.878787878787879
2.838709677419355
2.7869012707722387
2.729227761485826
2.6666666666666665
2.592375366568915
2.5112414467253177
2.426197458455523
2.3421309872922778
2.26197458455523
2.187683284457478
2.121212121212121
2.0635386119257086
2.013685239491691
1.9716520039100685
1.9345063538611929
1.9042033235581624
1.878787878787879
1.8514173998044965
1.8240469208211143
1.7956989247311828
1.7663734115347018
1.7350928641251222
1.7018572825024438
1.667644183773216
1.6334310850439884
1.598240469208211
1.563049853372434
1.533724340175953
1.5073313782991202
1.478005865102639
1.447702834799609
1.4164222873900294
1.3861192570869991
1.356793743890518
1.3304007820136852
1.305962854349951
1.2834799608993157
1.2639296187683284
1.2473118279569892
1.2346041055718475
1.224828934506354
1.2130987292277615
1.2013685239491692
1.1896383186705768
1.1788856304985338
1.1691104594330402
1.1593352883675463
1.1495601173020529
1.13880742913001
1.1300097751710656
1.121212121212121
1.1124144672531768
1.1065493646138806
1.1026392961876832
1.096774193548387
1.0899315738025417
1.083088954056696
1.0762463343108504
1.0703812316715542
1.064516129032258
1.0586510263929618
1.0527859237536656
1.0469208211143697
1.0420332355816226
1.0410557184750733
1.0410557184750733
1.0391006842619743
1.0361681329423265
1.0332355816226784
1.0312805474095796
1.029325513196481
1.0273704789833822
1.0254154447702837
1.0234604105571847
1.021505376344086
1.0195503421309873
1.0175953079178883
1.018572825024438
1.021505376344086
1.021505376344086
1.0205278592375366
1.0195503421309873
1.021505376344086
1.0303030303030305
1.0498533724340176
1.0850439882697946
1.141739980449658
1.2228739002932552
1.3294232649071358
1.439882697947214
1.5581622678396871
1.7038123167155426
1.8631476050830889
2.027370478983382
2.1867057673509285
2.333333333333333
2.463343108504399
2.572825024437928
2.662756598240469
2.735092864125122
2.791788856304985
2.835777126099707
2.8641251221896384
2.881720430107527
2.900293255131965
2.918866080156403
2.9374389051808407
2.9530791788856305
2.964809384164223
2.970674486803519
2.9696969696969697
2.960899315738025
2.943304007820137
2.913978494623656
2.87683284457478
2.83088954056696
2.774193548387097
2.7067448680351904
2.6295210166177907
2.5464320625610948
2.4604105571847508
2.372434017595308
2.2873900293255134
2.2082111436950145
2.136852394916911
2.075268817204301
2.021505376344086
1.978494623655914
1.943304007820137
1.9100684261974583
1.8797653958944285
1.8504398826979471
1.8211143695014664
1.7917888563049853
1.7624633431085044
1.7311827956989247
1.6989247311827955
1.6656891495601174
1.6314760508308896
1.6021505376344083
1.5747800586510263
1.543499511241447
1.5112414467253177
1.478005865102639
1.4457478005865103
1.4134897360703813
1.3822091886608017
1.3528836754643203
1.3255131964809383
1.2991202346041055
1.2746823069403714
1.2531769305962854
1.2375366568914956
1.224828934506354
1.2111436950146628
1.1974584555229717
1.18475073313783
1.1720430107526882
1.1583577712609971
1.1466275659824048
1.1358748778103618
1.126099706744868
1.1163245356793745
1.1065493646138806
1.1006842619745845
1.0957966764418376
1.0879765395894427
1.0801564027370478
1.0733137829912025
1.0664711632453567
1.0606060606060606
1.053763440860215
1.0469208211143697
1.040078201368524
1.0332355816226784
1.0273704789833822
1.0224828934506354
1.0205278592375366
1.0205278592375366
1.0195503421309873
1.0175953079178883
1.0156402737047898
1.013685239491691
1.0117302052785924
1.0097751710654936
1.0087976539589445
1.0068426197458455
1.0048875855327468
1.002932551319648
1.0039100684261977
1.0068426197458455
1.007820136852395
1.007820136852395
1.007820136852395
1.0068426197458455
1.0068426197458455
1.0097751710654936
1.0175953079178883
1.0361681329423265
1.0694037145650048
1.1221896383186705
1.198435972629521
1.2834799608993157
1.3812316715542523
1.509286412512219
1.6598240469208212
1.823069403714565
1.9902248289345064
2.1524926686217007
2.304007820136853
2.4389051808406648
2.5542521994134897
2.6510263929618767
2.729227761485826
2.782991202346041
2.820136852394917
2.855327468230694
2.886608015640274
2.913978494623656
2.93841642228739
2.9589442815249267
2.975562072336266
2.988269794721408
2.9960899315738025
2.997067448680352
2.989247311827957
2.972629521016618
2.9472140762463344
2.913000977517106
2.8690127077223853
2.8152492668621703
2.750733137829912
2.677419354838709
2.5962854349951123
2.509286412512219
2.419354838709677
2.3304007820136854
2.24633431085044
2.16911045943304
2.104594330400782
2.050830889540567
1.9990224828934504
1.9521016617790807
1.911045943304008
1.8758553274682308
1.844574780058651
1.8162267839687196
1.7888563049853372
1.7605083088954057
1.732160312805474
1.7028347996089932
1.672531769305963
1.6451612903225807
1.6187683284457477
1.587487781036168
1.5532746823069403
1.5190615835777126
1.4838709677419355
1.4486803519061584
1.41544477028348
1.3841642228739004
1.3528836754643203
1.324535679374389
1.2981427174975562
1.2776148582600195
1.260019550342131
1.241446725317693
1.2228739002932552
1.2052785923753666
1.1896383186705768
1.1749755620723363
1.1612903225806452
1.1485826001955035
1.1368523949169111
1.1251221896383188
1.1133919843597262
1.1055718475073313
1.1006842619745845
1.0928641251221896
1.0850439882697946
1.078201368523949
1.0713587487781036
1.0654936461388074
1.0596285434995112
1.053763440860215
1.0478983382209188
1.0420332355816226
1.0361681329423265
1.029325513196481
1.0263929618768328
1.0254154447702837
1.0224828934506354
1.018572825024438
1.0146627565982405
1.0127077223851415
1.0117302052785924
1.010752688172043
1.010752688172043
1.0097751710654936
1.0087976539589445
1.007820136852395
1.0097751710654936
1.013685239491691
1.0156402737047898
1.0166177908113392
1.0156402737047898
1.013685239491691
1.010752688172043
1.007820136852395
1.0048875855327468
1.0039100684261977
1.0068426197458455
1.0166177908113392
1.0381231671554252
1.0684261974584557
1.1133919843597262
1.181818181818182
1.2776148582600195
1.3978494623655917
1.5395894428152492
1.6979472140762464
1.865102639296188
2.032258064516129
2.193548387096774
2.3411534701857284
2.472140762463343
2.5698924731182795
2.643206256109482
2.7116324535679373
2.771260997067449
2.820136852394917
2.859237536656892
2.8914956011730206
2.918866080156403
2.9423264907135875
2.960899315738025
2.975562072336266
2.9853372434017595
2.9902248289345064
2.98435972629521
2.970674486803519
2.9530791788856305
2.927663734115347
2.89247311827957
2.84652981427175
2.788856304985337
2.721407624633431
2.6451612903225805
2.5610948191593352
2.4731182795698925
2.3841642228739004
2.304985337243402
2.2346041055718477
2.164222873900293
2.099706744868035
2.042033235581622
1.991202346041056
1.948191593352884
1.911045943304008
1.878787878787879
1.8484848484848484
1.8191593352883677
1.7898338220918866
1.761485826001955
1.7360703812316716
1.7116324535679377
1.683284457478006
1.6529814271749756
1.6207233626588464
1.5865102639296187
1.552297165200391
1.517106549364614
1.482893450635386
1.4496578690127078
1.4173998044965788
1.3861192570869991
1.3616813294232648
1.3411534701857282
1.3186705767350928
1.2971652003910068
1.2766373411534702
1.2570869990224829
1.2375366568914956
1.2189638318670577
1.2013685239491692
1.1867057673509287
1.1730205278592376
1.160312805474096
1.1495601173020529
1.142717497556207
1.1378299120234605
1.130987292277615
1.1231671554252198
1.1143695014662756
1.1055718475073313
1.0957966764418376
1.0869990224828934
1.0791788856304985
1.072336265884653
1.0664711632453567
1.0606060606060606
1.0586510263929618
1.0586510263929618
1.0557184750733135
1.0518084066471165
1.0478983382209188
1.043010752688172
1.0381231671554252
1.0332355816226784
1.0283479960899315
1.024437927663734
1.021505376344086
1.0205278592375366
1.0195503421309873
1.021505376344086
1.024437927663734
1.0254154447702837
1.0254154447702837
1.024437927663734
1.0234604105571847
1.021505376344086
1.0205278592375366
1.0195503421309873
1.018572825024438
1.0175953079178883
1.018572825024438
1.0234604105571847
1.0361681329423265
1.0596285434995112
1.0987292277614855
1.1593352883675463
1.2453567937438903
1.3558162267839686
1.4897360703812317
1.6412512218963833
1.804496578690127
1.970674486803519
2.132942326490713
2.283479960899316
2.401759530791789
2.495601173020528
2.5855327468230693
2.6637341153470184
2.7282502443792764
2.7810361681329425
2.8240469208211145
2.8582600195503423
2.886608015640274
2.909090909090909
2.929618768328446
2.946236559139785
2.9530791788856305
2.9530791788856305
2.952101661779081
2.945259042033236
2.9315738025415445
2.909090909090909
2.875855327468231
2.8299120234604107
2.773216031280548
2.7067448680351904
2.63049853372434
2.548387096774193
2.462365591397849
2.3841642228739004
2.3118279569892475
2.236559139784946
2.164222873900293
2.0987292277614857
2.0410557184750733
1.992179863147605
1.951124144672532
1.9159335288367547
1.884652981427175
1.855327468230694
1.8269794721407624
1.801564027370479
1.7771260997067448
1.750733137829912
1.721407624633431
1.6911045943304008
1.6598240469208212
1.6275659824046922
1.5943304007820136
1.560117302052786
1.525904203323558
1.4916911045943304
1.458455522971652
1.43108504398827
1.4076246334310851
1.3812316715542523
1.3548387096774193
1.3304007820136852
1.3079178885630498
1.2864125122189638
1.2658846529814272
1.2482893450635386
1.2316715542521994
1.2160312805474096
1.2023460410557183
1.1896383186705768
1.181818181818182
1.1759530791788857
1.1681329423264908
1.1593352883675463
1.1495601173020529
1.1397849462365592
1.130987292277615
1.1221896383186705
1.1124144672531768
1.1036168132942326
1.0948191593352885
1.0869990224828934
1.0821114369501466
1.0801564027370478
1.075268817204301
1.0703812316715542
1.064516129032258
1.0586510263929618
1.0518084066471165
1.0449657869012707
1.0391006842619743
1.0332355816226784
1.0283479960899315
1.0254154447702837
1.0224828934506354
1.0234604105571847
1.0263929618768328
1.0273704789833822
1.0263929618768328
1.0254154447702837
1.0234604105571847
1.021505376344086
1.0195503421309873
1.018572825024438
1.0175953079178883
1.0175953079178883
1.0175953079178883
1.0195503421309873
1.024437927663734
1.0303030303030305
1.0439882697947214
1.0694037145650048
1.1124144672531768
1.1779081133919844
1.267839687194526
1.3841642228739004
1.52297165200391
1.6793743890518085
1.8465298142717497
2.01564027370479
2.158357771260997
2.280547409579668
2.404692082111437
2.5180840664711632
2.616813294232649
2.697947214076246
2.7624633431085046
2.814271749755621
2.855327468230694
2.8885630498533725
2.9159335288367547
2.9393939393939394
2.9530791788856305
2.960899315738025
2.9696969696969697
2.9775171065493646
2.9804496578690127
2.975562072336266
2.963831867057673
2.941348973607038
2.9071358748778104
2.86217008797654
2.8054740957966766
2.73802541544477
2.6608015640273703
2.5855327468230693
2.5102639296187683
2.4271749755620724
2.3421309872922778
2.259042033235582
2.182795698924731
2.114369501466276
2.0547409579667644
2.003910068426197
1.959921798631476
1.921798631476051
1.8875855327468232
1.8592375366568916
1.8328445747800584
1.8054740957966764
1.7771260997067448
1.7468230694037146
1.715542521994135
1.683284457478006
1.6500488758553276
1.616813294232649
1.5835777126099706
1.5513196480938416
1.5180840664711632
1.4848484848484849
1.456500488758553
1.43108504398827
1.4027370478983383
1.3743890518084063
1.346041055718475
1.3196480938416422
1.2942326490713587
1.270772238514174
1.249266862170088
1.2297165200391007
1.2121212121212122
1.1964809384164223
1.1857282502443791
1.176930596285435
1.166177908113392
1.1544477028347997
1.142717497556207
1.130987292277615
1.121212121212121
1.1114369501466277
1.1016617790811338
1.0909090909090908
1.0801564027370478
1.0703812316715542
1.0606060606060606
1.0547409579667644
1.050830889540567
1.0449657869012707
1.0391006842619743
1.0332355816226784
1.0273704789833822
1.0224828934506354
1.0175953079178883
1.013685239491691
1.0097751710654936
1.0058651026392962
1.0009775171065494
1.0
1.0009775171065494
1.0
0.997067448680352
0.9951124144672532
0.9931573802541545
0.9921798631476052
0.9921798631476052
0.9912023460410556
0.9902248289345064
0.9882697947214076
0.9863147605083088
0.9843597262952102
0.9843597262952102
0.9863147605083088
0.9853372434017597
0.9853372434017597
0.9882697947214076
0.997067448680352
1.0175953079178883
1.0557184750733135
1.115347018572825
1.2003910068426198
1.310850439882698
1.444770283479961
1.5757575757575757
1.7086999022482894
1.8641251221896384
2.026392961876833
2.185728250244379
2.333333333333333
2.463343108504399
2.5747800586510263
2.667644183773216
2.7438905180840663
2.8044965786901277
2.852394916911046
2.8905180840664717
2.913000977517106
2.927663734115347
2.945259042033236
2.961876832844575
2.9765395894428157
2.989247311827957
2.997067448680352
2.9980449657869013
2.991202346041056
2.973607038123167
2.946236559139785
2.9071358748778104
2.8611925708699903
2.807429130009776
2.740957966764418
2.6637341153470184
2.5806451612903225
2.4946236559139785
2.4086021505376345
2.32355816226784
2.242424242424242
2.1681329423264906
2.101661779081134
2.0439882697947214
1.994134897360704
1.95405669599218
1.920821114369501
1.8885630498533723
1.857282502443793
1.825024437927664
1.7927663734115349
1.761485826001955
1.7302052785923754
1.6979472140762464
1.664711632453568
1.6304985337243405
