ppg
1.093841642228739
1.13880742913001
1.2140762463343109
1.3206256109481915
1.4320625610948192
1.5532746823069403
1.7018572825024438
1.86119257086999
2.0175953079178885
2.161290322580645
2.283479960899316
2.378299120234604
2.444770283479961
2.482893450635386
2.493646138807429
2.479960899315738
2.450635386119257
2.409579667644184
2.35386119257087
2.251221896383187
2.1739980449657867
2.090909090909091
1.9589442815249267
1.866080156402737
1.7712609970674489
1.675464320625611
1.581622678396872
1.4897360703812317
1.414467253176931
1.3509286412512218
1.2873900293255132
1.23069403714565
1.18475073313783
1.1515151515151516
1.130987292277615
1.1221896383186705
1.1241446725317692
1.1348973607038124
1.1534701857282503
1.1779081133919844
1.203323558162268
1.2297165200391007
1.2580645161290325
1.2854349951124144
1.3118279569892473
1.3362658846529814
1.3558162267839686
1.370478983382209
1.380254154447703
1.3851417399804498
1.3851417399804498
1.3792766373411536
1.3695014662756595
1.359726295210166
1.3479960899315735
1.332355816226784
1.3128054740957966
1.2913000977517106
1.267839687194526
1.2434017595307918
1.2179863147605083
1.1935483870967742
1.1720430107526882
1.1583577712609971
1.1593352883675463
1.173998044965787
1.209188660801564
1.2756598240469208
1.3773216031280548
1.5112414467253177
1.672531769305963
1.8514173998044965
2.0361681329423265
2.21505376344086
2.377321603128055
2.575757575757576
2.7781036168132944
2.906158357771261
2.9745845552297165
3.002932551319648
3.006842619745845
2.988269794721408
2.949169110459433
2.89345063538612
2.825024437927664
2.744868035190616
2.654936461388074
2.557184750733138
2.452590420332356
2.343108504398827
2.242424242424242
2.146627565982405
2.0410557184750733
1.932551319648094
1.8269794721407624
1.7272727272727273
1.6363636363636365
1.5571847507331378
1.4916911045943304
1.4418377321603129
1.4066471163245358
1.3861192570869991
1.380254154447703
1.3851417399804498
1.3988269794721409
1.4222873900293256
1.452590420332356
1.487781036168133
1.5249266862170088
1.5620723362658846
1.5972629521016617
1.6285434995112416
1.653958944281525
1.6735092864125125
1.686217008797654
1.6930596285434996
1.6950146627565983
1.6920821114369502
1.683284457478006
1.6686217008797657
1.6500488758553276
1.6275659824046922
1.6021505376344083
1.5757575757575757
1.547409579667644
1.517106549364614
1.4848484848484849
1.456500488758553
1.43108504398827
1.4056695992179864
1.3861192570869991
1.380254154447703
1.396871945259042
1.4437927663734116
1.5239491691104594
1.6392961876832846
1.7849462365591398
1.9521016617790807
2.129032258064516
2.304007820136853
2.4457478005865103
2.558162267839687
2.66177908113392
2.7419354838709675
2.792766373411535
2.814271749755621
2.807429130009776
2.776148582600196
2.7262952101661777
2.659824046920821
2.5806451612903225
2.490713587487781
2.403714565004888
2.3167155425219943
2.2170087976539588
2.110459433040078
2.0
1.889540566959922
1.7820136852394917
1.6793743890518085
1.5835777126099706
1.498533724340176
1.4271749755620724
1.370478983382209
1.3294232649071358
1.3049853372434017
1.295210166177908
1.2971652003910068
1.3098729227761483
1.3333333333333333
1.364613880742913
1.401759530791789
1.4418377321603129
1.4819159335288368
1.520039100684262
1.555229716520039
1.585532746823069
1.6080156402737047
1.6236559139784943
1.635386119257087
1.6412512218963833
1.640273704789834
1.6314760508308896
1.616813294232649
1.5962854349951123
1.5708699902248289
1.542521994134897
1.5112414467253177
1.47702834799609
1.4418377321603129
1.412512218963832
1.3861192570869991
1.356793743890518
1.3255131964809383
1.295210166177908
1.267839687194526
1.2453567937438903
1.2336265884652982
1.2404692082111437
1.2717497556207231
1.3333333333333333
1.4281524926686218
1.5317693059628543
1.6471163245356797
1.793743890518084
1.9560117302052784
2.1192570869990224
2.270772238514174
2.39980449657869
2.4995112414467253
2.5669599217986314
2.6021505376344085
2.6070381231671558
2.58455522971652
2.5386119257087
2.4819159335288368
2.41544477028348
2.332355816226784
2.236559139784946
2.1309872922776147
2.018572825024438
1.902248289345064
1.7849462365591398
1.6695992179863148
1.5581622678396871
1.4535679374389052
1.359726295210166
1.2864125122189638
1.2287390029325511
1.176930596285435
1.1348973607038124
1.10752688172043
1.0957966764418376
1.0987292277614855
1.1143695014662756
1.141739980449658
1.176930596285435
1.217008797653959
1.260019550342131
1.3020527859237536
1.3391984359726294
1.3714565004887584
1.4007820136852396
1.426197458455523
1.444770283479961
1.455522971652004
1.458455522971652
1.4545454545454546
1.4428152492668622
1.4242424242424243
2.9012707722385143
2.8299120234604107
2.739980449657869
2.635386119257087
2.5180840664711632
2.391006842619746
2.257086999022483
2.1358748778103616
2.0205278592375366
1.89247311827957
1.7624633431085044
1.635386119257087
1.5151515151515151
1.4056695992179864
1.3079178885630498
1.224828934506354
1.1573802541544478
1.1065493646138806
1.0733137829912025
1.056695992179863
1.0547409579667644
1.0654936461388074
1.088954056695992
1.1231671554252198
1.166177908113392
1.2150537634408602
1.2668621700879763
1.3206256109481915
1.3724340175953078
1.4193548387096775
1.4604105571847508
1.4946236559139785
1.520039100684262
1.5376344086021505
1.5483870967741935
1.5513196480938416
1.5454545454545454
1.5327468230694037
1.5131964809384164
1.4887585532746823
1.4594330400782014
1.426197458455523
1.3890518084066472
1.3499511241446724
1.310850439882698
1.2795698924731185
1.2561094819159335
1.2404692082111437
1.2424242424242424
1.2727272727272727
1.3391984359726294
1.444770283479961
1.5894428152492668
1.7663734115347018
1.967741935483871
2.1788856304985336
2.386119257086999
2.5532746823069403
2.687194525904203
2.8103616813294234
2.9071358748778104
2.970674486803519
2.99902248289345
2.9931573802541545
2.956989247311828
2.8944281524926687
2.8103616813294234
2.70772238514174
2.592375366568915
2.466275659824047
2.347018572825025
2.23069403714565
2.1006842619745845
1.963831867057673
1.826001955034213
1.6920821114369502
1.5542521994134897
1.4222873900293256
1.3098729227761483
1.2150537634408602
1.1378299120234605
1.078201368523949
1.040078201368524
1.018572825024438
1.007820136852395
1.0097751710654936
1.024437927663734
1.0518084066471165
1.088954056695992
1.133919843597263
1.18475073313783
1.2375366568914956
1.2903225806451613
1.3401759530791788
1.3841642228739004
1.4193548387096775
1.4467253176930597
1.469208211143695
1.4848484848484849
1.4926686217008798
1.4926686217008798
1.4848484848484849
1.4701857282502444
1.4486803519061584
1.4222873900293256
1.391006842619746
1.356793743890518
1.3255131964809383
1.2961876832844574
1.2619745845552297
1.2287390029325511
1.203323558162268
1.1925708699902249
1.2043010752688172
1.2482893450635386
1.3294232649071358
1.4496578690127078
1.606060606060606
1.7917888563049853
1.9667644183773216
2.132942326490713
2.3167155425219943
2.4946236559139785
2.650048875855328
2.773216031280548
2.859237536656892
2.9071358748778104
2.918866080156403
2.898338220918866
2.849462365591398
2.7781036168132944
2.687194525904203
2.593352883675464
2.4946236559139785
2.378299120234604
2.251221896383187
2.1163245356793743
1.978494623655914
1.8406647116324533
1.7067448680351909
1.5786901270772238
1.458455522971652
1.348973607038123
1.2531769305962854
1.1808406647116323
1.126099706744868
1.078201368523949
1.043010752688172
1.0224828934506354
1.0175953079178883
1.0273704789833822
1.050830889540567
1.0850439882697946
1.1280547409579669
1.176930596285435
1.2287390029325511
1.281524926686217
1.327468230694037
1.367546432062561
1.4056695992179864
1.4389051808406648
1.4652981427174976
1.482893450635386
1.4926686217008798
1.4946236559139785
1.487781036168133
1.4731182795698925
1.452590420332356
1.4271749755620724
1.4027370478983383
1.3773216031280548
1.346041055718475
1.3098729227761483
1.2727272727272727
1.2365591397849462
1.206256109481916
1.187683284457478
1.1896383186705768
1.2189638318670577
1.2834799608993157
1.388074291300098
1.5298142717497556
1.6764418377321604
1.83088954056696
2.018572825024438
2.217986314760508
2.409579667644184
2.5806451612903225
2.721407624633431
2.825024437927664
2.8905180840664717
2.918866080156403
2.911045943304008
2.8729227761485827
2.8181818181818183
2.748778103616813
2.658846529814272
2.5532746823069403
2.4349951124144678
2.3088954056695994
2.175953079178885
2.0391006842619745
1.9012707722385145
1.7644183773216031
1.632453567937439
1.5063538611925709
1.391006842619746
1.2991202346041055
1.2258064516129032
1.155425219941349
1.096774193548387
1.0527859237536656
1.024437927663734
1.013685239491691
1.018572825024438
1.0381231671554252
1.0703812316715542
1.1124144672531768
1.1612903225806452
1.209188660801564
1.2551319648093842
1.3049853372434017
1.3548387096774193
1.4007820136852396
1.439882697947214
1.4711632453567938
1.4936461388074291
1.5073313782991202
1.512218963831867
1.5083088954056696
1.4965786901270772
1.478005865102639
1.458455522971652
1.4379276637341154
1.4105571847507332
1.3792766373411536
1.3440860215053765
1.3079178885630498
1.2717497556207231
1.2404692082111437
1.2189638318670577
1.2140762463343109
1.2346041055718475
1.2883675464320623
1.359726295210166
1.456500488758553
1.5972629521016617
1.7732160312805474
1.9716520039100685
2.177908113391984
2.377321603128055
2.558162267839687
2.708699902248289
2.8240469208211145
2.9012707722385143
2.940371456500489
2.943304007820137
2.918866080156403
2.8729227761485827
2.803519061583578
2.7145650048875853
2.6099706744868034
2.493646138807429
2.3685239491691106
2.236559139784946
2.099706744868035
1.9608993157380252
1.823069403714565
1.6881720430107527
1.573802541544477
1.474095796676442
1.3724340175953078
1.2756598240469208
1.1915933528836755
1.1221896383186705
1.0694037145650048
1.035190615835777
1.018572825024438
1.018572825024438
1.0332355816226784
1.06158357771261
1.1016617790811338
1.144672531769306
1.1896383186705768
1.241446725317693
1.2942326490713587
1.3450635386119256
1.3919843597262953
1.4330400782013686
1.466275659824047
1.490713587487781
1.5053763440860215
1.5112414467253177
1.5083088954056696
1.501466275659824
1.4897360703812317
1.4701857282502444
1.444770283479961
1.414467253176931
1.3812316715542523
1.3450635386119256
1.3069403714565004
1.2688172043010753
1.2346041055718475
1.2082111436950147
1.198435972629521
1.2121212121212122
1.2453567937438903
1.3040078201368523
1.4037145650048877
1.542521994134897
1.715542521994135
1.9120234604105573
2.1192570869990224
2.32355816226784
2.512218963831867
2.6725317693059627
2.7976539589442817
2.8836754643206257
2.927663734115347
2.9374389051808407
2.921798631476051
2.8807429130009776
2.81622678396872
2.732160312805474
2.632453567937439
2.520039100684262
2.3978494623655915
2.2668621700879767
2.1309872922776147
1.992179863147605
1.870967741935484
1.761485826001955
1.6451612903225807
1.5268817204301075
1.414467253176931
1.3128054740957966
1.2238514173998043
1.1515151515151516
1.0957966764418376
1.0586510263929618
1.0381231671554252
1.035190615835777
1.0469208211143697
1.0684261974584557
1.0977517106549364
1.1378299120234605
1.18475073313783
1.2365591397849462
1.289345063538612
1.3401759530791788
1.3870967741935485
1.4291300097751711
1.4633431085043989
1.4897360703812317
1.5073313782991202
1.517106549364614
1.520039100684262
1.5141739980449658
1.500488758553275
1.4809384164222874
1.455522971652004
1.426197458455523
1.393939393939394
1.359726295210166
1.3225806451612905
1.2854349951124144
1.249266862170088
1.219941348973607
1.203323558162268
1.2043010752688172
1.2267839687194526
1.2805474095796676
1.3714565004887584
1.500488758553275
1.6637341153470186
1.8543499511241448
2.059628543499511
2.2639296187683287
2.455522971652004
2.621700879765396
2.740957966764418
2.822091886608016
2.8807429130009776
2.909090909090909
2.906158357771261
2.873900293255132
2.81622678396872
2.736070381231672
2.638318670576735
2.5268817204301075
2.403714565004888
2.271749755620724
2.134897360703812
2.0117302052785924
1.8963831867057677
1.7702834799608993
1.6412512218963833
1.5161290322580645
1.3988269794721409
1.29227761485826
1.1994134897360704
1.1221896383186705
1.0625610948191593
1.021505376344086
0.9990224828934506
0.9931573802541545
1.0009775171065494
1.0205278592375366
1.0518084066471165
1.0928641251221896
1.1397849462365592
1.1915933528836755
1.2443792766373412
1.2961876832844574
1.3450635386119256
1.388074291300098
1.4242424242424243
1.4516129032258065
1.4711632453567938
1.4819159335288368
1.4848484848484849
1.4809384164222874
1.469208211143695
1.4506353861192571
1.426197458455523
1.3978494623655917
1.3655913978494625
1.3304007820136852
1.2932551319648091
1.2561094819159335
1.2258064516129032
1.2003910068426198
1.1779081133919844
1.1681329423264908
1.1788856304985338
1.2189638318670577
1.295210166177908
1.4105571847507332
1.5620723362658846
1.7419354838709675
1.9403714565004888
2.1436950146627565
2.337243401759531
2.490713587487781
2.6080156402737047
2.710654936461388
2.78494623655914
2.8260019550342133
2.832844574780059
2.8084066471163247
2.7565982404692084
2.681329423264907
2.587487781036168
2.4780058651026398
2.356793743890518
2.242424242424242
2.1300097751710654
2.0019550342130987
1.866080156402737
1.729227761485826
1.595307917888563
1.4682306940371457
1.3499511241446724
1.2424242424242424
1.1495601173020529
1.072336265884653
1.0127077223851415
0.9706744868035192
0.9491691104594332
0.9442815249266864
0.9511241446725318
0.9706744868035192
1.002932551319648
1.0449657869012707
1.0948191593352885
1.1495601173020529
1.2052785923753666
1.260019550342131
1.3118279569892473
1.3587487781036167
1.3958944281524928
1.4252199413489737
1.4486803519061584
1.4643206256109482
1.4721407624633431
1.4721407624633431
1.4643206256109482
1.4486803519061584
1.426197458455523
1.3998044965786902
1.3695014662756595
1.3362658846529814
1.300097751710655
1.2688172043010753
1.2404692082111437
1.209188660801564
1.1788856304985338
1.1573802541544478
1.152492668621701
1.1720430107526882
1.2228739002932552
1.310850439882698
1.4349951124144673
1.5913978494623655
1.7732160312805474
1.9403714565004888
2.0977517106549364
2.2668621700879767
2.4281524926686218
2.5650048875855327
2.670576735092864
2.7390029325513194
2.7702834799608995
2.7673509286412514
2.7331378299120237
2.6715542521994133
2.587487781036168
2.4858260019550342
2.383186705767351
2.27761485826002
2.15347018572825
2.0195503421309877
1.8797653958944285
1.7390029325513197
1.6011730205278591
1.469208211143695
1.346041055718475
1.2346041055718475
1.1378299120234605
1.0576735092864125
1.0009775171065494
0.9628543499511242
0.9335288367546432
0.9188660801564028
0.9188660801564028
0.935483870967742
0.9657869012707724
1.0068426197458455
1.0576735092864125
1.1143695014662756
1.1749755620723363
1.2346041055718475
1.29227761485826
1.3401759530791788
1.380254154447703
1.4173998044965788
1.447702834799609
1.469208211143695
1.4809384164222874
1.482893450635386
1.4760508308895406
1.4623655913978495
1.4418377321603129
1.41544477028348
1.3851417399804498
1.3577712609970674
1.3313782991202343
1.2981427174975562
1.2619745845552297
1.2258064516129032
1.1915933528836755
1.166177908113392
1.1564027370478984
1.1691104594330402
1.2111436950146628
1.289345063538612
1.404692082111437
1.5288367546432062
1.6666666666666667
1.839687194525904
2.0303030303030303
2.2218963831867056
2.39980449657869
2.552297165200391
2.673509286412512
2.757575757575758
2.8025415444770285
2.812316715542522
2.788856304985337
2.736070381231672
2.6695992179863146
2.590420332355816
2.489736070381232
2.372434017595308
2.243401759530792
2.1065493646138806
1.964809384164223
1.8435972629521016
1.7360703812316716
1.6177908113391983
1.500488758553275
1.3890518084066472
1.3010752688172045
1.23069403714565
1.1652003910068427
1.1114369501466277
1.072336265884653
1.050830889540567
1.04594330400782
1.056695992179863
1.0811339198435972
1.1173020527859236
1.164222873900293
1.2179863147605083
1.2756598240469208
1.3284457478005864
1.3782991202346042
1.4291300097751711
1.478005865102639
1.521016617790811
1.5562072336265884
1.5826001955034212
1.598240469208211
1.603128054740958
1.6001955034213098
1.5884652981427174
1.5708699902248289
1.552297165200391
1.5317693059628543
1.504398826979472
1.4721407624633431
1.436950146627566
1.3998044965786902
1.3626588465298142
1.327468230694037
1.2991202346041055
1.2834799608993157
1.289345063538612
1.3235581622678396
1.392961876832845
1.478983382209189
1.5865102639296187
1.7360703812316716
1.9149560117302051
2.10850439882698
2.304007820136853
2.487781036168133
2.6480938416422286
2.7781036168132944
2.8719452590420333
2.929618768328446
2.951124144672532
2.943304007820137
2.9100684261974585
2.852394916911046
2.774193548387097
2.678396871945259
2.567937438905181
2.4457478005865103
2.313782991202346
2.176930596285435
2.037145650048876
1.8983382209188664
1.7624633431085044
1.632453567937439
1.5249266862170088
1.434017595307918
1.3440860215053765
1.262952101661779
1.195503421309873
1.1456500488758554
1.1133919843597262
1.0987292277614855
1.1016617790811338
1.1202346041055715
1.1515151515151516
1.1935483870967742
1.2375366568914956
1.2834799608993157
1.3362658846529814
1.3919843597262953
1.4457478005865103
1.495601173020528
1.5395894428152492
1.576735092864125
1.6041055718475072
1.6226783968719452
1.6314760508308896
1.6314760508308896
1.6236559139784943
1.611925708699902
1.5962854349951123
1.573802541544477
1.5454545454545454
1.5131964809384164
1.47702834799609
1.4389051808406648
1.3998044965786902
1.3616813294232648
1.3294232649071358
1.3079178885630498
1.3049853372434017
1.3206256109481915
1.3607038123167154
1.436950146627566
1.5513196480938416
1.7008797653958945
1.878787878787879
2.0762463343108504
2.278592375366569
2.472140762463343
2.64613880742913
2.791788856304985
2.902248289345064
2.975562072336266
3.0097751710654936
3.010752688172043
2.9872922776148583
2.9393939393939394
2.8699902248289346
2.7810361681329425
2.677419354838709
2.5610948191593352
2.4349951124144678
2.3010752688172045
2.163245356793744
2.0234604105571847
1.9012707722385145
1.790811339198436
1.6715542521994136
1.5542521994134897
1.4457478005865103
1.3499511241446724
1.2697947214076246
1.2072336265884651
1.163245356793744
1.1378299120234605
1.1300097751710656
1.1397849462365592
1.166177908113392
1.2013685239491692
1.2424242424242424
1.2932551319648091
1.348973607038123
1.4066471163245358
1.4623655913978495
1.5141739980449658
1.5591397849462365
1.5972629521016617
1.6275659824046922
1.6490713587487782
1.66177908113392
1.6666666666666667
1.6637341153470186
1.6529814271749756
1.635386119257087
1.611925708699902
1.5826001955034212
1.5493646138807429
1.5131964809384164
1.4750733137829912
1.4349951124144673
1.3958944281524928
1.3607038123167154
1.3333333333333333
1.3206256109481915
1.3264907135874875
1.3577712609970674
1.4222873900293256
1.5249266862170088
1.6656891495601174
1.839687194525904
2.0361681329423265
2.242424242424242
2.4457478005865103
2.632453567937439
2.791788856304985
2.905180840664712
2.978494623655914
3.0303030303030303
3.0527859237536656
3.0439882697947214
3.006842619745845
2.945259042033236
2.863147605083089
2.7653958944281527
2.653958944281525
2.532746823069404
2.403714565004888
2.2844574780058653
2.1710654936461387
2.0449657869012707
1.9149560117302051
1.7859237536656891
1.6637341153470186
1.5503421309872922
1.447702834799609
1.359726295210166
1.2883675464320623
1.2346041055718475
1.198435972629521
1.1808406647116323
1.1788856304985338
1.1906158357771262
1.2150537634408602
1.249266862170088
1.29227761485826
1.3421309872922775
1.393939393939394
1.4467253176930597
1.4965786901270772
1.541544477028348
1.5796676441837731
1.6099706744868034
1.6314760508308896
1.6451612903225807
1.651026392961877
1.6500488758553276
1.6422287390029326
1.6265884652981428
1.606060606060606
1.5796676441837731
1.5493646138807429
1.5151515151515151
1.478983382209189
1.4408602150537635
1.401759530791789
1.3695014662756595
1.343108504398827
1.3196480938416422
1.3088954056695992
1.3206256109481915
1.3626588465298142
1.4418377321603129
1.5591397849462365
1.7135874877810362
1.8973607038123168
2.0977517106549364
2.303030303030303
2.4760508308895406
2.619745845552297
2.7595307917888565
2.875855327468231
2.960899315738025
3.010752688172043
3.0254154447702835
3.007820136852395
2.961876832844575
2.8944281524926687
2.8084066471163247
2.70772238514174
2.595307917888563
2.4887585532746823
2.367546432062561
2.2248289345063537
2.0869990224828934
1.9521016617790807
1.8201368523949168
1.6950146627565983
1.5777126099706744
1.4711632453567938
1.3773216031280548
1.2991202346041055
1.2365591397849462
1.195503421309873
1.1710654936461389
1.1583577712609971
1.1583577712609971
1.1710654936461389
1.1964809384164223
1.23069403714565
1.2727272727272727
1.3196480938416422
1.3685239491691104
1.4164222873900294
1.4613880742913
1.501466275659824
1.5327468230694037
1.5562072336265884
1.5747800586510263
1.5865102639296187
1.5894428152492668
1.58455522971652
1.5728250244379276
1.555229716520039
1.5327468230694037
1.5053763440860215
1.4750733137829912
1.4428152492668622
1.4134897360703813
1.3861192570869991
1.35386119257087
1.3206256109481915
1.2913000977517106
1.2727272727272727
1.2717497556207231
1.2961876832844574
1.3528836754643203
1.4457478005865103
1.576735092864125
1.739980449657869
1.9266862170087975
2.0977517106549364
2.2561094819159337
2.426197458455523
2.587487781036168
2.724340175953079
2.8289345063538613
2.898338220918866
2.932551319648094
2.9335288367546437
2.905180840664712
2.8514173998044967
2.7781036168132944
2.697947214076246
2.610948191593353
2.50733137829912
2.391006842619746
2.2668621700879767
2.1378299120234603
2.006842619745845
1.8758553274682308
1.7487781036168133
1.6285434995112416
1.517106549364614
1.4173998044965788
1.3313782991202343
1.267839687194526
1.2218963831867058
1.18475073313783
1.160312805474096
1.1515151515151516
1.1573802541544478
1.176930596285435
1.2072336265884651
1.2453567937438903
1.2903225806451613
1.3391984359726294
1.3870967741935485
1.4291300097751711
1.466275659824047
1.5024437927663734
1.533724340175953
1.5581622678396871
1.5747800586510263
1.5826001955034212
1.5826001955034212
1.5747800586510263
1.560117302052786
1.5395894428152492
1.5141739980449658
1.4858260019550342
1.4594330400782014
1.4330400782013686
1.401759530791789
1.3665689149560116
1.3304007820136852
1.2961876832844574
1.2688172043010753
1.2551319648093842
1.262952101661779
1.300097751710655
1.3734115347018572
1.4848484848484849
1.606060606060606
1.7429130009775171
1.916911045943304
2.110459433040078
2.3059628543499517
2.4887585532746823
2.6471163245356792
2.774193548387097
2.8641251221896384
2.917888563049853
2.935483870967742
2.921798631476051
2.8807429130009776
2.825024437927664
2.7565982404692084
2.6695992179863146
2.56891495601173
2.4565004887585533
2.3362658846529816
2.2111436950146626
2.0821114369501466
1.9530791788856303
1.825024437927664
1.7018572825024438
1.5865102639296187
1.4926686217008798
1.41544477028348
1.3401759530791788
1.2756598240469208
1.2258064516129032
1.1925708699902249
1.1759530791788857
1.1759530791788857
1.1896383186705768
1.2160312805474096
1.252199413489736
1.2942326490713587
1.3411534701857282
1.3841642228739004
1.4242424242424243
1.466275659824047
1.5053763440860215
1.5386119257087
1.5650048875855327
1.5835777126099706
