ppg
2.9442815249266863
2.967741935483871
2.978494623655914
2.9745845552297165
2.959921798631476
2.93841642228739
2.9071358748778104
2.8670576735092865
2.817204301075269
2.757575757575758
2.6901270772238512
2.616813294232649
2.5405669599217986
2.463343108504399
2.3870967741935485
2.3196480938416424
2.259042033235582
2.1974584555229715
2.1388074291300097
2.0869990224828934
2.042033235581622
2.002932551319648
1.9696969696969695
1.9403714565004888
1.913978494623656
1.889540566959922
1.8641251221896384
1.8387096774193548
1.8162267839687196
1.7947214076246334
1.7702834799608993
1.7438905180840665
1.715542521994135
1.6852394916911049
1.6529814271749756
1.619745845552297
1.585532746823069
1.5513196480938416
1.517106549364614
1.4848484848484849
1.457478005865103
1.4330400782013686
1.404692082111437
1.3763440860215057
1.3479960899315735
1.3196480938416422
1.2932551319648091
1.2688172043010753
1.2453567937438903
1.2238514173998043
1.203323558162268
1.1837732160312806
1.164222873900293
1.1515151515151516
1.141739980449658
1.1290322580645162
1.1173020527859236
1.1055718475073313
1.0948191593352885
1.086021505376344
1.0772238514173995
1.0694037145650048
1.06158357771261
1.0547409579667644
1.0478983382209188
1.04594330400782
1.04594330400782
1.0439882697947214
1.0410557184750733
1.0381231671554252
1.035190615835777
1.032258064516129
1.029325513196481
1.0263929618768328
1.0234604105571847
1.018572825024438
1.0127077223851415
1.0048875855327468
1.0
0.997067448680352
0.9960899315738024
1.0
1.010752688172043
1.0361681329423265
1.083088954056696
1.1564027370478984
1.2580645161290325
1.3870967741935485
1.5395894428152492
1.7086999022482894
1.8621700879765395
2.005865102639296
2.163245356793744
2.318670576735093
2.463343108504399
2.590420332355816
2.6989247311827955
2.7869012707722387
2.8563049853372435
2.909090909090909
2.945259042033236
2.9687194525904204
2.979472140762464
2.975562072336266
2.960899315738025
2.9393939393939394
2.90811339198436
2.866080156402737
2.814271749755621
2.7546432062561097
2.6881720430107525
2.616813294232649
2.541544477028348
2.466275659824047
2.3929618768328447
2.3284457478005867
2.269794721407625
2.210166177908113
2.15347018572825
2.101661779081134
2.0547409579667644
2.0127077223851417
1.9765395894428155
1.945259042033236
1.916911045943304
1.8905180840664717
1.8641251221896384
1.8387096774193548
1.8162267839687196
1.7947214076246334
1.7702834799608993
1.7448680351906158
1.7174975562072337
1.689149560117302
1.6598240469208212
1.629521016617791
1.598240469208211
1.5669599217986314
1.5366568914956011
1.5063538611925709
1.4819159335288368
1.4604105571847508
1.435972629521017
1.4115347018572826
1.3870967741935485
1.3626588465298142
1.33822091886608
1.313782991202346
1.289345063538612
1.2658846529814272
1.2434017595307918
1.2218963831867058
1.2023460410557183
1.1886608015640274
1.1788856304985338
1.1671554252199414
1.155425219941349
1.1436950146627567
1.133919843597263
1.1251221896383188
1.118279569892473
1.1114369501466277
1.1036168132942326
1.096774193548387
1.0899315738025417
1.0869990224828934
1.086021505376344
1.0821114369501466
1.078201368523949
1.0742913000977516
1.0713587487781036
1.0684261974584557
1.0654936461388074
1.0625610948191593
1.0596285434995112
1.0557184750733135
1.0498533724340176
1.0439882697947214
1.0410557184750733
1.0420332355816226
1.0449657869012707
1.0557184750733135
1.0801564027370478
1.1241446725317692
1.1935483870967742
1.2903225806451613
1.4134897360703813
1.560117302052786
1.7233626588465298
1.8963831867057677
2.047898338220919
2.1837732160312804
2.329423264907136
2.4682306940371457
2.593352883675464
2.7008797653958942
2.787878787878788
2.857282502443793
2.90811339198436
2.9423264907135875
2.961876832844575
2.9667644183773216
2.9589442815249267
2.940371456500489
2.9120234604105573
2.875855327468231
2.83088954056696
2.777126099706745
2.7155425219941347
2.6471163245356792
2.573802541544477
2.498533724340176
2.4242424242424243
2.350928641251222
2.2825024437927666
2.2248289345063537
2.174975562072336
2.126099706744868
2.081133919843597
2.0410557184750733
2.005865102639296
1.9745845552297163
1.946236559139785
1.919843597262952
1.895405669599218
1.871945259042033
1.8484848484848484
1.8240469208211143
1.801564027370479
1.780058651026393
1.7546432062561097
1.7272727272727273
1.6989247311827955
1.6695992179863148
1.6383186705767352
1.606060606060606
1.5728250244379276
1.5395894428152492
1.5073313782991202
1.4750733137829912
1.447702834799609
1.423264907135875
1.3958944281524928
1.3685239491691104
1.3401759530791788
1.3128054740957966
1.2873900293255132
1.2639296187683284
1.241446725317693
1.2209188660801564
1.203323558162268
1.1867057673509287
1.1759530791788857
1.1691104594330402
1.1593352883675463
1.1495601173020529
1.1397849462365592
1.130987292277615
1.1231671554252198
1.1163245356793745
1.1094819159335287
1.1016617790811338
1.0948191593352885
1.088954056695992
1.083088954056696
1.0801564027370478
1.0791788856304985
1.0762463343108504
1.072336265884653
1.067448680351906
1.0635386119257086
1.0596285434995112
1.053763440860215
1.0469208211143697
1.040078201368524
1.032258064516129
1.024437927663734
1.021505376344086
1.0224828934506354
1.0283479960899315
1.04594330400782
1.0821114369501466
1.141739980449658
1.2287390029325511
1.343108504398827
1.482893450635386
1.643206256109482
1.81524926686217
1.992179863147605
2.166177908113392
2.3098729227761488
2.4301075268817205
2.552297165200391
2.6637341153470184
2.7595307917888565
2.8377321603128056
2.8993157380254155
2.9442815249266863
2.9745845552297165
2.992179863147605
2.9960899315738025
2.988269794721408
2.9696969696969697
2.941348973607038
2.9042033235581624
2.857282502443793
2.801564027370479
2.73802541544477
2.667644183773216
2.592375366568915
2.5141739980449658
2.436950146627566
2.361681329423265
2.290322580645161
2.2238514173998043
2.1681329423264906
2.1192570869990224
2.071358748778104
2.0283479960899315
1.989247311827957
1.9550342130987293
1.9237536656891496
1.895405669599218
1.869012707722385
1.8435972629521016
1.8172043010752688
1.7898338220918866
1.7653958944281525
1.7419354838709675
1.715542521994135
1.6871945259042034
1.656891495601173
1.6265884652981428
1.5962854349951123
1.5650048875855327
1.533724340175953
1.5024437927663734
1.4711632453567938
1.439882697947214
1.4105571847507332
1.3870967741935485
1.3665689149560116
1.343108504398827
1.3176930596285434
1.2932551319648091
1.2688172043010753
1.2453567937438903
1.2238514173998043
1.203323558162268
1.1837732160312806
1.166177908113392
1.1495601173020529
1.13880742913001
1.130987292277615
1.1221896383186705
1.1124144672531768
1.1016617790811338
1.0918866080156402
1.083088954056696
1.075268817204301
1.0694037145650048
1.064516129032258
1.0606060606060606
1.056695992179863
1.0527859237536656
1.0518084066471165
1.0527859237536656
1.0518084066471165
1.0488758553274682
1.04594330400782
1.043010752688172
1.0391006842619743
1.0342130987292275
1.0283479960899315
1.021505376344086
1.0156402737047898
1.0097751710654936
1.0087976539589445
1.0146627565982405
1.0283479960899315
1.056695992179863
1.1055718475073313
1.1798631476050832
1.281524926686217
1.409579667644184
1.5610948191593352
1.7282502443792769
1.9042033235581624
2.081133919843597
2.2502443792766376
2.3870967741935485
2.5004887585532747
2.611925708699902
2.710654936461388
2.793743890518084
2.859237536656892
2.9071358748778104
2.9393939393939394
2.9579667644183774
2.963831867057673
2.9579667644183774
2.9423264907135875
2.9159335288367547
2.881720430107527
2.838709677419355
2.7869012707722387
2.7262952101661777
2.658846529814272
2.5865102639296187
2.5112414467253177
2.4359726295210167
2.3626588465298144
2.2932551319648096
2.2277614858260018
2.1681329423264906
2.1192570869990224
2.0772238514174
2.037145650048876
2.0
1.9667644183773216
1.9364613880742916
1.9071358748778104
1.8797653958944285
1.8533724340175952
1.8269794721407624
1.8005865102639296
1.7741935483870968
1.750733137829912
1.729227761485826
1.704789833822092
1.6774193548387095
1.6480938416422288
1.6177908113391983
1.5865102639296187
1.5542521994134897
1.521016617790811
1.4887585532746823
1.457478005865103
1.4271749755620724
1.3988269794721409
1.3763440860215057
1.3577712609970674
1.3362658846529814
1.313782991202346
1.29227761485826
1.2717497556207231
1.2531769305962854
1.2355816226783969
1.2179863147605083
1.2013685239491692
1.1857282502443791
1.1700879765395895
1.1593352883675463
1.1515151515151516
1.141739980449658
1.1319648093841643
1.1241446725317692
1.1173020527859236
1.1114369501466277
1.1055718475073313
1.099706744868035
1.093841642228739
1.088954056695992
1.0850439882697946
1.0840664711632453
1.0850439882697946
1.0850439882697946
1.0840664711632453
1.0821114369501466
1.0801564027370478
1.0791788856304985
1.0772238514173995
1.0742913000977516
1.0703812316715542
1.0654936461388074
1.0596285434995112
1.053763440860215
1.0527859237536656
1.0576735092864125
1.0684261974584557
1.0928641251221896
1.1368523949169111
1.206256109481916
1.303030303030303
1.4271749755620724
1.573802541544477
1.737047898338221
1.911045943304008
2.086021505376344
2.2346041055718477
2.361681329423265
2.4916911045943304
2.611925708699902
2.7155425219941347
2.80058651026393
2.8670576735092865
2.916911045943304
2.951124144672532
2.970674486803519
2.9765395894428157
2.970674486803519
2.9530791788856305
2.9257086999022484
2.8905180840664717
2.84652981427175
2.793743890518084
2.7331378299120237
2.664711632453568
2.592375366568915
2.517106549364614
2.441837732160313
2.36950146627566
2.3010752688172045
2.2375366568914954
2.1847507331378297
2.139784946236559
2.096774193548387
2.0576735092864125
2.0234604105571847
1.992179863147605
1.964809384164223
1.93841642228739
1.913978494623656
1.8905180840664717
1.8670576735092863
1.842619745845552
1.8172043010752688
1.7927663734115349
1.76930596285435
1.7419354838709675
1.7116324535679377
1.6813294232649072
1.6490713587487782
1.616813294232649
1.58455522971652
1.5513196480938416
1.5180840664711632
1.4848484848484849
1.4535679374389052
1.4281524926686218
1.4066471163245358
1.383186705767351
1.359726295210166
1.335288367546432
1.3118279569892473
1.289345063538612
1.2668621700879763
1.2453567937438903
1.2258064516129032
1.2072336265884651
1.1906158357771262
1.176930596285435
1.1681329423264908
1.1622678396871946
1.1534701857282503
1.1436950146627567
1.1348973607038124
1.1270772238514175
1.1192570869990224
1.1124144672531768
1.1055718475073313
1.099706744868035
1.093841642228739
1.0869990224828934
1.0840664711632453
1.0821114369501466
1.0791788856304985
1.0742913000977516
1.0694037145650048
1.0654936461388074
1.06158357771261
1.0576735092864125
1.0518084066471165
1.04594330400782
1.0391006842619743
1.032258064516129
1.0263929618768328
1.0273704789833822
1.0381231671554252
1.06158357771261
1.1036168132942326
1.1710654936461389
1.2668621700879763
1.391006842619746
1.5405669599217986
1.70772238514174
1.8856304985337244
2.0635386119257086
2.2355816226783967
2.375366568914956
2.490713587487781
2.6050830889540566
2.7096774193548385
2.7996089931573804
2.8699902248289346
2.9237536656891496
2.961876832844575
2.9872922776148583
3.0
3.0
2.989247311827957
2.9667644183773216
2.935483870967742
2.8963831867057674
2.8484848484848486
2.790811339198436
2.7253176930596283
2.653958944281525
2.5777126099706744
2.4995112414467253
2.4222873900293256
2.347996089931574
2.2766373411534704
2.2111436950146626
2.157380254154448
2.1114369501466275
2.0664711632453567
2.0254154447702835
1.9872922776148585
1.9530791788856303
1.921798631476051
1.89247311827957
1.865102639296188
1.8387096774193548
1.8132942326490715
1.7888563049853372
1.7624633431085044
1.7390029325513197
1.715542521994135
1.6881720430107527
1.6588465298142718
1.6275659824046922
1.595307917888563
1.563049853372434
1.5298142717497556
1.4975562072336266
1.4652981427174976
1.434017595307918
1.4037145650048877
1.3792766373411536
1.3587487781036167
1.335288367546432
1.310850439882698
1.2854349951124144
1.2609970674486803
1.2375366568914956
1.2150537634408602
1.1945259042033236
1.1749755620723363
1.1564027370478984
1.1397849462365592
1.1241446725317692
1.1143695014662756
1.10752688172043
1.0987292277614855
1.0909090909090908
1.083088954056696
1.0772238514173995
1.0713587487781036
1.0664711632453567
1.06158357771261
1.0576735092864125
1.053763440860215
1.0498533724340176
1.0488758553274682
1.0498533724340176
1.0488758553274682
1.0469208211143697
1.0449657869012707
1.043010752688172
1.040078201368524
1.0371456500488758
1.0332355816226784
1.0283479960899315
1.021505376344086
1.0146627565982405
1.0097751710654936
1.010752688172043
1.021505376344086
1.0439882697947214
1.086021505376344
1.152492668621701
1.24633431085044
1.3685239491691104
1.5161290322580645
1.6823069403714566
1.858260019550342
2.0361681329423265
2.2082111436950145
2.347996089931574
2.464320625610948
2.5806451612903225
2.6852394916911044
2.7751710654936463
2.8475073313782997
2.903225806451613
2.9442815249266863
2.9696969696969697
2.981427174975562
2.981427174975562
2.9687194525904204
2.946236559139785
2.913978494623656
2.873900293255132
2.825024437927664
2.768328445747801
2.7038123167155423
2.634408602150537
2.5610948191593352
2.486803519061584
2.4134897360703813
2.3421309872922778
2.272727272727273
2.2082111436950145
2.155425219941349
2.110459433040078
2.0684261974584555
2.03128054740958
2.0
1.9716520039100685
1.945259042033236
1.920821114369501
1.8973607038123168
1.8729227761485825
1.8484848484848484
1.823069403714565
1.7996089931573802
1.7771260997067448
1.750733137829912
1.7223851417399805
1.6930596285434996
1.6627565982404693
1.6314760508308896
1.5992179863147604
1.5679374389051808
1.5366568914956011
1.5073313782991202
1.478005865102639
1.4496578690127078
1.4271749755620724
1.4076246334310851
1.3851417399804498
1.3616813294232648
1.33822091886608
1.3147605083088951
1.29227761485826
1.270772238514174
1.2502443792766371
1.2316715542521994
1.2150537634408602
1.1994134897360704
1.1896383186705768
1.1827956989247312
1.173998044965787
1.164222873900293
1.155425219941349
1.1466275659824048
1.1378299120234605
1.1300097751710656
1.1231671554252198
1.1173020527859236
1.1114369501466277
1.1065493646138806
1.1016617790811338
1.099706744868035
1.1006842619745845
1.0987292277614855
1.0957966764418376
1.0928641251221896
1.088954056695992
1.0840664711632453
1.0791788856304985
1.0742913000977516
1.0684261974584557
1.06158357771261
1.0557184750733135
1.053763440860215
1.0586510263929618
1.0703812316715542
1.0977517106549364
1.1466275659824048
1.2209188660801564
1.321603128054741
1.4486803519061584
1.598240469208211
1.7634408602150538
1.9374389051808407
2.1114369501466275
2.27761485826002
2.409579667644184
2.5180840664711632
2.625610948191593
2.721407624633431
2.80058651026393
2.86217008797654
2.9071358748778104
2.9374389051808407
2.9530791788856305
2.956011730205278
2.9472140762463344
2.927663734115347
2.8993157380254155
2.863147605083089
2.8181818181818183
2.764418377321604
2.7038123167155423
2.636363636363636
2.5640273704789838
2.487781036168133
2.4115347018572826
2.3362658846529816
2.2658846529814274
2.20039100684262
2.1417399804496577
2.0928641251221896
2.0527859237536656
2.0146627565982405
1.9794721407624636
1.948191593352884
1.920821114369501
1.8963831867057677
1.8729227761485825
1.8494623655913975
1.8269794721407624
1.8035190615835777
1.7781036168132942
1.7546432062561097
1.7331378299120237
1.70772238514174
1.6793743890518085
1.6490713587487782
1.616813294232649
1.5835777126099706
1.5493646138807429
1.5151515151515151
1.4819159335288368
1.4486803519061584
1.4173998044965788
1.3870967741935485
1.3626588465298142
1.3421309872922775
1.3186705767350928
1.2961876832844574
1.273704789833822
1.252199413489736
1.23069403714565
1.2101661779081134
1.1906158357771262
1.1730205278592376
1.155425219941349
1.1397849462365592
1.1290322580645162
1.1221896383186705
1.1133919843597262
1.104594330400782
1.0957966764418376
1.0869990224828934
1.078201368523949
1.0703812316715542
1.064516129032258
1.0596285434995112
1.0557184750733135
1.0518084066471165
1.0478983382209188
1.0469208211143697
1.0478983382209188
1.0469208211143697
1.0439882697947214
1.0410557184750733
1.0381231671554252
1.0342130987292275
1.0283479960899315
1.021505376344086
1.0146627565982405
1.0068426197458455
1.0009775171065494
1.0
1.0068426197458455
1.024437927663734
1.0576735092864125
1.1143695014662756
1.198435972629521
1.3118279569892473
1.452590420332356
1.6138807429130009
1.7878787878787878
1.967741935483871
2.1436950146627565
2.3098729227761488
2.441837732160313
2.549364613880743
2.653958944281525
2.7468230694037143
2.8240469208211145
2.884652981427175
2.930596285434995
2.962854349951124
2.9824046920821115
2.989247311827957
2.983382209188661
2.9657869012707723
2.93841642228739
2.9012707722385143
2.854349951124145
2.7996089931573804
2.7370478983382207
2.668621700879765
2.595307917888563
2.5180840664711632
2.439882697947214
2.363636363636364
2.291300097751711
2.2238514173998043
2.163245356793744
2.114369501466276
2.072336265884653
2.032258064516129
1.9960899315738023
1.963831867057673
1.9335288367546437
1.905180840664712
1.87683284457478
1.8504398826979471
1.8240469208211143
1.7976539589442817
1.7702834799608993
1.7468230694037146
1.7253176930596286
1.7008797653958945
1.6744868035190617
1.64613880742913
1.6158357771260996
1.58455522971652
1.5513196480938416
1.517106549364614
1.4819159335288368
1.4486803519061584
1.4173998044965788
1.3919843597262953
1.3695014662756595
1.346041055718475
1.3225806451612905
1.2991202346041055
1.2766373411534702
1.2551319648093842
1.2336265884652982
1.2140762463343109
1.1964809384164223
1.1798631476050832
1.164222873900293
1.1495601173020529
1.1397849462365592
1.1329423264907137
1.1251221896383188
1.1163245356793745
1.1094819159335287
1.1026392961876832
1.0957966764418376
1.0899315738025417
1.0840664711632453
1.078201368523949
1.072336265884653
1.067448680351906
1.0654936461388074
1.0664711632453567
1.0654936461388074
1.064516129032258
1.0625610948191593
1.06158357771261
1.0606060606060606
1.0606060606060606
1.0596285434995112
1.0576735092864125
1.0547409579667644
1.050830889540567
1.04594330400782
1.04594330400782
1.050830889540567
1.0625610948191593
1.088954056695992
1.1358748778103618
1.2101661779081134
1.3118279569892473
1.439882697947214
1.5894428152492668
1.7546432062561097
1.927663734115347
2.1006842619745845
2.24633431085044
2.3704789833822093
2.496578690127077
2.6148582600195502
2.718475073313783
2.8054740957966766
2.873900293255132
2.9257086999022484
2.961876832844575
2.98435972629521
2.9931573802541545
2.9902248289345064
2.9765395894428157
2.952101661779081
2.918866080156403
2.877810361681329
2.827956989247312
2.771260997067449
2.708699902248289
2.641251221896383
2.570869990224829
2.5004887585532747
2.432062561094819
2.366568914956012
2.304985337243402
2.2531769305962857
2.209188660801564
2.1681329423264906
2.1300097751710654
2.096774193548387
2.0664711632453567
2.0391006842619745
2.013685239491691
1.989247311827957
1.9657869012707725
1.9413489736070384
1.9159335288367547
1.889540566959922
1.865102639296188
1.8406647116324533
1.812316715542522
1.7820136852394917
1.7497556207233629
1.7174975562072337
1.6842619745845553
1.651026392961877
1.6177908113391983
1.585532746823069
1.5542521994134897
1.525904203323558
1.5024437927663734
1.4819159335288368
1.4613880742913
1.4408602150537635
1.4203323558162269
1.4007820136852396
1.3822091886608017
1.3655913978494625
1.3499511241446724
1.3362658846529814
1.3225806451612905
1.3088954056695992
1.2961876832844574
1.2873900293255132
1.2805474095796676
1.2717497556207231
1.2619745845552297
1.2512218963831867
1.241446725317693
1.23069403714565
1.219941348973607
1.2101661779081134
1.2003910068426198
1.1906158357771262
1.181818181818182
1.176930596285435
1.173998044965787
1.1691104594330402
1.163245356793744
1.1583577712609971
1.1534701857282503
1.1495601173020529
1.144672531769306
1.1397849462365592
1.1329423264907137
1.126099706744868
1.1221896383186705
1.121212121212121
1.126099706744868
1.1407624633431086
1.1700879765395895
1.219941348973607
1.2942326490713587
1.3958944281524928
1.52297165200391
1.6715542521994136
1.8347996089931573
2.003910068426197
2.1710654936461387
2.329423264907136
2.455522971652004
2.5591397849462365
2.659824046920821
2.748778103616813
2.8211143695014664
2.87683284457478
2.9159335288367547
2.941348973607038
2.9530791788856305
2.95405669599218
2.9442815249266863
2.924731182795699
2.895405669599218
2.859237536656892
2.81622678396872
2.763440860215054
2.701857282502444
2.634408602150537
2.5620723362658846
2.486803519061584
2.410557184750733
2.3362658846529816
2.2639296187683287
2.1955034213098727
2.132942326490713
2.081133919843597
2.038123167155425
1.997067448680352
1.959921798631476
1.9257086999022484
1.895405669599218
1.866080156402737
1.8387096774193548
1.812316715542522
1.7859237536656891
1.7605083088954057
1.7350928641251222
1.7096774193548387
1.6871945259042034
1.6656891495601174
1.6383186705767352
1.6080156402737047
1.5747800586510263
1.5395894428152492
1.504398826979472
1.4701857282502444
1.435972629521017
1.4037145650048877
1.3714565004887584
1.3411534701857282
1.316715542521994
1.2961876832844574
1.273704789833822
1.2502443792766371
1.2258064516129032
1.203323558162268
1.1827956989247312
1.163245356793744
1.144672531769306
1.1280547409579669
1.1124144672531768
1.0987292277614855
1.0850439882697946
1.0772238514173995
1.0713587487781036
1.0625610948191593
1.0527859237536656
1.0439882697947214
1.0361681329423265
1.0283479960899315
1.021505376344086
1.0166177908113392
1.0127077223851415
1.0097751710654936
1.007820136852395
1.007820136852395
1.0097751710654936
1.0087976539589445
1.0048875855327468
1.0
0.9931573802541545
0.9853372434017597
0.9775171065493646
0.9716520039100685
0.9687194525904204
0.9726295210166178
0.9882697947214076
1.0156402737047898
1.0586510263929618
1.126099706744868
1.2218963831867058
1.3450635386119256
1.490713587487781
1.6529814271749756
1.826001955034213
1.9990224828934504
2.1652003910068425
2.317693059628544
2.452590420332356
2.567937438905181
2.6510263929618767
2.710654936461388
2.7653958944281527
2.809384164222874
2.8406647116324537
2.86217008797654
2.8729227761485827
2.8719452590420333
2.8611925708699903
2.8396871945259043
2.807429130009776
2.7653958944281527
2.717497556207233
2.664711632453568
2.6021505376344085
2.5317693059628543
2.4574780058651027
2.3812316715542523
2.304985337243402
2.232649071358749
2.164222873900293
2.102639296187683
2.046920821114369
1.9980449657869013
1.9560117302052784
1.921798631476051
1.89247311827957
1.8641251221896384
1.8377321603128052
1.812316715542522
1.7878787878787878
1.7624633431085044
1.737047898338221
1.7116324535679377
1.686217008797654
1.6588465298142718
1.6304985337243405
1.606060606060606
1.5835777126099706
1.5571847507331378
1.5288367546432062
1.499511241446725
1.469208211143695
1.4389051808406648
1.409579667644184
1.380254154447703
1.3519061583577712
1.324535679374389
1.2981427174975562
1.2717497556207231
1.252199413489736
1.2375366568914956
1.2189638318670577
1.1994134897360704
1.1798631476050832
1.1612903225806452
1.142717497556207
1.126099706744868
1.1114369501466277
1.0977517106549364
1.0850439882697946
1.0733137829912025
