ppg
1.1593352883675463
1.1515151515151516
1.1407624633431086
1.1300097751710656
1.1241446725317692
1.1270772238514175
1.144672531769306
1.18475073313783
1.2531769305962854
1.3519061583577712
1.478983382209189
1.6314760508308896
1.7771260997067448
1.919843597262952
2.0821114369501466
2.2453567937438903
2.398826979472141
2.5347018572825024
2.6480938416422286
2.7390029325513194
2.8084066471163247
2.8582600195503423
2.8914956011730206
2.909090909090909
2.9149560117302054
2.909090909090909
2.895405669599218
2.877810361681329
2.857282502443793
2.832844574780059
2.8054740957966766
2.774193548387097
2.7390029325513194
2.699902248289345
2.6559139784946235
2.6050830889540566
2.547409579667644
2.490713587487781
2.43108504398827
2.360703812316716
2.283479960899316
2.204301075268817
2.1251221896383186
2.0498533724340176
1.9804496578690127
1.9188660801564028
1.866080156402737
1.823069403714565
1.7878787878787878
1.7605083088954057
1.7409579667644184
1.7272727272727273
1.715542521994135
1.7057673509286413
1.6979472140762464
1.689149560117302
1.6813294232649072
1.6735092864125125
1.664711632453568
1.6549364613880744
1.643206256109482
1.6304985337243405
1.6187683284457477
1.607038123167155
1.5894428152492668
1.5698924731182795
1.5503421309872922
1.530791788856305
1.512218963831867
1.4936461388074291
1.4760508308895406
1.458455522971652
1.4418377321603129
1.426197458455523
1.409579667644184
1.396871945259042
1.3870967741935485
1.375366568914956
1.3626588465298142
1.3499511241446724
1.33822091886608
1.327468230694037
1.3186705767350928
1.310850439882698
1.303030303030303
1.2961876832844574
1.289345063538612
1.2854349951124144
1.2825024437927663
1.2766373411534702
1.2688172043010753
1.2590420332355816
1.2482893450635386
1.2355816226783969
1.2209188660801564
1.2043010752688172
1.1867057673509287
1.1691104594330402
1.1534701857282503
1.144672531769306
1.1456500488758554
1.1612903225806452
1.1974584555229717
1.2609970674486803
1.3558162267839686
1.482893450635386
1.6373411534701858
1.8113391984359728
1.9960899315738023
2.179863147605083
2.3548387096774195
2.512218963831867
2.632453567937439
2.724340175953079
2.8084066471163247
2.877810361681329
2.930596285434995
2.967741935483871
2.9902248289345064
3.0009775171065494
3.002932551319648
2.997067448680352
2.9853372434017595
2.9687194525904204
2.948191593352884
2.9237536656891496
2.895405669599218
2.866080156402737
2.833822091886608
2.7976539589442817
2.757575757575758
2.713587487781036
2.6637341153470184
2.6070381231671558
2.5425219941348973
2.4711632453567938
2.3919843597262958
2.317693059628544
2.2453567937438903
2.1652003910068425
2.083088954056696
2.003910068426197
1.9305962854349952
1.865102639296188
1.8093841642228736
1.7624633431085044
1.7243401759530792
1.694037145650049
1.6705767350928642
1.6529814271749756
1.640273704789834
1.6314760508308896
1.6217008797653958
1.611925708699902
1.6011730205278591
1.590420332355816
1.5777126099706744
1.564027370478983
1.5493646138807429
1.533724340175953
1.5180840664711632
1.500488758553275
1.4868035190615836
1.474095796676442
1.4594330400782014
1.4437927663734116
1.4281524926686218
1.412512218963832
1.3958944281524928
1.380254154447703
1.364613880742913
1.348973607038123
1.3343108504398826
1.3206256109481915
1.3098729227761483
1.3020527859237536
1.29227761485826
1.2805474095796676
1.2688172043010753
1.2561094819159335
1.2434017595307918
1.2316715542521994
1.2189638318670577
1.2072336265884651
1.195503421309873
1.18475073313783
1.1730205278592376
1.164222873900293
1.1573802541544478
1.1466275659824048
1.133919843597263
1.1202346041055715
1.1065493646138806
1.0918866080156402
1.0772238514173995
1.0625610948191593
1.0498533724340176
1.0420332355816226
1.0449657869012707
1.0596285434995112
1.0918866080156402
1.147605083088954
1.2326490713587488
1.3479960899315735
1.490713587487781
1.653958944281525
1.827956989247312
2.004887585532747
2.174975562072336
2.3313782991202348
2.4672531769305963
2.5806451612903225
2.6608015640273703
2.716520039100684
2.763440860215054
2.798631476050831
2.8211143695014664
2.832844574780059
2.833822091886608
2.8269794721407626
2.814271749755621
2.7966764418377323
2.7751710654936463
2.7497556207233624
2.721407624633431
2.69208211143695
2.659824046920821
2.625610948191593
2.587487781036168
2.5454545454545454
2.4975562072336266
2.443792766373412
2.383186705767351
2.315738025415445
2.242424242424242
2.1652003910068425
2.085043988269794
2.0127077223851417
1.9472140762463344
1.878787878787879
1.812316715542522
1.7517106549364614
1.6989247311827955
1.6549364613880744
1.6207233626588464
1.5933528836754642
1.5728250244379276
1.5571847507331378
1.544477028347996
1.5366568914956011
1.5298142717497556
1.521016617790811
1.5112414467253177
1.500488758553275
1.4887585532746823
1.4750733137829912
1.4594330400782014
1.4437927663734116
1.4271749755620724
1.4105571847507332
1.392961876832845
1.375366568914956
1.3607038123167154
1.3479960899315735
1.332355816226784
1.3157380254154447
1.2981427174975562
1.281524926686217
1.2649071358748778
1.249266862170088
1.2336265884652982
1.2189638318670577
1.2052785923753666
1.1935483870967742
1.1857282502443791
1.1798631476050832
1.1720430107526882
1.164222873900293
1.1564027370478984
1.1495601173020529
1.142717497556207
1.1358748778103618
1.1290322580645162
1.121212121212121
1.1133919843597262
1.1055718475073313
1.0977517106549364
1.0928641251221896
1.088954056695992
1.0821114369501466
1.0733137829912025
1.0625610948191593
1.050830889540567
1.040078201368524
1.0332355816226784
1.0342130987292275
1.0469208211143697
1.0772238514173995
1.130987292277615
1.198435972629521
1.281524926686217
1.3958944281524928
1.533724340175953
1.6871945259042034
1.847507331378299
2.005865102639296
2.1544477028347995
2.2883675464320627
2.4027370478983383
2.496578690127077
2.5698924731182795
2.625610948191593
2.658846529814272
2.67644183773216
2.6881720430107525
2.69208211143695
2.689149560117302
2.681329423264907
2.668621700879765
2.6510263929618767
2.625610948191593
2.595307917888563
2.5650048875855327
2.532746823069404
2.4995112414467253
2.464320625610948
2.4242424242424243
2.378299120234604
2.326490713587488
2.267839687194526
2.203323558162268
2.133919843597263
2.060606060606061
1.9872922776148585
1.9149560117302051
1.8455522971652003
1.782991202346041
1.7331378299120237
1.6930596285434996
1.6559139784946235
1.624633431085044
1.5992179863147604
1.5796676441837731
1.564027370478983
1.5513196480938416
1.5405669599217986
1.530791788856305
1.521016617790811
1.5102639296187683
1.501466275659824
1.4926686217008798
1.479960899315738
1.4643206256109482
1.4467253176930597
1.4281524926686218
1.4076246334310851
1.3851417399804498
1.3626588465298142
1.3391984359726294
1.3157380254154447
1.29227761485826
1.2688172043010753
1.2512218963831867
1.2375366568914956
1.219941348973607
1.2013685239491692
1.1827956989247312
1.1652003910068427
1.147605083088954
1.130987292277615
1.115347018572825
1.1006842619745845
1.086021505376344
1.072336265884653
1.0635386119257086
1.0576735092864125
1.0488758553274682
1.0381231671554252
1.0273704789833822
1.0156402737047898
1.0039100684261977
0.9931573802541545
0.9824046920821116
0.9716520039100685
0.9618768328445748
0.9521016617790812
0.9413489736070382
0.9345063538611924
0.9305962854349952
0.9237536656891496
0.919843597262952
0.9217986314760508
0.935483870967742
0.9667644183773216
1.0195503421309873
1.099706744868035
1.206256109481916
1.3362658846529814
1.4868035190615836
1.6265884652981428
1.7595307917888563
1.906158357771261
2.050830889540567
2.182795698924731
2.2981427174975564
2.393939393939394
2.4701857282502444
2.5268817204301075
2.5669599217986314
2.592375366568915
2.6050830889540566
2.606060606060606
2.5992179863147604
2.5884652981427174
2.573802541544477
2.5562072336265884
2.535679374389052
2.512218963831867
2.486803519061584
2.4594330400782014
2.4281524926686218
2.3929618768328447
2.3519061583577714
2.3059628543499517
2.260019550342131
2.2111436950146626
2.15347018572825
2.0879765395894427
2.018572825024438
1.9472140762463344
1.87683284457478
1.8113391984359728
1.750733137829912
1.696969696969697
1.6520039100684265
1.6138807429130009
1.5865102639296187
1.5669599217986314
1.5493646138807429
1.5356793743890518
1.5239491691104594
1.5151515151515151
1.5073313782991202
1.499511241446725
1.4916911045943304
1.482893450635386
1.474095796676442
1.4643206256109482
1.4535679374389052
1.444770283479961
1.436950146627566
1.426197458455523
1.412512218963832
1.3978494623655917
1.3822091886608017
1.3655913978494625
1.348973607038123
1.332355816226784
1.3157380254154447
1.2991202346041055
1.281524926686217
1.2688172043010753
1.2580645161290325
1.2443792766373412
1.2297165200391007
1.2140762463343109
1.198435972629521
1.1827956989247312
1.1681329423264908
1.152492668621701
1.1378299120234605
1.1241446725317692
1.110459433040078
1.096774193548387
1.0879765395894427
1.0811339198435972
1.0713587487781036
1.0596285434995112
1.0478983382209188
1.0361681329423265
1.0234604105571847
1.0117302052785924
0.9990224828934506
0.9863147605083088
0.9745845552297164
0.9657869012707724
0.9648093841642228
0.9726295210166178
0.9912023460410556
1.0283479960899315
1.088954056695992
1.176930596285435
1.2913000977517106
1.4281524926686218
1.5806451612903225
1.7409579667644184
1.900293255131965
2.050830889540567
2.185728250244379
2.289345063538612
2.3685239491691106
2.439882697947214
2.4975562072336266
2.539589442815249
2.565982404692082
2.579667644183773
2.582600195503421
2.576735092864125
2.5650048875855327
2.548387096774193
2.527859237536657
2.505376344086021
2.4809384164222874
2.4545454545454546
2.4252199413489737
2.3929618768328447
2.357771260997068
2.317693059628544
2.272727272727273
2.2218963831867056
2.1652003910068425
2.102639296187683
2.0361681329423265
1.9667644183773216
1.9042033235581624
1.8484848484848484
1.7898338220918866
1.7331378299120237
1.6813294232649072
1.635386119257087
1.598240469208211
1.56891495601173
1.5454545454545454
1.5268817204301075
1.5141739980449658
1.504398826979472
1.498533724340176
1.4946236559139785
1.4897360703812317
1.4838709677419355
1.478005865102639
1.4711632453567938
1.4643206256109482
1.455522971652004
1.444770283479961
1.4330400782013686
1.4203323558162269
1.4056695992179864
1.391006842619746
1.3792766373411536
1.3685239491691104
1.35386119257087
1.33822091886608
1.3225806451612905
1.3069403714565004
1.2913000977517106
1.2756598240469208
1.2609970674486803
1.2473118279569892
1.2336265884652982
1.2209188660801564
1.2121212121212122
1.2052785923753666
1.1974584555229717
1.1886608015640274
1.1798631476050832
1.1710654936461389
1.1622678396871946
1.152492668621701
1.142717497556207
1.1329423264907137
1.1231671554252198
1.1124144672531768
1.1006842619745845
1.0918866080156402
1.0918866080156402
1.0918866080156402
1.0918866080156402
1.0918866080156402
1.0918866080156402
1.1319648093841643
1.1368523949169111
1.1564027370478984
1.1994134897360704
1.270772238514174
1.3734115347018572
1.4858260019550342
1.6109481915933528
1.7683284457478006
1.9442815249266865
2.1251221896383186
2.300097751710655
2.4604105571847508
2.601173020527859
2.719452590420332
2.8132942326490715
2.884652981427175
2.9345063538611926
2.9657869012707723
2.979472140762464
2.9804496578690127
2.9745845552297165
2.962854349951124
2.945259042033236
2.9227761485826003
2.8963831867057674
2.866080156402737
2.832844574780059
2.795698924731183
2.7536656891495603
2.7067448680351904
2.659824046920821
2.6099706744868034
2.549364613880743
2.4809384164222874
2.406647116324536
2.3274682306940373
2.247311827956989
2.1700879765395893
2.096774193548387
2.03128054740958
1.975562072336266
1.9286412512218964
1.8944281524926687
1.8699902248289344
1.8494623655913975
1.833822091886608
1.823069403714565
1.81524926686217
1.8093841642228736
1.804496578690127
1.8005865102639296
1.7956989247311828
1.7888563049853372
1.780058651026393
1.76930596285435
1.7605083088954057
1.7526881720430108
1.7409579667644184
1.726295210166178
1.710654936461388
1.6930596285434996
1.6744868035190617
1.6549364613880744
1.635386119257087
1.6158357771260996
1.5972629521016617
1.5786901270772238
1.5650048875855327
1.5542521994134897
1.5405669599217986
1.5249266862170088
1.509286412512219
1.4946236559139785
1.479960899315738
1.466275659824047
1.4535679374389052
1.4408602150537635
1.4281524926686218
1.41544477028348
1.4027370478983383
1.393939393939394
1.3870967741935485
1.3773216031280548
1.3655913978494625
1.3519061583577712
1.3362658846529814
1.3196480938416422
1.3020527859237536
1.2834799608993157
1.2658846529814272
1.2541544477028348
1.2512218963831867
1.2619745845552297
1.2903225806451613
1.3450635386119256
1.43108504398827
1.5493646138807429
1.6989247311827955
1.871945259042033
2.060606060606061
2.254154447702835
2.443792766373412
2.618768328445748
2.774193548387097
2.906158357771261
3.0009775171065494
3.0684261974584555
3.1270772238514173
3.1710654936461387
3.201368523949169
3.218963831867057
3.225806451612903
3.222873900293255
3.2130987292277613
3.1974584555229715
3.176930596285435
3.1524926686217007
3.1251221896383186
3.0948191593352883
3.0625610948191597
3.026392961876833
2.9872922776148583
2.943304007820137
2.89345063538612
2.838709677419355
2.776148582600196
2.7067448680351904
2.631476050830889
2.550342130987292
2.466275659824047
2.3919843597262958
2.3225806451612905
2.2482893450635384
2.175953079178885
2.1094819159335287
2.050830889540567
2.0009775171065494
1.959921798631476
1.927663734115347
1.9012707722385145
1.8797653958944285
1.8631476050830889
1.8504398826979471
1.8406647116324533
1.83088954056696
1.8191593352883677
1.8074291300097751
1.793743890518084
1.7790811339198436
1.7624633431085044
1.7448680351906158
1.726295210166178
1.7067448680351909
1.686217008797654
1.664711632453568
1.6471163245356797
1.6304985337243405
1.6099706744868034
1.5884652981427174
1.5669599217986314
1.5454545454545454
1.5249266862170088
1.5053763440860215
1.4858260019550342
1.4672531769305963
1.4496578690127078
1.4330400782013686
1.4213098729227762
1.412512218963832
1.401759530791789
1.3900293255131966
1.3773216031280548
1.3636363636363635
1.3499511241446724
1.3362658846529814
1.321603128054741
1.3069403714565004
1.2913000977517106
1.2756598240469208
1.260019550342131
1.2482893450635386
1.238514173998045
1.224828934506354
1.2130987292277615
1.2082111436950147
1.2160312805474096
1.2443792766373412
1.300097751710655
1.3870967741935485
1.5073313782991202
1.656891495601173
1.8299120234604105
1.991202346041056
2.145650048875855
2.318670576735093
2.4916911045943304
2.6529814271749754
2.795698924731183
2.9159335288367547
3.0127077223851417
3.0869990224828934
3.1407624633431084
3.175953079178885
3.1974584555229715
3.206256109481916
3.201368523949169
3.187683284457478
3.1710654936461387
3.1515151515151514
3.1280547409579667
3.1006842619745845
3.069403714565005
3.0361681329423265
2.99902248289345
2.9589442815249267
2.913000977517106
2.8611925708699903
2.809384164222874
2.7536656891495603
2.687194525904203
2.6129032258064515
2.5317693059628543
2.4457478005865103
2.356793743890518
2.267839687194526
2.182795698924731
2.103616813294233
2.0332355816226784
1.9716520039100685
1.920821114369501
1.8826979472140764
1.8543499511241448
1.827956989247312
1.8054740957966764
1.7869012707722385
1.772238514173998
1.758553274682307
1.7448680351906158
1.7311827956989247
1.7174975562072337
1.7028347996089932
1.6881720430107527
1.675464320625611
1.6637341153470186
1.6490713587487782
1.632453567937439
1.6138807429130009
1.5933528836754642
1.5728250244379276
1.5513196480938416
1.5298142717497556
1.4711632453567938
1.3949169110459434
1.3470185728250244
1.313782991202346
1.2932551319648091
1.2795698924731185
1.2649071358748778
1.2502443792766371
1.2346041055718475
1.219941348973607
1.2072336265884651
1.1945259042033236
1.1827956989247312
1.1710654936461389
1.1593352883675463
1.1466275659824048
1.13880742913001
1.1329423264907137
1.1231671554252198
1.1114369501466277
1.0977517106549364
1.083088954056696
1.0684261974584557
1.053763440860215
1.0391006842619743
1.0254154447702837
1.0166177908113392
1.0166177908113392
1.0283479960899315
1.056695992179863
1.1085043988269794
1.1886608015640274
1.300097751710655
1.4418377321603129
1.607038123167155
1.7878787878787878
1.9745845552297163
2.158357771260997
2.3304007820136854
2.484848484848485
2.6177908113391983
2.7145650048875853
2.7839687194525906
2.844574780058651
2.8905180840664717
2.921798631476051
2.9393939393939394
2.945259042033236
2.940371456500489
2.927663734115347
2.909090909090909
2.8856304985337244
2.857282502443793
2.8269794721407626
2.7947214076246336
2.7595307917888565
2.720430107526881
2.675464320625611
2.625610948191593
2.570869990224829
2.509286412512219
2.4408602150537635
2.366568914956012
2.2873900293255134
2.2052785923753664
2.121212121212121
2.047898338220919
1.981427174975562
1.911045943304008
1.844574780058651
1.7839687194525904
1.7311827956989247
1.6871945259042034
1.6520039100684265
1.624633431085044
1.603128054740958
1.5865102639296187
1.573802541544477
1.5650048875855327
1.5571847507331378
1.5483870967741935
1.5386119257087
1.5288367546432062
1.517106549364614
1.5053763440860215
1.4926686217008798
1.478983382209189
1.4643206256109482
1.4486803519061584
1.43108504398827
1.412512218963832
1.3978494623655917
1.3851417399804498
1.3685239491691104
1.348973607038123
1.3294232649071358
1.3098729227761483
1.2913000977517106
1.2746823069403714
1.2580645161290325
1.2424242424242424
1.227761485826002
1.2140762463343109
1.2052785923753666
1.1994134897360704
1.1896383186705768
1.1779081133919844
1.166177908113392
1.1544477028347997
1.141739980449658
1.1290322580645162
1.115347018572825
1.1016617790811338
1.0869990224828934
1.072336265884653
1.056695992179863
1.04594330400782
1.0381231671554252
1.0273704789833822
1.0175953079178883
1.0127077223851415
1.0195503421309873
1.0439882697947214
1.0918866080156402
1.1691104594330402
1.2776148582600195
1.4173998044965788
1.5826001955034212
1.739980449657869
1.8944281524926687
2.069403714565005
2.247311827956989
2.4144672531769307
2.563049853372434
2.6881720430107525
2.788856304985337
2.865102639296188
2.918866080156403
2.9530791788856305
2.970674486803519
2.9745845552297165
2.964809384164223
2.9472140762463344
2.9237536656891496
2.8963831867057674
2.866080156402737
2.831867057673509
2.793743890518084
2.752688172043011
2.70772238514174
2.658846529814272
2.606060606060606
2.547409579667644
2.4887585532746823
2.4281524926686218
2.357771260997068
2.2795698924731185
2.196480938416422
2.1114369501466275
2.026392961876833
1.945259042033236
1.870967741935484
1.8035190615835777
1.7438905180840665
1.694037145650049
1.653958944281525
1.624633431085044
1.6041055718475072
1.587487781036168
1.573802541544477
1.563049853372434
1.5542521994134897
1.547409579667644
1.5395894428152492
1.530791788856305
1.521016617790811
1.5102639296187683
1.499511241446725
1.490713587487781
1.482893450635386
1.4711632453567938
1.456500488758553
1.4408602150537635
1.423264907135875
1.4056695992179864
1.3861192570869991
1.3665689149560116
1.346041055718475
1.327468230694037
1.3088954056695992
1.2903225806451613
1.2766373411534702
1.2658846529814272
1.2531769305962854
1.2394916911045943
1.2258064516129032
1.2130987292277615
1.2003910068426198
1.187683284457478
1.1749755620723363
1.1622678396871946
1.1495601173020529
1.1368523949169111
1.1270772238514175
1.1202346041055715
1.1094819159335287
1.096774193548387
1.0821114369501466
1.067448680351906
1.0518084066471165
1.0371456500488758
1.024437927663734
1.0166177908113392
1.0166177908113392
1.0303030303030305
1.0654936461388074
1.1143695014662756
1.1837732160312806
1.2883675464320623
1.4252199413489737
1.590420332355816
1.7741935483870968
1.967741935483871
2.161290322580645
2.343108504398827
2.50733137829912
2.6480938416422286
2.763440860215054
2.843597262952102
2.8963831867057674
2.93841642228739
2.9657869012707723
2.979472140762464
2.979472140762464
2.9687194525904204
2.949169110459433
2.9237536656891496
2.89247311827957
2.857282502443793
2.819159335288368
2.777126099706745
2.735092864125122
2.69208211143695
2.643206256109482
2.5884652981427174
2.5268817204301075
2.458455522971652
2.3841642228739004
2.303030303030303
2.217986314760508
2.1309872922776147
2.0449657869012707
1.9618768328445748
1.89247311827957
1.833822091886608
1.775171065493646
1.7223851417399805
1.6764418377321604
1.6392961876832846
1.6099706744868034
1.587487781036168
1.5698924731182795
1.5571847507331378
1.547409579667644
1.5395894428152492
1.5347018572825024
1.5298142717497556
1.52297165200391
1.5151515151515151
1.5053763440860215
1.4946236559139785
1.4819159335288368
1.4682306940371457
1.4535679374389052
1.436950146627566
1.4193548387096775
1.3998044965786902
1.380254154447703
1.3655913978494625
1.3519061583577712
1.335288367546432
1.316715542521994
1.2991202346041055
1.281524926686217
1.2649071358748778
1.249266862170088
1.2336265884652982
1.2189638318670577
1.2052785923753666
1.1925708699902249
1.1827956989247312
1.1759530791788857
1.166177908113392
1.1544477028347997
1.1407624633431086
1.126099706744868
1.1114369501466277
1.0957966764418376
1.0801564027370478
1.0635386119257086
1.04594330400782
1.0283479960899315
1.010752688172043
0.9990224828934506
0.9912023460410556
0.9833822091886608
0.9833822091886608
0.9990224828934506
1.0361681329423265
1.1016617790811338
1.1994134897360704
1.3294232649071358
1.4887585532746823
1.6705767350928642
1.865102639296188
2.0361681329423265
2.1915933528836757
2.3548387096774195
2.5083088954056696
2.643206256109482
2.7546432062561097
2.8406647116324537
2.903225806451613
2.943304007820137
2.964809384164223
2.970674486803519
2.964809384164223
2.948191593352884
2.9237536656891496
2.8944281524926687
2.8611925708699903
2.8240469208211145
2.7839687194525906
2.740957966764418
2.695014662756598
2.644183773216031
2.5884652981427174
2.527859237536657
2.4604105571847508
2.386119257086999
2.314760508308896
2.243401759530792
2.1622678396871944
2.0762463343108504
1.989247311827957
1.905180840664712
1.826001955034213
1.7546432062561097
1.6930596285434996
1.640273704789834
1.5972629521016617
1.5650048875855327
1.5405669599217986
1.5249266862170088
1.5151515151515151
1.5073313782991202
1.501466275659824
1.4975562072336266
1.4936461388074291
1.4897360703812317
1.4838709677419355
1.4760508308895406
1.466275659824047
1.455522971652004
1.4428152492668622
1.4320625610948192
1.4213098729227762
1.4076246334310851
1.3919843597262953
1.375366568914956
1.3577712609970674
1.3401759530791788
1.3225806451612905
1.305962854349951
1.289345063538612
1.273704789833822
1.2590420332355816
1.2443792766373412
1.2336265884652982
1.224828934506354
1.2140762463343109
1.2023460410557183
1.1906158357771262
1.1788856304985338
1.166177908113392
1.1534701857282503
1.1407624633431086
1.1270772238514175
1.1124144672531768
1.096774193548387
1.0850439882697946
1.0762463343108504
1.064516129032258
1.050830889540567
1.0371456500488758
1.0224828934506354
1.0097751710654936
1.0039100684261977
1.0097751710654936
1.0342130987292275
1.0850439882697946
1.166177908113392
1.2805474095796676
1.4027370478983383
1.5386119257087
1.7096774193548387
1.8983382209188664
2.0928641251221896
2.281524926686217
2.453567937438905
2.603128054740958
2.727272727272727
2.8240469208211145
2.8944281524926687
2.941348973607038
2.962854349951124
2.967741935483871
2.963831867057673
